# starting wavelength: 3378.560
# ending wavelength: 7164.280
# wav flux eflux
3.381741812935407324e+03 1.056840357329774660e+00 1.007136069486884271e-02
3.385123554748343849e+03 1.074621375214429353e+00 8.868577941826516833e-03
3.388508678303093347e+03 1.091498510343336337e+00 7.716503269213751542e-03
3.391897186981397681e+03 1.106905443903986708e+00 6.308697768224124335e-03
3.395289084168380214e+03 1.121961796096498487e+00 5.351703687762525939e-03
3.398684373252549449e+03 1.135187476508300763e+00 5.026932826923140654e-03
3.402083057625803121e+03 1.146278914941652793e+00 4.868741674261903470e-03
3.405485140683430018e+03 1.155848521967871800e+00 4.638834897647071791e-03
3.408890625824114522e+03 1.164078140405636619e+00 4.452900121259313442e-03
3.412299516449939802e+03 1.171717767036826618e+00 4.217926149057163628e-03
3.415711815966390986e+03 1.179388184150948593e+00 3.984535505866328847e-03
3.419127527782358356e+03 1.186410089764691200e+00 3.808997058231571205e-03
3.422546655310141887e+03 1.193020285041579198e+00 3.730017372586394431e-03
3.425969201965453522e+03 1.197190513879398344e+00 3.510942875401596667e-03
3.429395171167419903e+03 1.201452798566619240e+00 3.562586916655553076e-03
3.432824566338588284e+03 1.202917854884743232e+00 3.558141643605179042e-03
3.436257390904928343e+03 1.204386102549158011e+00 3.622634782570189216e-03
3.439693648295834464e+03 1.204786035643559350e+00 3.654172883273033509e-03
3.443133341944131189e+03 1.203510248232406710e+00 3.645325795248211941e-03
3.446576475286076402e+03 1.201625669607945257e+00 3.790006645202207477e-03
3.450023051761363604e+03 1.198393674873974746e+00 4.083659453587153848e-03
3.453473074813126004e+03 1.196218112861382021e+00 4.073100040244935494e-03
3.456926547887940615e+03 1.193650157134861001e+00 4.139434592830883337e-03
3.460383474435829612e+03 1.191597301384538454e+00 4.121782995705655997e-03
3.463843857910266706e+03 1.188000466664173915e+00 4.335870566508984170e-03
3.467307701768178049e+03 1.184502838205252040e+00 4.335659114130738234e-03
3.470775009469947236e+03 1.181373488495611968e+00 4.184832223431665839e-03
3.474245784479418489e+03 1.177875448234533939e+00 3.828170808780214339e-03
3.477720030263898934e+03 1.175875939606901843e+00 3.661183399242382355e-03
3.481197750294164052e+03 1.174632874844197428e+00 3.649356716250484137e-03
3.484678948044459503e+03 1.174188342070031199e+00 3.812673772129532117e-03
3.488163626992504760e+03 1.175477593984490143e+00 3.900034314359497340e-03
3.491651790619498570e+03 1.176099986572138212e+00 3.945934691785035406e-03
3.495143442410119405e+03 1.177387001383789267e+00 4.101827738848103956e-03
3.498638585852530468e+03 1.179517230869886690e+00 4.148518539397857453e-03
3.502137224438384237e+03 1.180264210349502463e+00 4.010284247711746325e-03
3.505639361662823831e+03 1.181528044373022279e+00 3.793046397034110888e-03
3.509145001024487556e+03 1.181450434124548643e+00 3.356872302575949433e-03
3.512654146025513455e+03 1.181579208833414052e+00 2.349340708100059166e-03
3.516166800171540217e+03 1.177085254041135398e+00 2.541025641343494946e-03
3.519682966971712631e+03 1.170958022411182409e+00 2.827746543501098633e-03
3.523202649938685681e+03 1.162093507148201921e+00 3.095567833358766133e-03
3.526725852588625457e+03 1.152592319923898323e+00 3.190291793453300072e-03
3.530252578441215064e+03 1.142656181145210947e+00 3.266264443892809722e-03
3.533782831019657806e+03 1.132468860749860751e+00 3.171934049576430586e-03
3.537316613850678550e+03 1.122622307075560100e+00 3.176018210340675069e-03
3.540853930464530094e+03 1.113979760756321546e+00 2.843821602021253444e-03
3.544394784394995895e+03 1.107804707972303904e+00 2.846823797313755011e-03
3.547939179179392340e+03 1.102410640277385445e+00 2.855412961096425416e-03
3.551487118358572843e+03 1.098410875496844685e+00 2.782571911192598547e-03
3.555038605476932389e+03 1.095963522570598592e+00 2.793321371961508121e-03
3.558593644082410719e+03 1.094934363322311421e+00 3.245481453725136602e-03
3.562152237726494150e+03 1.096919587203487367e+00 3.511402989092922422e-03
3.565714389964221937e+03 1.099579558567765680e+00 3.783969104505815768e-03
3.569280104354187188e+03 1.102611078617626195e+00 3.656763331841191185e-03
3.572849384458542772e+03 1.102990334852017806e+00 3.582376735656759865e-03
3.576422233843002232e+03 1.103720941268750755e+00 3.305475084698720686e-03
3.579998656076846601e+03 1.103210549321031575e+00 3.175371363074685517e-03
3.583578654732924406e+03 1.102023243685741116e+00 3.106435047482168643e-03
3.587162233387658489e+03 1.100723469532582488e+00 3.159234967606256318e-03
3.590749395621047370e+03 1.096590350424302640e+00 3.286190978036062325e-03
3.594340145016669794e+03 1.091641353452166729e+00 3.196767500810599252e-03
3.597934485161687462e+03 1.084626270348186594e+00 2.862125594503920571e-03
3.601532419646850485e+03 1.077612356289220141e+00 2.703706395903729236e-03
3.605133952066498296e+03 1.069941333173694886e+00 2.418987901413712383e-03
3.608739086018566013e+03 1.063482280311736083e+00 2.402829326026532149e-03
3.612347825104585809e+03 1.056390844910454208e+00 2.434800887221576140e-03
3.615960172929691907e+03 1.048669788075903941e+00 2.451229717130030787e-03
3.619576133102622407e+03 1.042247168437234084e+00 2.605913962054753636e-03
3.623195709235726554e+03 1.037803529272534053e+00 2.721435504706970140e-03
3.626818904944963379e+03 1.033894349901901100e+00 2.892817470264425275e-03
3.630445723849909427e+03 1.031550106630549468e+00 2.939013287177044600e-03
3.634076169573760581e+03 1.029387560138311342e+00 2.919856004049314023e-03
3.637710245743335690e+03 1.029676897939156399e+00 2.862000262489322773e-03
3.641347955989080219e+03 1.031359336811150218e+00 3.011725272600252086e-03
3.644989303945070333e+03 1.033857759541469079e+00 3.368228381525655707e-03
3.648634293249016537e+03 1.037672085247822062e+00 3.880026468021152176e-03
3.652282927542266862e+03 1.040354090735371884e+00 3.793756445493841160e-03
3.655935210469810499e+03 1.044098268904524840e+00 3.846636159795956047e-03
3.659591145680281443e+03 1.046847442843920506e+00 3.229170014628691011e-03
3.663250736825963031e+03 1.046326416086675870e+00 2.354340982640097668e-03
3.666913987562790226e+03 1.041513085778801528e+00 2.300311415406022710e-03
3.670580901550354156e+03 1.034040825287720899e+00 2.329940851372346716e-03
3.674251482451905758e+03 1.022112301057289452e+00 2.385711338584122106e-03
3.677925733934358959e+03 1.008288013219705404e+00 2.221069554183811683e-03
3.681603659668294313e+03 9.924770384555510194e-01 2.241119241009237491e-03
3.685285263327964003e+03 9.754174433446822778e-01 2.398621808970136191e-03
3.688970548591293209e+03 9.573648611542247000e-01 2.844150922987664747e-03
3.692659519139885560e+03 9.420036098585260476e-01 3.083797701672459819e-03
3.696352178659026777e+03 9.302293495619406993e-01 3.133847485858628438e-03
3.700048530837686940e+03 9.227868162928477558e-01 2.995007001459178749e-03
3.703748579368525952e+03 9.198654980013845073e-01 2.809425132174168255e-03
3.707452327947895355e+03 9.225842889613957709e-01 2.958304914742619900e-03
3.711159780275844696e+03 9.302575159314839803e-01 3.340672661934378229e-03
3.714870940056121526e+03 9.425217820167236527e-01 3.606619102706954197e-03
3.718585810996179134e+03 9.583967660089636187e-01 3.488636112376044054e-03
3.722304396807176545e+03 9.778929600825549961e-01 3.147520153748090219e-03
3.726026701203984885e+03 9.992286679746079647e-01 2.896163904766744807e-03
3.729752727905190113e+03 1.021307854250689706e+00 2.707386503542078254e-03
3.733482480633096657e+03 1.041453226194960946e+00 2.690455984412025870e-03
3.737215963113731050e+03 1.063787259471035362e+00 2.842648191426811171e-03
3.740953179076846027e+03 1.081887222818521899e+00 2.907524094010993741e-03
3.744694132255923705e+03 1.095465247088574845e+00 2.726911592011789683e-03
3.748438826388181042e+03 1.105834363914319551e+00 2.822310677600449458e-03
3.752187265214570289e+03 1.115338185562604334e+00 2.806367972206944873e-03
3.755939452479786269e+03 1.123464549543099933e+00 2.721791248381799384e-03
3.759695391932267285e+03 1.129510523854072357e+00 2.642982291199484982e-03
3.763455087324201031e+03 1.132636924841682546e+00 2.881636255440927878e-03
3.767218542411526414e+03 1.133230369106087210e+00 3.039135671074550630e-03
3.770985760953939007e+03 1.134413376334487911e+00 2.797548426897782711e-03
3.774756746714894234e+03 1.135807236698443301e+00 2.437893947259390289e-03
3.778531503461610555e+03 1.139131707669323257e+00 2.322967138171253519e-03
3.782310034965073100e+03 1.144579677464735656e+00 2.321169636294867587e-03
3.786092345000039586e+03 1.151519338374942913e+00 2.333169779893280119e-03
3.789878437345040766e+03 1.160285399524713990e+00 2.509433894625256404e-03
3.793668315782387253e+03 1.168093856744100600e+00 2.481437802970076680e-03
3.797461984098170888e+03 1.176527760374407539e+00 2.484465793003492236e-03
3.801259446082270188e+03 1.184445217825315089e+00 2.565032654088563336e-03
3.805060705528353537e+03 1.190303522834853522e+00 2.511035407809372212e-03
3.808865766233883278e+03 1.194396296380262790e+00 2.574546799549966205e-03
3.812674632000118436e+03 1.199384799129917800e+00 2.040267363611272724e-03
3.816487306632119726e+03 1.200206592217666124e+00 2.607748434475713230e-03
3.820303793938753188e+03 1.200509509868220581e+00 1.974918832792579241e-03
3.824124097732693372e+03 1.202067155466495896e+00 1.867211692947089380e-03
3.827948221830427428e+03 1.203678879791481471e+00 1.875960016468033618e-03
3.831776170052258749e+03 1.206104957532097233e+00 2.096528762372831377e-03
3.835607946222312421e+03 1.207067500453652631e+00 2.118020946221820921e-03
3.839443554168536139e+03 1.207654311966759098e+00 2.162588276730570327e-03
3.843282997722705659e+03 1.208170230430425374e+00 1.896538552575251745e-03
3.847126280720429804e+03 1.206475318516226025e+00 2.087438056988327739e-03
3.850973407001151372e+03 1.204267430512774961e+00 2.298606912056242076e-03
3.854824380408153957e+03 1.201613756605618422e+00 2.259413281442039425e-03
3.858679204788563311e+03 1.199095169867917532e+00 2.232745801623429050e-03
3.862537883993353262e+03 1.195877822126835133e+00 2.247087304065899672e-03
3.866400421877347981e+03 1.191977371505835936e+00 1.904789471019779001e-03
3.870266822299226533e+03 1.190501934963485109e+00 2.106423508957827768e-03
3.874137089121526969e+03 1.190076108655804710e+00 2.201670120768237614e-03
3.878011226210649966e+03 1.188829367506988310e+00 2.161543014153478014e-03
3.881889237436861549e+03 1.188282063225920115e+00 2.068551317127615904e-03
3.885771126674299921e+03 1.187902354028100405e+00 2.140240402057418025e-03
3.889656897800975457e+03 1.186682819912300291e+00 2.038118371252854635e-03
3.893546554698777527e+03 1.187873640116446250e+00 2.319564561542351768e-03
3.897440101253477678e+03 1.188908021512302460e+00 2.403327695971977339e-03
3.901337541354732366e+03 1.189404600449665228e+00 2.400435299725210605e-03
3.905238878896088409e+03 1.190471165511814089e+00 2.340095591251448344e-03
3.909144117774985716e+03 1.190656270724733012e+00 2.546369317802675818e-03
3.913053261892762293e+03 1.191804085609171171e+00 2.857712753533753723e-03
3.916966315154656058e+03 1.194141754096285535e+00 2.988709657492873064e-03
3.920883281469812118e+03 1.197045371854222884e+00 2.731268863379390354e-03
3.924804164751283224e+03 1.201230006701450082e+00 2.810216120376055841e-03
3.928728968916035683e+03 1.206506644922807903e+00 3.295846620198071997e-03
3.932657697884953450e+03 1.210850375005394053e+00 3.220135251460593505e-03
3.936590355582839493e+03 1.212678667687788536e+00 3.197878763781469413e-03
3.940526945938423523e+03 1.213663100417785801e+00 3.211846555514590029e-03
3.944467472884363360e+03 1.214095711701926650e+00 2.876980131442810531e-03
3.948411940357249023e+03 1.211980920220130153e+00 2.450570995499759021e-03
3.952360352297607733e+03 1.204797157657037543e+00 2.696238625312201431e-03
3.956312712649906643e+03 1.194610767183765576e+00 3.160857357030724853e-03
3.960269025362557841e+03 1.181897586625437313e+00 2.815894473182956569e-03
3.964229294387921527e+03 1.168611043511798231e+00 2.116845466011104716e-03
3.968193523682310570e+03 1.156684186716123719e+00 2.085814388320784019e-03
3.972161717205994591e+03 1.144740034840125542e+00 2.081072311390959242e-03
3.976133878923201792e+03 1.134800071498094365e+00 2.202316829542405423e-03
3.980110012802126221e+03 1.127405887754408642e+00 2.398302302623728319e-03
3.984090122814929600e+03 1.122037871816530474e+00 2.495506551675385262e-03
3.988074212937745870e+03 1.120668119669233631e+00 2.378889300875713583e-03
3.992062287150684824e+03 1.123055735134975919e+00 3.306609896262759172e-03
3.996054349437837118e+03 1.127208679611956921e+00 3.670402073324527566e-03
4.000050403787276082e+03 1.132243772539213822e+00 3.493799741434599170e-03
4.004050454191064546e+03 1.137305461784117844e+00 2.912769331185983100e-03
4.008054504645257111e+03 1.140509867617953699e+00 2.817096285367523718e-03
4.012062559149903791e+03 1.141893700381220622e+00 2.823510175353252747e-03
4.016074621709055009e+03 1.142461789186639987e+00 2.792236227397883099e-03
4.020090696330765240e+03 1.140879011926353437e+00 2.875103602950823331e-03
4.024110787027097558e+03 1.138164582498046196e+00 2.858698499094380202e-03
4.028134897814125907e+03 1.132244233835291602e+00 2.532284651393032493e-03
4.032163032711941469e+03 1.125082616399687208e+00 2.086926156647305169e-03
4.036195195744654484e+03 1.117969518216002767e+00 1.920585139076596204e-03
4.040231390940400615e+03 1.111903880047143689e+00 1.917287609156978923e-03
4.044271622331342314e+03 1.106307536445256812e+00 1.781647023823492359e-03
4.048315893953675186e+03 1.100985793263893120e+00 1.723489987815194583e-03
4.052364209847629809e+03 1.095646939842244372e+00 1.697847112088966739e-03
4.056416574057479011e+03 1.089383982904679415e+00 1.668783626094640397e-03
4.060472990631537868e+03 1.082088289158498640e+00 1.385796934881614951e-03
4.064533463622170530e+03 1.076200759815695074e+00 1.385788695117874062e-03
4.068597997085794304e+03 1.071416925412863819e+00 1.054680969955552839e-03
4.072666595082881486e+03 1.066225912214851856e+00 1.026854366610199451e-03
4.076739261677965715e+03 1.061403884159108024e+00 1.016848790382816371e-03
4.080816000939644709e+03 1.056217491662808428e+00 1.132549863086330108e-03
4.084896816940585722e+03 1.051442719739966725e+00 1.289410163061988990e-03
4.088981713757527814e+03 1.048195337985459163e+00 1.160166745395226247e-03
4.093070695471286854e+03 1.047027517074087699e+00 1.250776306510902915e-03
4.097163766166759160e+03 1.046267084971207462e+00 1.197601595763873959e-03
4.101260929932927866e+03 1.047549376131657661e+00 1.349585892251663546e-03
4.105362190862862008e+03 1.048954729418949183e+00 1.333262119010265390e-03
4.109467553053726078e+03 1.050132966833598136e+00 1.237735988824124802e-03
4.113577020606780934e+03 1.051228057249499637e+00 1.193701834773724241e-03
4.117690597627389252e+03 1.052142953548499626e+00 1.149539523609357464e-03
4.121808288225018259e+03 1.052358032911972385e+00 1.134410135415617063e-03
4.125930096513244280e+03 1.052551993460249413e+00 1.118932160689884792e-03
4.130056026609759101e+03 1.051964350845638219e+00 1.167385901865273601e-03
4.134186082636369974e+03 1.050901117761857240e+00 1.174756956066463302e-03
4.138320268719007800e+03 1.049178287197603865e+00 1.037114220638926405e-03
4.142458588987728035e+03 1.048192620281851006e+00 9.599806354809769030e-04
4.146601047576717065e+03 1.047939501973941701e+00 9.295231417191960818e-04
4.150747648624294925e+03 1.048607699173016661e+00 1.059874031363302292e-03
4.154898396272920763e+03 1.049924692264759152e+00 9.008953321536243477e-04
4.159053294669195566e+03 1.050172570454988463e+00 1.112311716641599521e-03
4.163212347963865795e+03 1.050822416873842036e+00 1.035021872535680110e-03
4.167375560311830668e+03 1.052042929452174924e+00 1.079758733066039401e-03
4.171542935872143971e+03 1.053610100272026173e+00 1.230376423479673242e-03
4.175714478808017702e+03 1.054404320344938695e+00 1.297774768697191206e-03
4.179890193286827525e+03 1.054791636359264873e+00 1.129063020040517668e-03
4.184070083480115500e+03 1.053613502660084356e+00 1.103252773431628950e-03
4.188254153563597356e+03 1.051082925878622731e+00 1.220367711823485118e-03
4.192442407717161586e+03 1.048057019193107786e+00 1.242714746947331042e-03
4.196634850124880359e+03 1.044155105511591630e+00 1.397000983437164841e-03
4.200831484975006788e+03 1.040895257438668065e+00 1.354102985281876092e-03
4.205032316459983122e+03 1.037988441836291909e+00 1.430087912756102279e-03
4.209237348776444378e+03 1.034905685978986245e+00 1.571541745648603492e-03
4.213446586125221984e+03 1.031398442329268361e+00 1.550960606959046273e-03
4.217660032711349231e+03 1.027425760373925190e+00 1.641247492733334578e-03
4.221877692744061278e+03 1.024286941349870528e+00 1.707718032207406009e-03
4.226099570436806971e+03 1.022457536858512483e+00 1.709263475734903006e-03
4.230325670007245208e+03 1.021978484826337796e+00 1.695016048287684108e-03
4.234555995677254032e+03 1.022469517048440801e+00 1.687431095467139489e-03
4.238790551672932452e+03 1.023186307647036219e+00 1.404557069386154012e-03
4.243029342224606808e+03 1.025742105826470851e+00 1.391989819100655302e-03
4.247272371566832589e+03 1.029488207086534546e+00 1.510079828832901726e-03
4.251519643938400804e+03 1.034664637256232922e+00 1.823809604371438549e-03
4.255771163582340705e+03 1.039829338074870879e+00 1.701740744423067223e-03
4.260026934745924336e+03 1.044917570520699668e+00 1.334023791867460645e-03
4.264286961680671993e+03 1.048713751069693778e+00 1.384413651012688122e-03
4.268551248642354039e+03 1.051838136674062119e+00 1.557454463598933548e-03
4.272819799890998183e+03 1.054625618588851621e+00 1.528612457026546538e-03
4.277092619690890388e+03 1.055731526450103486e+00 1.214865406316865439e-03
4.281369712310583054e+03 1.057802500984320382e+00 1.092398542907197997e-03
4.285651082022895025e+03 1.060219269848158508e+00 1.197893366556786665e-03
4.289936733104918858e+03 1.062882818260255435e+00 1.213526659735305159e-03
4.294226669838025373e+03 1.064703561921177544e+00 1.233783224624290537e-03
4.298520896507864563e+03 1.066552932247208041e+00 1.227671197960029503e-03
4.302819417404373780e+03 1.068898700484588460e+00 1.218955610439385537e-03
4.307122236821779552e+03 1.071065413358389895e+00 1.194445631382568982e-03
4.311429359058603040e+03 1.072995488926971719e+00 1.281421023228250522e-03
4.315740788417662770e+03 1.075261587229943361e+00 1.268350175758322512e-03
4.320056529206081905e+03 1.077384318317964995e+00 1.115711010309020047e-03
4.324376585735290064e+03 1.080044801726772086e+00 1.024876952360374458e-03
4.328700962321026054e+03 1.083338394304298680e+00 1.082267015947760078e-03
4.333029663283348782e+03 1.087515210516055486e+00 1.160428553179427202e-03
4.337362692946633615e+03 1.091336233536896572e+00 1.131108800286893855e-03
4.341700055639581478e+03 1.094901468328416394e+00 9.494255273143320083e-04
4.346041755695222491e+03 1.096997561634067031e+00 1.020017246765592134e-03
4.350387797450919606e+03 1.098726369229980238e+00 1.076669867234712362e-03
4.354738185248371337e+03 1.100242757234535018e+00 1.097483896657007116e-03
4.359092923433621763e+03 1.100350816273954369e+00 1.055624934752725759e-03
4.363452016357056891e+03 1.101416107304219683e+00 1.014590014181755272e-03
4.367815468373414660e+03 1.102811747787566077e+00 9.874640314262239996e-04
4.372183283841789489e+03 1.104521235113443467e+00 1.045633405994376812e-03
4.376555467125633186e+03 1.105947689444523707e+00 1.046940241001123465e-03
4.380932022592760404e+03 1.107872111649162328e+00 1.101037095928977241e-03
4.385312954615354101e+03 1.109696400489774470e+00 9.137634889847961756e-04
4.389698267569970994e+03 1.111031564830825324e+00 9.902582062815484202e-04
4.394087965837542470e+03 1.112532517211676453e+00 9.789496461502880144e-04
4.398482053803381859e+03 1.113952482329434224e+00 9.620306656356204106e-04
4.402880535857186260e+03 1.114631513976872546e+00 9.349748104020212973e-04
