# starting wavelength: 3388.700
# ending wavelength: 7164.280
# wav flux eflux
3.391897186981397681e+03 2.114821130812485794e+00 2.235064256656590573e-02
3.395289084168380214e+03 2.092538746730314703e+00 2.132010978150846239e-02
3.398684373252549449e+03 2.064630026386500727e+00 2.038581571456251143e-02
3.402083057625803121e+03 2.038650929195173767e+00 1.843029657420732978e-02
3.405485140683430018e+03 2.006049014597001356e+00 1.780382642791975348e-02
3.408890625824114522e+03 1.975262002529216465e+00 1.676406766985455085e-02
3.412299516449939802e+03 1.942368160175784064e+00 1.625902319068388627e-02
3.415711815966390986e+03 1.910885711798922859e+00 1.578749787427071241e-02
3.419127527782358356e+03 1.881616110598650859e+00 1.534373296260915613e-02
3.422546655310141887e+03 1.853301225479107472e+00 1.450022251722386107e-02
3.425969201965453522e+03 1.830759350418035503e+00 1.387848482391331080e-02
3.429395171167419903e+03 1.803873954549600311e+00 1.329193684046959568e-02
3.432824566338588284e+03 1.784347500305901724e+00 1.372821154997640181e-02
3.436257390904928343e+03 1.764649235665380234e+00 1.373899136039098516e-02
3.439693648295834464e+03 1.748158226832990048e+00 1.391541610847293539e-02
3.443133341944131189e+03 1.733289759250888240e+00 1.413471072317110631e-02
3.446576475286076402e+03 1.723386128911515991e+00 1.381820531315904738e-02
3.450023051761363604e+03 1.718894533350091125e+00 1.276178333535878291e-02
3.453473074813126004e+03 1.717635253733311718e+00 1.080106789616522116e-02
3.456926547887940615e+03 1.713788269692801736e+00 1.127520059427931758e-02
3.460383474435829612e+03 1.709746226085363530e+00 1.333736653623768253e-02
3.463843857910266706e+03 1.707366514800697122e+00 1.392896947817674584e-02
3.467307701768178049e+03 1.711156624763533030e+00 1.371155066475195257e-02
3.470775009469947236e+03 1.716779846895960304e+00 1.313587422955609339e-02
3.474245784479418489e+03 1.726852407946231960e+00 1.291495467897447146e-02
3.477720030263898934e+03 1.740021074275923674e+00 1.355221102672093253e-02
3.481197750294164052e+03 1.755589009291984137e+00 1.595144843890968639e-02
3.484678948044459503e+03 1.769932801063808903e+00 1.658356899734112280e-02
3.488163626992504760e+03 1.785565126255553636e+00 1.684000396550180620e-02
3.491651790619498570e+03 1.803025718071401107e+00 1.710004981774239027e-02
3.495143442410119405e+03 1.819241583094475034e+00 1.618318775309545918e-02
3.498638585852530468e+03 1.828725663431741699e+00 1.549135430531518344e-02
3.502137224438384237e+03 1.830601892815873155e+00 1.522079787024073309e-02
3.505639361662823831e+03 1.832636641484650442e+00 1.525757326625052160e-02
3.509145001024487556e+03 1.827424375909609600e+00 1.542065845262641059e-02
3.512654146025513455e+03 1.816207551435895962e+00 1.647131519882979664e-02
3.516166800171540217e+03 1.802649466166677872e+00 1.737339761894097709e-02
3.519682966971712631e+03 1.782892257329936614e+00 1.816677733918724974e-02
3.523202649938685681e+03 1.762138916572912217e+00 1.825028903346237463e-02
3.526725852588625457e+03 1.737857078396127575e+00 1.651730912688572153e-02
3.530252578441215064e+03 1.716933370723718877e+00 1.403728794786508055e-02
3.533782831019657806e+03 1.701344658623817674e+00 1.201182950649309390e-02
3.537316613850678550e+03 1.692734716752313462e+00 1.227573859775959661e-02
3.540853930464530094e+03 1.690200766725990178e+00 1.282253566982953161e-02
3.544394784394995895e+03 1.686918389926390649e+00 1.329887926922882803e-02
3.547939179179392340e+03 1.691247632261150269e+00 1.399305072678606876e-02
3.551487118358572843e+03 1.700590020884870546e+00 1.368334239544472669e-02
3.555038605476932389e+03 1.712065821107432662e+00 1.302793305418589904e-02
3.558593644082410719e+03 1.733938400693344706e+00 7.875970073319327538e-03
3.562152237726494150e+03 1.745594049717512419e+00 6.983872746299380277e-03
3.565714389964221937e+03 1.752267681080634798e+00 6.903984916427399407e-03
3.569280104354187188e+03 1.756941219335085291e+00 6.408878234273698328e-03
3.572849384458542772e+03 1.760404176620000927e+00 6.423652376924827469e-03
3.576422233843002232e+03 1.760888173033784199e+00 6.396714069891122796e-03
3.579998656076846601e+03 1.758329902792895583e+00 6.381135550498965442e-03
3.583578654732924406e+03 1.752614956694394932e+00 6.632260684763221885e-03
3.587162233387658489e+03 1.743465910802088237e+00 6.618108837101316366e-03
3.590749395621047370e+03 1.726297100941367013e+00 5.788289515331971821e-03
3.594340145016669794e+03 1.714098255133059689e+00 5.656666902574033172e-03
3.597934485161687462e+03 1.700379236254648596e+00 5.406302324995275466e-03
3.601532419646850485e+03 1.682125268618351654e+00 5.566066086246811498e-03
3.605133952066498296e+03 1.658256165533380289e+00 7.240161898612497079e-03
3.608739086018566013e+03 1.637675381919043271e+00 7.835278543145175745e-03
3.612347825104585809e+03 1.615980920166264267e+00 8.397193643635893559e-03
3.615960172929691907e+03 1.598484510508463297e+00 8.254687120544897116e-03
3.619576133102622407e+03 1.582550154424457123e+00 7.916281749639682633e-03
3.623195709235726554e+03 1.570287376940356694e+00 7.669338904458014930e-03
3.626818904944963379e+03 1.559052461279005541e+00 7.277518232473994229e-03
3.630445723849909427e+03 1.556463119985645349e+00 9.122744973505958477e-03
3.634076169573760581e+03 1.556584448621733507e+00 9.610409941022815539e-03
3.637710245743335690e+03 1.553289977481441264e+00 9.213848476686818667e-03
3.641347955989080219e+03 1.549345023732112248e+00 8.080337535194079962e-03
3.644989303945070333e+03 1.542977962480577281e+00 7.568594188928723897e-03
3.648634293249016537e+03 1.534740382493996025e+00 7.228449726773232380e-03
3.652282927542266862e+03 1.522537397661575920e+00 7.179144320842261763e-03
3.655935210469810499e+03 1.505298503709301627e+00 7.450227905615613121e-03
3.659591145680281443e+03 1.488332900069000209e+00 7.812548933623720757e-03
3.663250736825963031e+03 1.466916444067134728e+00 9.056743840692672506e-03
3.666913987562790226e+03 1.445674787793761906e+00 9.880036362667876659e-03
3.670580901550354156e+03 1.423364813739125934e+00 8.466922106375125712e-03
3.674251482451905758e+03 1.409944759003809001e+00 7.112923852962724919e-03
3.677925733934358959e+03 1.403816223687364806e+00 6.203023797365442120e-03
3.681603659668294313e+03 1.408495002274462449e+00 5.834880638956315563e-03
3.685285263327964003e+03 1.419855752605087895e+00 5.473556631847784244e-03
3.688970548591293209e+03 1.438220527889131350e+00 5.436129090643525286e-03
3.692659519139885560e+03 1.464219808510534682e+00 6.026454215357015740e-03
3.696352178659026777e+03 1.496344969043157835e+00 6.489686659396151983e-03
3.700048530837686940e+03 1.527023313740822230e+00 6.826149041215222313e-03
3.703748579368525952e+03 1.563685951851980338e+00 7.788695240969671293e-03
3.707452327947895355e+03 1.600860245532955251e+00 7.660914188492827688e-03
3.711159780275844696e+03 1.633229620684285344e+00 6.028811060005052382e-03
3.714870940056121526e+03 1.658448248171198403e+00 5.061830660232002552e-03
3.718585810996179134e+03 1.672077245953704105e+00 5.106382158659224235e-03
3.722304396807176545e+03 1.675836797721444560e+00 5.116924406003038606e-03
3.726026701203984885e+03 1.670991195045864908e+00 5.297047918903305050e-03
3.729752727905190113e+03 1.659879278335602004e+00 5.384891842107887919e-03
3.733482480633096657e+03 1.639715359576818354e+00 6.695911296805349099e-03
3.737215963113731050e+03 1.616957966823608039e+00 6.758593539703057658e-03
3.740953179076846027e+03 1.585690708836557716e+00 6.110499610915354034e-03
3.744694132255923705e+03 1.557751185401830885e+00 4.309704617240780328e-03
3.748438826388181042e+03 1.535092207125638541e+00 4.232018327707069531e-03
3.752187265214570289e+03 1.517078886660960579e+00 4.448696552229388333e-03
3.755939452479786269e+03 1.504145641458376259e+00 4.001941344660600586e-03
3.759695391932267285e+03 1.493834987104905920e+00 4.012623184496167360e-03
3.763455087324201031e+03 1.484873989533355365e+00 3.988287702707071433e-03
3.767218542411526414e+03 1.480014435708277176e+00 4.154303550869540770e-03
3.770985760953939007e+03 1.479124027224300697e+00 3.418636564923056322e-03
3.774756746714894234e+03 1.478488570843984995e+00 3.262947653818396108e-03
3.778531503461610555e+03 1.478310730159339892e+00 3.295359369182365543e-03
3.782310034965073100e+03 1.477268204641685179e+00 4.047780889001873807e-03
3.786092345000039586e+03 1.478506781902874989e+00 3.910342584028136427e-03
3.789878437345040766e+03 1.483782311709234580e+00 3.736875498187913845e-03
3.793668315782387253e+03 1.490333970890515447e+00 3.513591016344959610e-03
3.797461984098170888e+03 1.499486924114819653e+00 3.639161073333696452e-03
3.801259446082270188e+03 1.510012636643581985e+00 3.527168531124618908e-03
3.805060705528353537e+03 1.522702524415787462e+00 3.139584221002427681e-03
3.808865766233883278e+03 1.531404960664734194e+00 3.153178044785970042e-03
3.812674632000118436e+03 1.538970122389184514e+00 4.049614030780267215e-03
3.816487306632119726e+03 1.543240157651654787e+00 3.513923722123753982e-03
3.820303793938753188e+03 1.542456519655539093e+00 2.924108264786729784e-03
3.824124097732693372e+03 1.534717894311375286e+00 3.439733022349326323e-03
3.827948221830427428e+03 1.523105403260596180e+00 3.421289671943644924e-03
3.831776170052258749e+03 1.506520526048274133e+00 3.546605411527022078e-03
3.835607946222312421e+03 1.486082862964588136e+00 3.329443865977513729e-03
3.839443554168536139e+03 1.465304948337839974e+00 3.460358352553294901e-03
3.843282997722705659e+03 1.445591826158157955e+00 3.528044642363861467e-03
3.847126280720429804e+03 1.429226782508494775e+00 3.468322743611001579e-03
3.850973407001151372e+03 1.414821643508953786e+00 3.100219331614291560e-03
3.854824380408153957e+03 1.405261933921641671e+00 3.715114213225467060e-03
3.858679204788563311e+03 1.398396011830623342e+00 3.705888989704567496e-03
3.862537883993353262e+03 1.396738268384620563e+00 3.241754673399719570e-03
3.866400421877347981e+03 1.396934800775697205e+00 3.236474312858627495e-03
3.870266822299226533e+03 1.401057488146405072e+00 3.133340527605894387e-03
3.874137089121526969e+03 1.405982597340621254e+00 3.126307072034712874e-03
3.878011226210649966e+03 1.415541688314226443e+00 4.114304331721529637e-03
3.881889237436861549e+03 1.423714992528274159e+00 4.345076105953402969e-03
3.885771126674299921e+03 1.432691064328293074e+00 4.009271918217245309e-03
3.889656897800975457e+03 1.438330069424965441e+00 4.094041243404871432e-03
3.893546554698777527e+03 1.443076392502463445e+00 4.212735639272498223e-03
3.897440101253477678e+03 1.446455914598216097e+00 4.106548124332407013e-03
3.901337541354732366e+03 1.451055865412735457e+00 3.970860491073239899e-03
3.905238878896088409e+03 1.453044419053127312e+00 4.008341268206845956e-03
3.909144117774985716e+03 1.454096438264719682e+00 3.959856023507108899e-03
3.913053261892762293e+03 1.454029283098422054e+00 3.790864641103701502e-03
3.916966315154656058e+03 1.452635778018391388e+00 3.569253206172132847e-03
3.920883281469812118e+03 1.452236873404958439e+00 3.467755831388609749e-03
3.924804164751283224e+03 1.453606274197858372e+00 3.985591943838242071e-03
3.928728968916035683e+03 1.456054199074291455e+00 3.236020587792506550e-03
3.932657697884953450e+03 1.454119942195762238e+00 3.901018147251737300e-03
3.936590355582839493e+03 1.451979899769370919e+00 4.973135628530320727e-03
3.940526945938423523e+03 1.450147924152122902e+00 4.802603002771433163e-03
3.944467472884363360e+03 1.451726671871353291e+00 4.850075169237394630e-03
3.948411940357249023e+03 1.453194678438619381e+00 5.402412427223223478e-03
3.952360352297607733e+03 1.457082361475754873e+00 6.155594567863316609e-03
3.956312712649906643e+03 1.456059702253900578e+00 5.853109267516806886e-03
3.960269025362557841e+03 1.453235549880512290e+00 5.435655634557193423e-03
3.964229294387921527e+03 1.445770675517063397e+00 5.338068934370721920e-03
3.968193523682310570e+03 1.434543297905034986e+00 5.658117422999430456e-03
3.972161717205994591e+03 1.421308119796534930e+00 6.152195637576730186e-03
3.976133878923201792e+03 1.407602943988670141e+00 6.376036069665435603e-03
3.980110012802126221e+03 1.393449828227965703e+00 6.054221174045300129e-03
3.984090122814929600e+03 1.381438364927035645e+00 5.595106739679875374e-03
3.988074212937745870e+03 1.371376434528420729e+00 5.118582334720101455e-03
3.992062287150684824e+03 1.364442920294004935e+00 4.801624278133025288e-03
3.996054349437837118e+03 1.362146121735898996e+00 4.878930502452295120e-03
4.000050403787276082e+03 1.365469223069034399e+00 3.821681183202093202e-03
4.004050454191064546e+03 1.370741700310444067e+00 2.575695414252697490e-03
4.008054504645257111e+03 1.375573718550572089e+00 2.725269272348718880e-03
4.012062559149903791e+03 1.380446957528382868e+00 2.409506187144690864e-03
4.016074621709055009e+03 1.386409910638203069e+00 2.618130368144167691e-03
4.020090696330765240e+03 1.392778725102889803e+00 3.476354026788176788e-03
4.024110787027097558e+03 1.397425241827235709e+00 4.511569886332687795e-03
4.028134897814125907e+03 1.397250394906873083e+00 3.953545611997576897e-03
4.032163032711941469e+03 1.390204383798267607e+00 3.860571813750352833e-03
4.036195195744654484e+03 1.379713945996379421e+00 3.291679082455546777e-03
4.040231390940400615e+03 1.362895791710246884e+00 3.786552792939381143e-03
4.044271622331342314e+03 1.340895065183634438e+00 4.423651427602487071e-03
4.048315893953675186e+03 1.314982779357743325e+00 5.088013735331558401e-03
4.052364209847629809e+03 1.290099050072778253e+00 4.336791349181075110e-03
4.056416574057479011e+03 1.266430841194077228e+00 3.531823113430753412e-03
4.060472990631537868e+03 1.245632256176063102e+00 3.524657816894715551e-03
4.064533463622170530e+03 1.226987974790164415e+00 3.479457595627954980e-03
4.068597997085794304e+03 1.213076668752152809e+00 3.398193382861041788e-03
4.072666595082881486e+03 1.202268010163621836e+00 3.139953133097590689e-03
4.076739261677965715e+03 1.195293551661144038e+00 2.954585819378084937e-03
4.080816000939644709e+03 1.191711339736259756e+00 2.915669971468495564e-03
4.084896816940585722e+03 1.191413150854163439e+00 3.051951010390151642e-03
4.088981713757527814e+03 1.192023225146424892e+00 2.902731667397026507e-03
4.093070695471286854e+03 1.195613025486930603e+00 2.928387597946406108e-03
4.097163766166759160e+03 1.201651469475337075e+00 3.270264405134251824e-03
4.101260929932927866e+03 1.209267984584219580e+00 3.162890936116745117e-03
4.105362190862862008e+03 1.214620997872121855e+00 3.307732545699039635e-03
4.109467553053726078e+03 1.221163179831002310e+00 3.227446966016158259e-03
4.113577020606780934e+03 1.227506182260185152e+00 3.163490593307352172e-03
4.117690597627389252e+03 1.233074081685372914e+00 3.130379934143122204e-03
4.121808288225018259e+03 1.237268575148961380e+00 3.065281839498577854e-03
4.125930096513244280e+03 1.238621033149721384e+00 2.485437109328207574e-03
4.130056026609759101e+03 1.241221398666478182e+00 2.990690593328400575e-03
4.134186082636369974e+03 1.241586519759668716e+00 2.916838135988867459e-03
4.138320268719007800e+03 1.240447109829471151e+00 2.908128034044308446e-03
4.142458588987728035e+03 1.238302844431444782e+00 3.049659961383511565e-03
4.146601047576717065e+03 1.235460837751750640e+00 3.649010323676083172e-03
4.150747648624294925e+03 1.232793832300900450e+00 3.532030171172114048e-03
4.154898396272920763e+03 1.231233095240336084e+00 3.105033397810630889e-03
4.159053294669195566e+03 1.232250501618064931e+00 3.353568732832826020e-03
4.163212347963865795e+03 1.234545441708131630e+00 3.717109909940681956e-03
4.167375560311830668e+03 1.235014218582866086e+00 3.650951124702195554e-03
4.171542935872143971e+03 1.238192998087510155e+00 3.711224921643439464e-03
4.175714478808017702e+03 1.242259994497306952e+00 3.212797989348007473e-03
4.179890193286827525e+03 1.245476648987716706e+00 2.703288665774301446e-03
4.184070083480115500e+03 1.245431638884092251e+00 3.321879676758534433e-03
4.188254153563597356e+03 1.246623763243433158e+00 3.318937125691410941e-03
4.192442407717161586e+03 1.246445785979168441e+00 3.015855095329714186e-03
4.196634850124880359e+03 1.247524009085752894e+00 3.556148613556247770e-03
4.200831484975006788e+03 1.246538381855016642e+00 3.597506726123550491e-03
4.205032316459983122e+03 1.244306713118396690e+00 3.560170579778294039e-03
4.209237348776444378e+03 1.243245250091289167e+00 3.151423712709237965e-03
4.213446586125221984e+03 1.240022824658285616e+00 3.449350310282081177e-03
4.217660032711349231e+03 1.237775112440592906e+00 3.413344634974459745e-03
4.221877692744061278e+03 1.234668941111420670e+00 3.772817221943366821e-03
4.226099570436806971e+03 1.231819801067214559e+00 3.498570287279934975e-03
4.230325670007245208e+03 1.231518393380439891e+00 3.157500843820887446e-03
4.234555995677254032e+03 1.234118690716573985e+00 3.433152050890370555e-03
4.238790551672932452e+03 1.238235414400554291e+00 3.375780247317330344e-03
4.243029342224606808e+03 1.243629847900635355e+00 3.356232213850051608e-03
4.247272371566832589e+03 1.250377412994618798e+00 3.263055044920258000e-03
4.251519643938400804e+03 1.260898968202938120e+00 3.020550897825317882e-03
4.255771163582340705e+03 1.271991542462778790e+00 2.786161754788005641e-03
4.260026934745924336e+03 1.282852964761154846e+00 2.716048033952000052e-03
4.264286961680671993e+03 1.291494502287650947e+00 2.462169215814178323e-03
4.268551248642354039e+03 1.300861096993618959e+00 2.863936444705079271e-03
4.272819799890998183e+03 1.308999401940977414e+00 4.002889702806056334e-03
4.277092619690890388e+03 1.314722853956964199e+00 3.899670597801601236e-03
4.281369712310583054e+03 1.313572922228219531e+00 3.655668360241198355e-03
4.285651082022895025e+03 1.307897471458584704e+00 3.907275426380597480e-03
4.289936733104918858e+03 1.299114195147788031e+00 4.298845275889804848e-03
4.294226669838025373e+03 1.286925452415795812e+00 4.546716184081456801e-03
4.298520896507864563e+03 1.273918316199352807e+00 5.025728008958963919e-03
4.302819417404373780e+03 1.260176570767281623e+00 4.316103275915947161e-03
4.307122236821779552e+03 1.251217366266830222e+00 3.660589548471736895e-03
4.311429359058603040e+03 1.245291372186160483e+00 3.561070273415674597e-03
4.315740788417662770e+03 1.244048219835814040e+00 3.647511434053533549e-03
4.320056529206081905e+03 1.244988807503821793e+00 3.592446722586351872e-03
4.324376585735290064e+03 1.249093672911639086e+00 3.514859220421228964e-03
4.328700962321026054e+03 1.257573779886761001e+00 3.369620867689105282e-03
4.333029663283348782e+03 1.268105984088866212e+00 2.990540312793628103e-03
4.337362692946633615e+03 1.278090261531356964e+00 2.831707682304931018e-03
4.341700055639581478e+03 1.287251097126893340e+00 2.881026984678002403e-03
4.346041755695222491e+03 1.294372594515355246e+00 3.153608516237214020e-03
4.350387797450919606e+03 1.300605661196543084e+00 4.167655684197775837e-03
4.354738185248371337e+03 1.302768201433041284e+00 3.690850078693343802e-03
4.359092923433621763e+03 1.299029019232458726e+00 3.650006625227440044e-03
4.363452016357056891e+03 1.289743881792321023e+00 5.071103193619548762e-03
4.367815468373414660e+03 1.279324659494196714e+00 5.438941179983756286e-03
4.372183283841789489e+03 1.267972593274611093e+00 5.561063384040874392e-03
4.376555467125633186e+03 1.256320693092720431e+00 5.361087367215386194e-03
4.380932022592760404e+03 1.247090246023978999e+00 4.331026852665354095e-03
4.385312954615354101e+03 1.241261229432387259e+00 4.592471402882313328e-03
4.389698267569970994e+03 1.239404173540142873e+00 5.414161739133310780e-03
4.394087965837542470e+03 1.236418955736562353e+00 5.176913158167457431e-03
4.398482053803381859e+03 1.235455273713705227e+00 4.612336642244787600e-03
4.402880535857186260e+03 1.234123977378229764e+00 4.205419585539775691e-03
4.407283416393044718e+03 1.231577047291641192e+00 3.981938237011167607e-03
4.411690699809440048e+03 1.228504649304305030e+00 3.742403458131137242e-03
4.416102390509250654e+03 1.222456698727031776e+00 3.849059422521664952e-03
