# starting wavelength: 3381.940
# ending wavelength: 7164.280
# wav flux eflux
3.385123554748343849e+03 1.818805657846005230e+00 8.125654365130638782e-03
3.388508678303093347e+03 1.810877416687979524e+00 6.639399163366237894e-03
3.391897186981397681e+03 1.804300629001672096e+00 6.584961699511495889e-03
3.395289084168380214e+03 1.799154248008919987e+00 5.922002041779871225e-03
3.398684373252549449e+03 1.793617898660946786e+00 5.245412832771434788e-03
3.402083057625803121e+03 1.788982784392940451e+00 4.838067355751709923e-03
3.405485140683430018e+03 1.783051310530578526e+00 4.453282282356457039e-03
3.408890625824114522e+03 1.776203316786553854e+00 4.200711691558592711e-03
3.412299516449939802e+03 1.769026621181059689e+00 3.996212555656811216e-03
3.415711815966390986e+03 1.761844110221979287e+00 3.815667421965780043e-03
3.419127527782358356e+03 1.753988534391586640e+00 3.695104108939800593e-03
3.422546655310141887e+03 1.744771858833464639e+00 3.974351740190586006e-03
3.425969201965453522e+03 1.736612762122969444e+00 3.977182531158218216e-03
3.429395171167419903e+03 1.728471823984065736e+00 3.987622288260441253e-03
3.432824566338588284e+03 1.718539140887470174e+00 4.129134438975905555e-03
3.436257390904928343e+03 1.709923396947718555e+00 4.074785629196000895e-03
3.439693648295834464e+03 1.703140321558781478e+00 4.086934350476912649e-03
3.443133341944131189e+03 1.696870121687459765e+00 4.192533151487251586e-03
3.446576475286076402e+03 1.690076425969445184e+00 4.149859849029985739e-03
3.450023051761363604e+03 1.682436964951779634e+00 4.038042765317041011e-03
3.453473074813126004e+03 1.675937110986230438e+00 4.033503655909755244e-03
3.456926547887940615e+03 1.670008675288312983e+00 4.105539285988026726e-03
3.460383474435829612e+03 1.663845773454248889e+00 4.106652685936878176e-03
3.463843857910266706e+03 1.658500338693941867e+00 4.289665388148040416e-03
3.467307701768178049e+03 1.652283582543571994e+00 4.414889575694256121e-03
3.470775009469947236e+03 1.648392653986499257e+00 4.380862321302512498e-03
3.474245784479418489e+03 1.642835418421715321e+00 4.257128171258534911e-03
3.477720030263898934e+03 1.636546027977790585e+00 4.225417679954157624e-03
3.481197750294164052e+03 1.632042622964931633e+00 3.939234412923090477e-03
3.484678948044459503e+03 1.625162512503521395e+00 4.186667155258252254e-03
3.488163626992504760e+03 1.617811872293056563e+00 3.943264333115950766e-03
3.491651790619498570e+03 1.610812568731518457e+00 3.863120995006231757e-03
3.495143442410119405e+03 1.603937564145211381e+00 3.844013726650148330e-03
3.498638585852530468e+03 1.594902304120339398e+00 3.409080893527023735e-03
3.502137224438384237e+03 1.587753577605809596e+00 3.144217800883548648e-03
3.505639361662823831e+03 1.581429364741876453e+00 3.252647443060219159e-03
3.509145001024487556e+03 1.577097487972926704e+00 3.490000407088249008e-03
3.512654146025513455e+03 1.571526533016599947e+00 3.486346837437935380e-03
3.516166800171540217e+03 1.566213673371365633e+00 3.469256392131969246e-03
3.519682966971712631e+03 1.563254577904310549e+00 3.478840071167465554e-03
3.523202649938685681e+03 1.559450859844833781e+00 3.433989766564788347e-03
3.526725852588625457e+03 1.556314855223650317e+00 3.386303196999371906e-03
3.530252578441215064e+03 1.553203941843685598e+00 3.724687575850988384e-03
3.533782831019657806e+03 1.549623363553806143e+00 4.495412947391244293e-03
3.537316613850678550e+03 1.546580277153858596e+00 4.740748938094388118e-03
3.540853930464530094e+03 1.546545597273078831e+00 4.823514991634018055e-03
3.544394784394995895e+03 1.547608130515650160e+00 4.365503966977143935e-03
3.547939179179392340e+03 1.551939279749676270e+00 4.387234521738057544e-03
3.551487118358572843e+03 1.558436692348214025e+00 4.768954157536253735e-03
3.555038605476932389e+03 1.565849149356823178e+00 5.544284172292904787e-03
3.558593644082410719e+03 1.573069187089885634e+00 6.378080429711047508e-03
3.562152237726494150e+03 1.580952598755039018e+00 6.655378154752144247e-03
3.565714389964221937e+03 1.587358324875816296e+00 6.630402219068701197e-03
3.569280104354187188e+03 1.592319134153524551e+00 6.374960163342718519e-03
3.572849384458542772e+03 1.596851492186692534e+00 5.392219040449746162e-03
3.576422233843002232e+03 1.596763175104763510e+00 4.789662172405036514e-03
3.579998656076846601e+03 1.592260074711481455e+00 5.104799869542414777e-03
3.583578654732924406e+03 1.586333172992686391e+00 5.310156205356545908e-03
3.587162233387658489e+03 1.576949702021809063e+00 5.325426054536820664e-03
3.590749395621047370e+03 1.564291599037261893e+00 5.335190218212348436e-03
3.594340145016669794e+03 1.547355451079196031e+00 5.558284263279677714e-03
3.597934485161687462e+03 1.527856004759167607e+00 5.130816244578026951e-03
3.601532419646850485e+03 1.507449271898482879e+00 4.115389727679727785e-03
3.605133952066498296e+03 1.487984946757527904e+00 3.931293676322300014e-03
3.608739086018566013e+03 1.468798662427766466e+00 3.853398372190248306e-03
3.612347825104585809e+03 1.449936936248151564e+00 3.831415826620581788e-03
3.615960172929691907e+03 1.436374566314604362e+00 3.889031630862652741e-03
3.619576133102622407e+03 1.426094377471603725e+00 3.848110303811892816e-03
3.623195709235726554e+03 1.418522346848297477e+00 3.731294289846321874e-03
3.626818904944963379e+03 1.413661654344042784e+00 3.617789605509114364e-03
3.630445723849909427e+03 1.408698191721315496e+00 3.650063117049833199e-03
3.634076169573760581e+03 1.407505059028440808e+00 3.264036473761531849e-03
3.637710245743335690e+03 1.409998484392272600e+00 3.181473310754840030e-03
3.641347955989080219e+03 1.416503830070289238e+00 3.380073817767548922e-03
3.644989303945070333e+03 1.426357120331517958e+00 3.940248353960729144e-03
3.648634293249016537e+03 1.438461140185959497e+00 4.075391175057330867e-03
3.652282927542266862e+03 1.450077988744113755e+00 3.852295940215913744e-03
3.655935210469810499e+03 1.461555964246519901e+00 3.575401314342749066e-03
3.659591145680281443e+03 1.471814186769014432e+00 3.487572158085072791e-03
3.663250736825963031e+03 1.481199660740038171e+00 3.174318756408457329e-03
3.666913987562790226e+03 1.488036249456185400e+00 2.928666326778138311e-03
3.670580901550354156e+03 1.490071677476173306e+00 2.839416829355251564e-03
3.674251482451905758e+03 1.491297873742520430e+00 2.879664857241579900e-03
3.677925733934358959e+03 1.488840621115694152e+00 3.703644034572649724e-03
3.681603659668294313e+03 1.484697534097964011e+00 3.767030509039983113e-03
3.685285263327964003e+03 1.481764954398888445e+00 3.519604369431719119e-03
3.688970548591293209e+03 1.479795182719780167e+00 3.456368606142584936e-03
3.692659519139885560e+03 1.478120863103015381e+00 3.308473821638448827e-03
3.696352178659026777e+03 1.476958281469927581e+00 3.177079374325790604e-03
3.700048530837686940e+03 1.475575159201010012e+00 3.174192028530043504e-03
3.703748579368525952e+03 1.479568397174495731e+00 3.314701596858741009e-03
3.707452327947895355e+03 1.483227757957393589e+00 2.824017673439890505e-03
3.711159780275844696e+03 1.483831083030098252e+00 2.914021337640695930e-03
3.714870940056121526e+03 1.483229964653427935e+00 3.841169778440770358e-03
3.718585810996179134e+03 1.484330148099767266e+00 3.833519226872975343e-03
3.722304396807176545e+03 1.485721558663717579e+00 3.805071923508271305e-03
3.726026701203984885e+03 1.488540724308266894e+00 4.306795337857848016e-03
3.729752727905190113e+03 1.488576543709872801e+00 4.329649841793284902e-03
3.733482480633096657e+03 1.486304518830109167e+00 4.248029080004793977e-03
3.737215963113731050e+03 1.483339281976650881e+00 4.510492677254845581e-03
3.740953179076846027e+03 1.479341730143756584e+00 4.749289990836305653e-03
3.744694132255923705e+03 1.476532658771011919e+00 4.698881386990658507e-03
3.748438826388181042e+03 1.474190613988555665e+00 4.528526705238479326e-03
3.752187265214570289e+03 1.470990549479631815e+00 4.495242827078345035e-03
3.755939452479786269e+03 1.465832955133809401e+00 4.335579423842030912e-03
3.759695391932267285e+03 1.460215565790421444e+00 4.219232855748223862e-03
3.763455087324201031e+03 1.454334795397443036e+00 4.193837066003613771e-03
3.767218542411526414e+03 1.449105575594292317e+00 4.219590507805105750e-03
3.770985760953939007e+03 1.443768547905764477e+00 4.204652568567865227e-03
3.774756746714894234e+03 1.439859601304812831e+00 4.195912022668695472e-03
3.778531503461610555e+03 1.437209327726991948e+00 3.345809531883652509e-03
3.782310034965073100e+03 1.431459283086722767e+00 3.756206054357655744e-03
3.786092345000039586e+03 1.424598409063717153e+00 4.355468479002673823e-03
3.789878437345040766e+03 1.417120139731990358e+00 3.376511470876651481e-03
3.793668315782387253e+03 1.415162651233108582e+00 3.547526576345551210e-03
3.797461984098170888e+03 1.415025621224999863e+00 3.991101634990308969e-03
3.801259446082270188e+03 1.417072823911043056e+00 3.750405284849050221e-03
3.805060705528353537e+03 1.417532615419857311e+00 4.117166417236441806e-03
3.808865766233883278e+03 1.420458208872987127e+00 4.073741288154561491e-03
3.812674632000118436e+03 1.423222791779067631e+00 4.019697032458066643e-03
3.816487306632119726e+03 1.428074709738188730e+00 4.604866467543528193e-03
3.820303793938753188e+03 1.430231526784172758e+00 4.620838865989170506e-03
3.824124097732693372e+03 1.430581323720203191e+00 4.373378201569489213e-03
3.827948221830427428e+03 1.427568454626679140e+00 4.340186050960115685e-03
3.831776170052258749e+03 1.421946858214883092e+00 4.391207979828570980e-03
3.835607946222312421e+03 1.414274375872036416e+00 4.266794617046151990e-03
3.839443554168536139e+03 1.405738911393250135e+00 4.245020384073479140e-03
3.843282997722705659e+03 1.395016127359287150e+00 4.266373732723309498e-03
3.847126280720429804e+03 1.385627303659568987e+00 4.292311749530445565e-03
3.850973407001151372e+03 1.375552557590256519e+00 5.765180987128207257e-03
3.854824380408153957e+03 1.367623101453009360e+00 5.815175031509350369e-03
3.858679204788563311e+03 1.365410024440613768e+00 4.789281648297813269e-03
3.862537883993353262e+03 1.368855472004098184e+00 3.975676461456847596e-03
3.866400421877347981e+03 1.381724011937054408e+00 4.496013059004687513e-03
3.870266822299226533e+03 1.399115136269081017e+00 4.704486365179791699e-03
3.874137089121526969e+03 1.419407709132495921e+00 5.226961559951204782e-03
3.878011226210649966e+03 1.438222100621719735e+00 5.870131616549690429e-03
3.881889237436861549e+03 1.457216358629255248e+00 6.254938648526091154e-03
3.885771126674299921e+03 1.470758118813051851e+00 5.409194437173616733e-03
3.889656897800975457e+03 1.478948617423684997e+00 4.744654685914743465e-03
3.893546554698777527e+03 1.479859704050727309e+00 6.121232707843242242e-03
3.897440101253477678e+03 1.476633439130691672e+00 6.428085616916249904e-03
3.901337541354732366e+03 1.469061530846710761e+00 5.582786146898115372e-03
3.905238878896088409e+03 1.460423496706129809e+00 4.683660882714828395e-03
3.909144117774985716e+03 1.451493322495037042e+00 4.881906331774287823e-03
3.913053261892762293e+03 1.441199924857990755e+00 4.845228676877546235e-03
3.916966315154656058e+03 1.430717729169586505e+00 5.114154598112968970e-03
3.920883281469812118e+03 1.423427262329704401e+00 5.059243632022073292e-03
3.924804164751283224e+03 1.415320027009988602e+00 5.685778028734514607e-03
3.928728968916035683e+03 1.413034899857990245e+00 5.609665386996118969e-03
3.932657697884953450e+03 1.414042228640050913e+00 5.565974120748900036e-03
3.936590355582839493e+03 1.417052674741159146e+00 5.579655845185160778e-03
3.940526945938423523e+03 1.422621706291796739e+00 6.173525011145221050e-03
3.944467472884363360e+03 1.428541479982512241e+00 7.289813051050310702e-03
3.948411940357249023e+03 1.433073898383064426e+00 7.428262811617992144e-03
3.952360352297607733e+03 1.435099710983438692e+00 6.747104897124703814e-03
3.956312712649906643e+03 1.434327505705045525e+00 5.263433270145171511e-03
3.960269025362557841e+03 1.427828969444300489e+00 5.609819929590842066e-03
3.964229294387921527e+03 1.416536301353641392e+00 6.044236489439283946e-03
3.968193523682310570e+03 1.400643831092871050e+00 5.679033650601053931e-03
3.972161717205994591e+03 1.384591460627836446e+00 4.455364688944534086e-03
3.976133878923201792e+03 1.369590531063421546e+00 2.771943003952474435e-03
3.980110012802126221e+03 1.359381077779340918e+00 2.971658690059708879e-03
3.984090122814929600e+03 1.352832009816749448e+00 3.150588995815293246e-03
3.988074212937745870e+03 1.347517970502209339e+00 3.038370385447202674e-03
3.992062287150684824e+03 1.344965321942795278e+00 2.952068458609655860e-03
3.996054349437837118e+03 1.346211263368670918e+00 2.490062082658393936e-03
4.000050403787276082e+03 1.347232876809159929e+00 2.439697956677938043e-03
4.004050454191064546e+03 1.351121761032175295e+00 2.417058837900521243e-03
4.008054504645257111e+03 1.353557362015741283e+00 2.397437243578014188e-03
4.012062559149903791e+03 1.355862650247609213e+00 2.625745761818516766e-03
4.016074621709055009e+03 1.357181072231332220e+00 2.651020246886643100e-03
4.020090696330765240e+03 1.358186158453327685e+00 2.268529593028472281e-03
4.024110787027097558e+03 1.355719443498909049e+00 2.093139771678174856e-03
4.028134897814125907e+03 1.350898764146167830e+00 1.993747107642027377e-03
4.032163032711941469e+03 1.342691831802357738e+00 2.085908551023257004e-03
4.036195195744654484e+03 1.332292772168356842e+00 2.046047695122593223e-03
4.040231390940400615e+03 1.319277895864427119e+00 2.102870168459179939e-03
4.044271622331342314e+03 1.303449787528775605e+00 1.963493773739651092e-03
4.048315893953675186e+03 1.288238547910943277e+00 1.696527982141732933e-03
4.052364209847629809e+03 1.273099955923967297e+00 1.540204252688457493e-03
4.056416574057479011e+03 1.259192587085206316e+00 1.548391586296685770e-03
4.060472990631537868e+03 1.247156571129739433e+00 1.514870607509100509e-03
4.064533463622170530e+03 1.234562746083043505e+00 1.461006028874145633e-03
4.068597997085794304e+03 1.224562672178884482e+00 1.762829571523880133e-03
4.072666595082881486e+03 1.215358713133084079e+00 1.723723030988435698e-03
4.076739261677965715e+03 1.207241963254494621e+00 1.738329484352546398e-03
4.080816000939644709e+03 1.200462411643612226e+00 1.708087371331896498e-03
4.084896816940585722e+03 1.194784554519834341e+00 1.802001304449652027e-03
4.088981713757527814e+03 1.190815123990605517e+00 1.973987194556876650e-03
4.093070695471286854e+03 1.188593299869965314e+00 1.899507983807195580e-03
4.097163766166759160e+03 1.189182402216078627e+00 2.282934790739132077e-03
4.101260929932927866e+03 1.190141258810886171e+00 2.815060574964127829e-03
4.105362190862862008e+03 1.190924636312836071e+00 2.778911226339543256e-03
4.109467553053726078e+03 1.191239136327592929e+00 2.807033282738660186e-03
4.113577020606780934e+03 1.192805894978042680e+00 2.650162767556316860e-03
4.117690597627389252e+03 1.193865583120088836e+00 2.664858891149572088e-03
4.121808288225018259e+03 1.194582023596146625e+00 2.639559518482827941e-03
4.125930096513244280e+03 1.196224748678419658e+00 2.609410567367599892e-03
4.130056026609759101e+03 1.196894554890185702e+00 2.564838761361055205e-03
4.134186082636369974e+03 1.196625700015432336e+00 2.412032535301014170e-03
4.138320268719007800e+03 1.197717270368028109e+00 2.428962467024926332e-03
4.142458588987728035e+03 1.198077777912174513e+00 2.303791609535981496e-03
4.146601047576717065e+03 1.200305809786507805e+00 2.192679094877770032e-03
4.150747648624294925e+03 1.201545931416991175e+00 2.206544629112194584e-03
4.154898396272920763e+03 1.203569140403757620e+00 2.110122901003316526e-03
4.159053294669195566e+03 1.205231398084982253e+00 2.116590356605112851e-03
4.163212347963865795e+03 1.206796484381864820e+00 2.062394761073494970e-03
4.167375560311830668e+03 1.207007902152857692e+00 1.722014781078255253e-03
4.171542935872143971e+03 1.208076308552183731e+00 1.804395576207520587e-03
4.175714478808017702e+03 1.210256561417108800e+00 2.058480104301267394e-03
4.179890193286827525e+03 1.211856738725048732e+00 1.697796341737800932e-03
4.184070083480115500e+03 1.210161363981473670e+00 1.780949562661212748e-03
4.188254153563597356e+03 1.207282850065444224e+00 1.828596853678930538e-03
4.192442407717161586e+03 1.203502952286957584e+00 2.029868513876638501e-03
4.196634850124880359e+03 1.198889156984228155e+00 2.212959822523723630e-03
4.200831484975006788e+03 1.194354115088742896e+00 2.313216412382812243e-03
4.205032316459983122e+03 1.191752504417592062e+00 2.207811238462156333e-03
4.209237348776444378e+03 1.189818500039416582e+00 2.027249590451809472e-03
4.213446586125221984e+03 1.189126286569956559e+00 1.951227140576279823e-03
4.217660032711349231e+03 1.190577780332052082e+00 2.034715538136039076e-03
4.221877692744061278e+03 1.192802174026800666e+00 1.973144530274331416e-03
4.226099570436806971e+03 1.196970329047680970e+00 1.707259635553406811e-03
4.230325670007245208e+03 1.200538047227228677e+00 1.670333255077695919e-03
4.234555995677254032e+03 1.204136273932409074e+00 1.931061711683641898e-03
4.238790551672932452e+03 1.208760721476528133e+00 1.913764365734736206e-03
4.243029342224606808e+03 1.213360765412873965e+00 1.884716223764905515e-03
4.247272371566832589e+03 1.217043656764743353e+00 1.581406147451907716e-03
4.251519643938400804e+03 1.221547294275788786e+00 2.033121352203636194e-03
4.255771163582340705e+03 1.225561063070015555e+00 2.170655230459850923e-03
4.260026934745924336e+03 1.228175292664718032e+00 1.891186138569046424e-03
4.264286961680671993e+03 1.228265457336927602e+00 1.830819044566980988e-03
4.268551248642354039e+03 1.227240973653412004e+00 1.596601408095087464e-03
4.272819799890998183e+03 1.223566801718055874e+00 2.538322420647837283e-03
4.277092619690890388e+03 1.219478237696595579e+00 2.761637037186055830e-03
4.281369712310583054e+03 1.215273922701438192e+00 2.556568140337420018e-03
4.285651082022895025e+03 1.214103539805283738e+00 2.474175280135302007e-03
4.289936733104918858e+03 1.213394386626868604e+00 2.222889624393444962e-03
4.294226669838025373e+03 1.214890418584948506e+00 2.139156339444232835e-03
4.298520896507864563e+03 1.218841421216596110e+00 2.131776591953836800e-03
4.302819417404373780e+03 1.225335882216438632e+00 2.187260525126587512e-03
4.307122236821779552e+03 1.234479144735245226e+00 1.918259664413199438e-03
4.311429359058603040e+03 1.243208241683021464e+00 1.754578308848137513e-03
4.315740788417662770e+03 1.251896286618001453e+00 1.749241812621125458e-03
4.320056529206081905e+03 1.261161530147225207e+00 1.692300344240225182e-03
4.324376585735290064e+03 1.269244909635919516e+00 1.705936396571986749e-03
4.328700962321026054e+03 1.276027580510961101e+00 1.815795433208359415e-03
4.333029663283348782e+03 1.281644853603945533e+00 2.068083889977029646e-03
4.337362692946633615e+03 1.284536117441741343e+00 2.050793990597227483e-03
4.341700055639581478e+03 1.284324096348495425e+00 1.911238647712615313e-03
4.346041755695222491e+03 1.281506055402453104e+00 1.811334090536062969e-03
4.350387797450919606e+03 1.275440630214820681e+00 2.252018304955328946e-03
4.354738185248371337e+03 1.266504774958232105e+00 2.329499150060128018e-03
4.359092923433621763e+03 1.257165869910153777e+00 2.087189501105247286e-03
4.363452016357056891e+03 1.247109601291317427e+00 1.731387902642234208e-03
4.367815468373414660e+03 1.237867603541366046e+00 1.702244208688138928e-03
4.372183283841789489e+03 1.227671737410230612e+00 1.609507010176804533e-03
4.376555467125633186e+03 1.218959351580460204e+00 1.530992714452947658e-03
4.380932022592760404e+03 1.212020053338281000e+00 1.683030386313842100e-03
4.385312954615354101e+03 1.206723202252769855e+00 1.654478105506031237e-03
4.389698267569970994e+03 1.202206044208205205e+00 1.255496920727245790e-03
4.394087965837542470e+03 1.197552759658197186e+00 1.405471457619043504e-03
4.398482053803381859e+03 1.193638110763379334e+00 1.692162037320351546e-03
4.402880535857186260e+03 1.191298588395517832e+00 1.677397211595238252e-03
4.407283416393044718e+03 1.190835861383671812e+00 1.552906992702640957e-03
