# starting wavelength: 3460.580
# ending wavelength: 7360.260
# wav flux eflux
3.463843857910266706e+03 2.235126734400518234e-01 7.372779875833149199e-02
3.467307701768178049e+03 2.948398710659568822e-01 6.034013666368816253e-02
3.470775009469947236e+03 3.393561042150683438e-01 4.804628244378996577e-02
3.474245784479418489e+03 3.592756848968432504e-01 4.301463548014496097e-02
3.477720030263898934e+03 3.731469508714213013e-01 3.578021141057664140e-02
3.481197750294164052e+03 3.803808305273145840e-01 3.012843376102210952e-02
3.484678948044459503e+03 3.837834365472079234e-01 2.463414441253459347e-02
3.488163626992504760e+03 3.830043594843827726e-01 2.168986513825121171e-02
3.491651790619498570e+03 3.825976659767429400e-01 2.042383875713501759e-02
3.495143442410119405e+03 3.784128109470757950e-01 1.816426948285571052e-02
3.498638585852530468e+03 3.704806709285832778e-01 1.642905908428277106e-02
3.502137224438384237e+03 3.638861582760128388e-01 1.525407867135807061e-02
3.505639361662823831e+03 3.564549775226850126e-01 1.430538550464039577e-02
3.509145001024487556e+03 3.485135500356058569e-01 1.353592445935647946e-02
3.512654146025513455e+03 3.405411344349044689e-01 1.291899524406887531e-02
3.516166800171540217e+03 3.306260979774006681e-01 1.271699852132074544e-02
3.519682966971712631e+03 3.247333196426185342e-01 1.259794878456959102e-02
3.523202649938685681e+03 3.217340988454192585e-01 1.284753659077168299e-02
3.526725852588625457e+03 3.280822473761989544e-01 1.292471381859256266e-02
3.530252578441215064e+03 3.340838227576947705e-01 1.345751461424323989e-02
3.533782831019657806e+03 3.457071520361612582e-01 1.363911527282170126e-02
3.537316613850678550e+03 3.617945196790480766e-01 1.363843495263580667e-02
3.540853930464530094e+03 3.817576616765521180e-01 1.313884475851465061e-02
3.544394784394995895e+03 4.088615391787830955e-01 1.282239186170236987e-02
3.547939179179392340e+03 4.405970305703414969e-01 1.316066295188342283e-02
3.551487118358572843e+03 4.750486562613908670e-01 1.376382136550908554e-02
3.555038605476932389e+03 5.180533886671097044e-01 1.635358008710601635e-02
3.558593644082410719e+03 5.655557777967659128e-01 1.688379226802638050e-02
3.562152237726494150e+03 6.121504465957169350e-01 1.564097923333738344e-02
3.565714389964221937e+03 6.559406570140025039e-01 1.436375716596315945e-02
3.569280104354187188e+03 6.982378890050476850e-01 1.295230963306337468e-02
3.572849384458542772e+03 7.357549100856682900e-01 1.238243574330508481e-02
3.576422233843002232e+03 7.708427571821498958e-01 1.196166169420776609e-02
3.579998656076846601e+03 8.051542599859902172e-01 1.154076090649800226e-02
3.583578654732924406e+03 8.309678285777356566e-01 1.148561587733976097e-02
3.587162233387658489e+03 8.511853974574210557e-01 1.146635932683739284e-02
3.590749395621047370e+03 8.606963769812269183e-01 1.212932939648448533e-02
3.594340145016669794e+03 8.671171834848347970e-01 1.174775397988658994e-02
3.597934485161687462e+03 8.689046140123691808e-01 1.165193405454018061e-02
3.601532419646850485e+03 8.610377680280999479e-01 1.111728536238104983e-02
3.605133952066498296e+03 8.519161363867147063e-01 1.085242977750353055e-02
3.608739086018566013e+03 8.381284007906505407e-01 1.060956897592870568e-02
3.612347825104585809e+03 8.255325385046655695e-01 1.059427824656094044e-02
3.615960172929691907e+03 8.054280416660754005e-01 9.597739583077323500e-03
3.619576133102622407e+03 7.904793592336293306e-01 9.849467486862613363e-03
3.623195709235726554e+03 7.745986469850353329e-01 9.500582208784049548e-03
3.626818904944963379e+03 7.581005717565222346e-01 8.809926149390636188e-03
3.630445723849909427e+03 7.403020571350994450e-01 8.213917886072997360e-03
3.634076169573760581e+03 7.190087894783313560e-01 8.176278111957761136e-03
3.637710245743335690e+03 6.943329508878303136e-01 8.080858424196856252e-03
3.641347955989080219e+03 6.677376426602501525e-01 8.077586282423070488e-03
3.644989303945070333e+03 6.379830874381170469e-01 8.319632808877916452e-03
3.648634293249016537e+03 6.049452234604705270e-01 8.467787579656944896e-03
3.652282927542266862e+03 5.701255007996233193e-01 8.560751979046208812e-03
3.655935210469810499e+03 5.382391571027405064e-01 8.845847789233710068e-03
3.659591145680281443e+03 5.077791788443308807e-01 9.294796919956362091e-03
3.663250736825963031e+03 4.802211421438852823e-01 9.706995176496710856e-03
3.666913987562790226e+03 4.614209743991543600e-01 9.457223697357776404e-03
3.670580901550354156e+03 4.456717737963389880e-01 9.580986274943801770e-03
3.674251482451905758e+03 4.308946386718893740e-01 9.438865125809631218e-03
3.677925733934358959e+03 4.160824813132257827e-01 8.744598782894064809e-03
3.681603659668294313e+03 4.080744144555687458e-01 9.428929092440229906e-03
3.685285263327964003e+03 4.015160139826792762e-01 9.761822765111794961e-03
3.688970548591293209e+03 4.011563679398337801e-01 9.549662409972643068e-03
3.692659519139885560e+03 4.044526991458087251e-01 9.322496207057412443e-03
3.696352178659026777e+03 4.081799236383180096e-01 9.205529719548573991e-03
3.700048530837686940e+03 4.127335183268592833e-01 8.340233201619801431e-03
3.703748579368525952e+03 4.178538826841239340e-01 8.402976344212385526e-03
3.707452327947895355e+03 4.198335848157500050e-01 8.822181542688083827e-03
3.711159780275844696e+03 4.256473637658903519e-01 8.751721163413172383e-03
3.714870940056121526e+03 4.336241664826360198e-01 8.744610263829966437e-03
3.718585810996179134e+03 4.397967674844912023e-01 7.814115124706271301e-03
3.722304396807176545e+03 4.479548824227198023e-01 8.110698775399223515e-03
3.726026701203984885e+03 4.541900845235888329e-01 7.254047173907113115e-03
3.729752727905190113e+03 4.655225858012936313e-01 8.490461203664690509e-03
3.733482480633096657e+03 4.815402164617492153e-01 9.946632250442021678e-03
3.737215963113731050e+03 4.941418667529832165e-01 9.726294902924433050e-03
3.740953179076846027e+03 5.038444563084475414e-01 7.543126145458418572e-03
3.744694132255923705e+03 5.053570391332201650e-01 8.814078629763997391e-03
3.748438826388181042e+03 5.048152155581261402e-01 1.004327301583274150e-02
3.752187265214570289e+03 5.038211894486243070e-01 1.037667275049237309e-02
3.755939452479786269e+03 5.007163261839678858e-01 1.006015430820837372e-02
3.759695391932267285e+03 4.970373313306274965e-01 8.988340475016830602e-03
3.763455087324201031e+03 4.936471201789823238e-01 9.231901735574452733e-03
3.767218542411526414e+03 4.920502320117536854e-01 9.217120336611730330e-03
3.770985760953939007e+03 4.896328449148228956e-01 8.950482221165616259e-03
3.774756746714894234e+03 4.901621742680823957e-01 8.683473289225937183e-03
3.778531503461610555e+03 4.970786868873404152e-01 9.387968811279073442e-03
3.782310034965073100e+03 5.051128124888978332e-01 8.433857943487513276e-03
3.786092345000039586e+03 5.105873471493928006e-01 8.856438457387073859e-03
3.789878437345040766e+03 5.177735955100520870e-01 9.176261997252986580e-03
3.793668315782387253e+03 5.305048679029965575e-01 9.050983531514377942e-03
3.797461984098170888e+03 5.417798657094248238e-01 8.862253299272345244e-03
3.801259446082270188e+03 5.549508406642941205e-01 9.348444077637713123e-03
3.805060705528353537e+03 5.668948763180704509e-01 8.997590894946014620e-03
3.808865766233883278e+03 5.812084737786676891e-01 9.039917991578575937e-03
3.812674632000118436e+03 5.982091350423038856e-01 8.822225040116217151e-03
3.816487306632119726e+03 6.200021715556431889e-01 7.362386097410578145e-03
3.820303793938753188e+03 6.382260328550811712e-01 6.385871654293132256e-03
3.824124097732693372e+03 6.526852645165894806e-01 7.384094741014728645e-03
3.827948221830427428e+03 6.640601188225930818e-01 7.702310454958656225e-03
3.831776170052258749e+03 6.782884509048691113e-01 7.107879942643559670e-03
3.835607946222312421e+03 6.930919651403628645e-01 6.829293976716160376e-03
3.839443554168536139e+03 7.090340850945481277e-01 6.604424160687768011e-03
3.843282997722705659e+03 7.267224695064072870e-01 7.013381821631459005e-03
3.847126280720429804e+03 7.457742128154860595e-01 7.343246808420080332e-03
3.850973407001151372e+03 7.640092440952410691e-01 7.632781020785141778e-03
3.854824380408153957e+03 7.827390682036313718e-01 7.792487770238513446e-03
3.858679204788563311e+03 8.019014614301237520e-01 5.151338590420487772e-03
3.862537883993353262e+03 8.149783768682702378e-01 5.278991202539141947e-03
3.866400421877347981e+03 8.230037559710348116e-01 5.287820985912942799e-03
3.870266822299226533e+03 8.301524157142545768e-01 5.481541488135750935e-03
3.874137089121526969e+03 8.335472337901765894e-01 5.508740787760067065e-03
3.878011226210649966e+03 8.324709625801047785e-01 6.063134340239547011e-03
3.881889237436861549e+03 8.238836261949078477e-01 5.949476035192834307e-03
3.885771126674299921e+03 8.149918286654497246e-01 6.124767590411453813e-03
3.889656897800975457e+03 8.042881274675736103e-01 7.039429081244857889e-03
3.893546554698777527e+03 7.948819957165954575e-01 8.171021809297034436e-03
3.897440101253477678e+03 7.867742936196401304e-01 7.950170339138971573e-03
3.901337541354732366e+03 7.834577068739712047e-01 7.341619318574812113e-03
3.905238878896088409e+03 7.835057288093683070e-01 7.199690151311016577e-03
3.909144117774985716e+03 7.890657752960514859e-01 7.950549893262904080e-03
3.913053261892762293e+03 7.948137368410029824e-01 8.421164027699939644e-03
3.916966315154656058e+03 8.019498826112333445e-01 8.657361069898863309e-03
3.920883281469812118e+03 8.097059957054852930e-01 7.758765075171493962e-03
3.924804164751283224e+03 8.137390083556713671e-01 6.006453404161786643e-03
3.928728968916035683e+03 8.108580100246447486e-01 5.855263789057840208e-03
3.932657697884953450e+03 7.998888150518701501e-01 7.278628714781994538e-03
3.936590355582839493e+03 7.867995959746848511e-01 6.937058976828803895e-03
3.940526945938423523e+03 7.712692279392818762e-01 5.063473205982887623e-03
3.944467472884363360e+03 7.579988836628632765e-01 4.299661807258637301e-03
3.948411940357249023e+03 7.466741272903160143e-01 4.021212932583896962e-03
3.952360352297607733e+03 7.402255718744474855e-01 3.645077795088241378e-03
3.956312712649906643e+03 7.347203851056031132e-01 3.581864135175240067e-03
3.960269025362557841e+03 7.331430863660488573e-01 3.175654714824177691e-03
3.964229294387921527e+03 7.335793122365030783e-01 3.102784597962211788e-03
3.968193523682310570e+03 7.334328498778558414e-01 3.438524528028139102e-03
3.972161717205994591e+03 7.356049164730787959e-01 4.077548128716178624e-03
3.976133878923201792e+03 7.426880391886718780e-01 4.066598288300989246e-03
3.980110012802126221e+03 7.514200873540787251e-01 3.799848666493468689e-03
3.984090122814929600e+03 7.639077011423713870e-01 4.219445186591993212e-03
3.988074212937745870e+03 7.772688618602326960e-01 4.964826064346409586e-03
3.992062287150684824e+03 7.918513636548057955e-01 5.777911274148213837e-03
3.996054349437837118e+03 8.053234580197377035e-01 5.088255860845190132e-03
4.000050403787276082e+03 8.137574101554081452e-01 3.685758226853594853e-03
4.004050454191064546e+03 8.150658476253138662e-01 3.921906061722602033e-03
4.008054504645257111e+03 8.111581902610814909e-01 4.416380368383317039e-03
4.012062559149903791e+03 8.041419241918824623e-01 4.923165105248914798e-03
4.016074621709055009e+03 7.939464241075171458e-01 5.047216128600545346e-03
4.020090696330765240e+03 7.814702257398367102e-01 5.191087047544290164e-03
4.024110787027097558e+03 7.718696754393379322e-01 4.616469600826559293e-03
4.028134897814125907e+03 7.628774457301366052e-01 4.113995492503592227e-03
4.032163032711941469e+03 7.571231498762582834e-01 5.153886400039276762e-03
4.036195195744654484e+03 7.540599746087495170e-01 5.585767829556807090e-03
4.040231390940400615e+03 7.501006760593234013e-01 4.641903033481238790e-03
4.044271622331342314e+03 7.445886148302891527e-01 5.864425057446697072e-03
4.048315893953675186e+03 7.406806827035000707e-01 6.412253234162079187e-03
4.052364209847629809e+03 7.404968742048888553e-01 6.317555058338405159e-03
4.056416574057479011e+03 7.400666841979630650e-01 5.942550026674623884e-03
4.060472990631537868e+03 7.416712616878740061e-01 6.440314301800010265e-03
4.064533463622170530e+03 7.422193310878347772e-01 6.947950455347109457e-03
4.068597997085794304e+03 7.424517718826061374e-01 7.575152460516973441e-03
4.072666595082881486e+03 7.396836413216494321e-01 7.764573747119939140e-03
4.076739261677965715e+03 7.289371900491821155e-01 7.117492432874687920e-03
4.080816000939644709e+03 7.126049514015273534e-01 6.763709108731385568e-03
4.084896816940585722e+03 6.889164321240259792e-01 8.696700667205079296e-03
4.088981713757527814e+03 6.622794664740517812e-01 9.887436488704937076e-03
4.093070695471286854e+03 6.344118471512320001e-01 9.585559181713809371e-03
4.097163766166759160e+03 6.069148509300137384e-01 7.052613130444799171e-03
4.101260929932927866e+03 5.866293087063636502e-01 6.547938084518219355e-03
4.105362190862862008e+03 5.715076303051525031e-01 7.447373172988608001e-03
4.109467553053726078e+03 5.632370562245976320e-01 7.656555184964300605e-03
4.113577020606780934e+03 5.588745179498391114e-01 6.038004424968637998e-03
4.117690597627389252e+03 5.526806600458361585e-01 6.278013749591172810e-03
4.121808288225018259e+03 5.499116465516172836e-01 6.272841677243281774e-03
4.125930096513244280e+03 5.494440858058627919e-01 6.248589943909091220e-03
4.130056026609759101e+03 5.511470270450243847e-01 6.198991196915118809e-03
4.134186082636369974e+03 5.517045075472648552e-01 5.940926067042317897e-03
4.138320268719007800e+03 5.538614339145618848e-01 5.645274001301507118e-03
4.142458588987728035e+03 5.570556415599888789e-01 5.532946331271473318e-03
4.146601047576717065e+03 5.627469507205529187e-01 5.661250612322880384e-03
4.150747648624294925e+03 5.710378599903986885e-01 4.994930406162802899e-03
4.154898396272920763e+03 5.767944932253415979e-01 5.075446574900235874e-03
4.159053294669195566e+03 5.839516804108488834e-01 5.050047725005899282e-03
4.163212347963865795e+03 5.877328733137782146e-01 5.871558445580213163e-03
4.167375560311830668e+03 5.941830596285393451e-01 5.432157997069256110e-03
4.171542935872143971e+03 6.016305363877960666e-01 4.803992264384005992e-03
4.175714478808017702e+03 6.105471816776588678e-01 5.218341426955252008e-03
4.179890193286827525e+03 6.209209085823274021e-01 5.791366173606836421e-03
4.184070083480115500e+03 6.308787230254536693e-01 5.510299260487398765e-03
4.188254153563597356e+03 6.384338826805618927e-01 4.473819089050196443e-03
4.192442407717161586e+03 6.421307679648503575e-01 3.786485750215363381e-03
4.196634850124880359e+03 6.387428225130420412e-01 4.398127188841583803e-03
4.200831484975006788e+03 6.351086600802785531e-01 4.359792356147909262e-03
4.205032316459983122e+03 6.274742730524333068e-01 4.370390092055297451e-03
4.209237348776444378e+03 6.169607646447589078e-01 4.297890221225984970e-03
4.213446586125221984e+03 6.037710486785518027e-01 3.634817246091191952e-03
4.217660032711349231e+03 5.922428801822784417e-01 3.070424069578962800e-03
4.221877692744061278e+03 5.848118901679395520e-01 3.349097986164900273e-03
4.226099570436806971e+03 5.792951966984246637e-01 3.331218198008292861e-03
4.230325670007245208e+03 5.769009167273305705e-01 2.821822186988017823e-03
4.234555995677254032e+03 5.751524993026074783e-01 2.823454253284998425e-03
4.238790551672932452e+03 5.766557564049994422e-01 2.838606193924926493e-03
4.243029342224606808e+03 5.771287902785797730e-01 2.572963417364298230e-03
4.247272371566832589e+03 5.805925508994381756e-01 2.651754008665662462e-03
4.251519643938400804e+03 5.841441323593090651e-01 2.718008740294245665e-03
4.255771163582340705e+03 5.905179691645369155e-01 2.721911760035871947e-03
4.260026934745924336e+03 5.966031130074630484e-01 2.671557964719637693e-03
4.264286961680671993e+03 6.035173780314828651e-01 2.668974368436474644e-03
4.268551248642354039e+03 6.095303978404625900e-01 2.648610736075352606e-03
4.272819799890998183e+03 6.142219629750130805e-01 2.979624649462635742e-03
4.277092619690890388e+03 6.174371113085370677e-01 3.465201944278201423e-03
4.281369712310583054e+03 6.261621119673964619e-01 3.727028256584242420e-03
4.285651082022895025e+03 6.345625214835375338e-01 4.100313787912794432e-03
4.289936733104918858e+03 6.419661380915930859e-01 4.599476340662868486e-03
4.294226669838025373e+03 6.457947131609558244e-01 4.642839219116252220e-03
4.298520896507864563e+03 6.480613289897014795e-01 4.660108336416302413e-03
4.302819417404373780e+03 6.478869582728290499e-01 4.128777330512227103e-03
4.307122236821779552e+03 6.429739268246554840e-01 4.835105038750236658e-03
4.311429359058603040e+03 6.364904480752185956e-01 5.225787523578749767e-03
4.315740788417662770e+03 6.295897769567995184e-01 5.119750465985144737e-03
4.320056529206081905e+03 6.245186715348578499e-01 5.092343620818802659e-03
4.324376585735290064e+03 6.183331519734984738e-01 4.868457068373749017e-03
4.328700962321026054e+03 6.137108474103187827e-01 4.934850583549831027e-03
4.333029663283348782e+03 6.080708696935038793e-01 4.725768117921719247e-03
4.337362692946633615e+03 6.073750695067325900e-01 4.848740378159918131e-03
4.341700055639581478e+03 6.068506246963997208e-01 4.814526279293462017e-03
4.346041755695222491e+03 6.104677743701790726e-01 4.270694221524463929e-03
4.350387797450919606e+03 6.149541247267126254e-01 4.194597944721076103e-03
4.354738185248371337e+03 6.196142752239727214e-01 4.071364040316314582e-03
4.359092923433621763e+03 6.236322803922798030e-01 3.074007742595866004e-03
4.363452016357056891e+03 6.341085363069723924e-01 3.325034695867649243e-03
4.367815468373414660e+03 6.463869992313950874e-01 3.650761014551019007e-03
4.372183283841789489e+03 6.611191602903052633e-01 3.899826928401390821e-03
4.376555467125633186e+03 6.758967509111425409e-01 3.735526312928880589e-03
4.380932022592760404e+03 6.930697497755703429e-01 2.915606287154958072e-03
4.385312954615354101e+03 7.070992240447022681e-01 3.279783757663419941e-03
4.389698267569970994e+03 7.192401200626937774e-01 4.101527316609679223e-03
4.394087965837542470e+03 7.325516436218169058e-01 3.879365790731131251e-03
4.398482053803381859e+03 7.477340128807981046e-01 4.190246486362488379e-03
4.402880535857186260e+03 7.626626564426909338e-01 4.441194526962159543e-03
4.407283416393044718e+03 7.758297607002485607e-01 4.542023479679754318e-03
4.411690699809440048e+03 7.881070019401973381e-01 4.429097175918403004e-03
4.416102390509250654e+03 7.968768890964320617e-01 4.637161971877951268e-03
4.420518492899761441e+03 8.079236908966817010e-01 4.329556429620717503e-03
4.424939011392662906e+03 8.149340249093004473e-01 4.606560657824955961e-03
4.429363950404056595e+03 8.243692529045084649e-01 4.681067136519373624e-03
4.433793314354462382e+03 8.314213637124270306e-01 4.654855240464031776e-03
4.438227107668818462e+03 8.367888728585713976e-01 4.658295466927466974e-03
4.442665334776488635e+03 8.395419173239410116e-01 4.710831308487280385e-03
4.447108000111265937e+03 8.453365856012438062e-01 5.520470747371130672e-03
4.451555108111379013e+03 8.568716173218743348e-01 5.340727018287125261e-03
4.456006663219492111e+03 8.732297380855681412e-01 5.932798604945968730e-03
4.460462669882713271e+03 8.908399373243583996e-01 6.117166781594507267e-03
4.464923132552597053e+03 9.105448394587383198e-01 5.765070474234728487e-03
4.469388055685150903e+03 9.261719293214933924e-01 5.892390851316264833e-03
4.473857443740837880e+03 9.426069486766686101e-01 5.984435155113592732e-03
4.478331301184580298e+03 9.595963319110549783e-01 6.795121663077378915e-03
4.482809632485766087e+03 9.743443382911863848e-01 6.541548090785542606e-03
4.487292442118253348e+03 9.815496935437516557e-01 6.246554378990339627e-03
4.491779734560373072e+03 9.850211307801358673e-01 6.094841188301629645e-03
4.496271514294934605e+03 9.826450987243079416e-01 6.716306009765271937e-03
4.500767785809231100e+03 9.750319521462965655e-01 7.471233513824901765e-03
4.505268553595042249e+03 9.702425876610550892e-01 7.111344306705582284e-03
4.509773822148638828e+03 9.668928356906405508e-01 5.731931171892207071e-03
