# starting wavelength: 3502.340
# ending wavelength: 7164.280
# wav flux eflux
3.505639361662823831e+03 1.828496154234783955e+00 4.148495299302481371e-02
3.509145001024487556e+03 1.817175260410220483e+00 3.102105609789528040e-02
3.512654146025513455e+03 1.802455262417190562e+00 2.361429348160138872e-02
3.516166800171540217e+03 1.786532061648425262e+00 1.834941482373271537e-02
3.519682966971712631e+03 1.771857228117937666e+00 1.450902670171028315e-02
3.523202649938685681e+03 1.756377281386756195e+00 1.185762976123074311e-02
3.526725852588625457e+03 1.739793622202703061e+00 9.685895450164589554e-03
3.530252578441215064e+03 1.723873864942869094e+00 8.150639150559009158e-03
3.533782831019657806e+03 1.708519451651056897e+00 6.814162449750921745e-03
3.537316613850678550e+03 1.694809306725029385e+00 6.126636254336275539e-03
3.540853930464530094e+03 1.684310317015155656e+00 6.691976120232198851e-03
3.544394784394995895e+03 1.672894596171317527e+00 6.226708530511971228e-03
3.547939179179392340e+03 1.661665951087478721e+00 5.896146383552514948e-03
3.551487118358572843e+03 1.651631555612020463e+00 6.040366654503622444e-03
3.555038605476932389e+03 1.640382101994446895e+00 6.034133745596497421e-03
3.558593644082410719e+03 1.627704299119336895e+00 5.994564071776497909e-03
3.562152237726494150e+03 1.611287895814742299e+00 5.763222627441051509e-03
3.565714389964221937e+03 1.593472065092570888e+00 5.589085667233456567e-03
3.569280104354187188e+03 1.577054214290702694e+00 5.354810039845401930e-03
3.572849384458542772e+03 1.558584507810775399e+00 5.213645499686448727e-03
3.576422233843002232e+03 1.539713038873325113e+00 4.745325647443256016e-03
3.579998656076846601e+03 1.517257213456211451e+00 5.397417542626261472e-03
3.583578654732924406e+03 1.492763113577646461e+00 5.819668496342181828e-03
3.587162233387658489e+03 1.467734107241353225e+00 5.807763430827835721e-03
3.590749395621047370e+03 1.444349167670894163e+00 5.666358435367627178e-03
3.594340145016669794e+03 1.422291544861456591e+00 5.890790228426767000e-03
3.597934485161687462e+03 1.400486029955721357e+00 5.790687377618094003e-03
3.601532419646850485e+03 1.382213332756927482e+00 5.489158924145426909e-03
3.605133952066498296e+03 1.365888175327595544e+00 5.381701366918332542e-03
3.608739086018566013e+03 1.351762068939070138e+00 5.088117853087568976e-03
3.612347825104585809e+03 1.339975893541868190e+00 4.663939944601082875e-03
3.615960172929691907e+03 1.331104065336967013e+00 4.332299394856258326e-03
3.619576133102622407e+03 1.326500821557667464e+00 4.530751743475380615e-03
3.623195709235726554e+03 1.325819333214447671e+00 5.030107938376905501e-03
3.626818904944963379e+03 1.328917044586896079e+00 5.351315075069949974e-03
3.630445723849909427e+03 1.334156790547933014e+00 5.096606871728087337e-03
3.634076169573760581e+03 1.340855660546664163e+00 4.375009226936814842e-03
3.637710245743335690e+03 1.349315238250554438e+00 3.571700161441042094e-03
3.641347955989080219e+03 1.357472799508178563e+00 2.784078785570309050e-03
3.644989303945070333e+03 1.363670934779567023e+00 2.752378835188854043e-03
3.648634293249016537e+03 1.369227046637782053e+00 2.686731243866698898e-03
3.652282927542266862e+03 1.373981551990809402e+00 2.558324511767301988e-03
3.655935210469810499e+03 1.377080299853248979e+00 2.662912533751842989e-03
3.659591145680281443e+03 1.379201625522745278e+00 2.711044992939843322e-03
3.663250736825963031e+03 1.378125433351026441e+00 2.596265930811551478e-03
3.666913987562790226e+03 1.376758235197136582e+00 2.939456218788412747e-03
3.670580901550354156e+03 1.375840213604911266e+00 3.281968374352236834e-03
3.674251482451905758e+03 1.374212513838951821e+00 3.614872257937380966e-03
3.677925733934358959e+03 1.373615739728229590e+00 3.516556194868027205e-03
3.681603659668294313e+03 1.372928332124757844e+00 2.896216499635674915e-03
3.685285263327964003e+03 1.373496994454516118e+00 2.692262978318593191e-03
3.688970548591293209e+03 1.375489607098058675e+00 2.603894663525038126e-03
3.692659519139885560e+03 1.377163325504189295e+00 2.030764508614459583e-03
3.696352178659026777e+03 1.382246520726057026e+00 2.152183931762451270e-03
3.700048530837686940e+03 1.389076955913469025e+00 2.126177182195974381e-03
3.703748579368525952e+03 1.397393285038277533e+00 2.272814790749250104e-03
3.707452327947895355e+03 1.407057492451458280e+00 2.877970734494410265e-03
3.711159780275844696e+03 1.416233797579423470e+00 2.790714718021440610e-03
3.714870940056121526e+03 1.426494938712228988e+00 2.101511320779532194e-03
3.718585810996179134e+03 1.435345240628623564e+00 1.974191819136974103e-03
3.722304396807176545e+03 1.444054361325250335e+00 1.971426652000018293e-03
3.726026701203984885e+03 1.451415100583669959e+00 2.072403716287343680e-03
3.729752727905190113e+03 1.456538418731072593e+00 1.859407002617365946e-03
3.733482480633096657e+03 1.459025700985852714e+00 1.820151956852948758e-03
3.737215963113731050e+03 1.458988916057666563e+00 1.764551497642773180e-03
3.740953179076846027e+03 1.456355808837848764e+00 1.707312734230538023e-03
3.744694132255923705e+03 1.452338564324068937e+00 1.689413864977576396e-03
3.748438826388181042e+03 1.445841591625323330e+00 1.700520579461641934e-03
3.752187265214570289e+03 1.436988490863034373e+00 1.939357765464350385e-03
3.755939452479786269e+03 1.428030819017152453e+00 2.003049523228848938e-03
3.759695391932267285e+03 1.417805382593272379e+00 2.078945619630236455e-03
3.763455087324201031e+03 1.407807578195366505e+00 2.076542686552289643e-03
3.767218542411526414e+03 1.395566208607252667e+00 2.141775667590567738e-03
3.770985760953939007e+03 1.384161521378247439e+00 2.276174336011105824e-03
3.774756746714894234e+03 1.372933917713781149e+00 2.850425832238481869e-03
3.778531503461610555e+03 1.365826403385710375e+00 2.849643747686914346e-03
3.782310034965073100e+03 1.362134479523895658e+00 2.946274534275378741e-03
3.786092345000039586e+03 1.361065837117697574e+00 3.290066575028608841e-03
3.789878437345040766e+03 1.361555976825783221e+00 3.409617974156103643e-03
3.793668315782387253e+03 1.363342286671882286e+00 3.551594423751475681e-03
3.797461984098170888e+03 1.367343613025105542e+00 3.608290345781571887e-03
3.801259446082270188e+03 1.374692218091329243e+00 3.360672993360239863e-03
3.805060705528353537e+03 1.380540850212692350e+00 3.340476916829410777e-03
3.808865766233883278e+03 1.387420314354295137e+00 3.253194984176305607e-03
3.812674632000118436e+03 1.395343524868613461e+00 3.026965001485922013e-03
3.816487306632119726e+03 1.402197817705068461e+00 3.019560135772480190e-03
3.820303793938753188e+03 1.407233154475536319e+00 3.047074659615196107e-03
3.824124097732693372e+03 1.412589540989923176e+00 3.024103205411110638e-03
3.827948221830427428e+03 1.417835130510724184e+00 3.131561328565004784e-03
3.831776170052258749e+03 1.422681426586200004e+00 3.133075803293777339e-03
3.835607946222312421e+03 1.426828407596705484e+00 3.211617464878315908e-03
3.839443554168536139e+03 1.429356439240558663e+00 3.364580242371955666e-03
3.843282997722705659e+03 1.432861131170065860e+00 3.264736497068716336e-03
3.847126280720429804e+03 1.435656903028976084e+00 2.137528709213093719e-03
3.850973407001151372e+03 1.434827184397185595e+00 2.015270327468041394e-03
3.854824380408153957e+03 1.431615928003398208e+00 2.065233640127240363e-03
3.858679204788563311e+03 1.424443428586606997e+00 1.842835135018119214e-03
3.862537883993353262e+03 1.417401865791661830e+00 1.893099658364653893e-03
3.866400421877347981e+03 1.411278018877019980e+00 2.004831342529348089e-03
3.870266822299226533e+03 1.404822044437391781e+00 2.082857520598990590e-03
3.874137089121526969e+03 1.398947764379947944e+00 1.792907653753327783e-03
3.878011226210649966e+03 1.395348424747573146e+00 1.523762011543812033e-03
3.881889237436861549e+03 1.393947629196578220e+00 1.624832570766162948e-03
3.885771126674299921e+03 1.395819301052761530e+00 1.565852182278465714e-03
3.889656897800975457e+03 1.403399649604770705e+00 2.469953684465170298e-03
3.893546554698777527e+03 1.413862048058883047e+00 2.700115895072149105e-03
3.897440101253477678e+03 1.425010502102408871e+00 2.767155690489198679e-03
3.901337541354732366e+03 1.436072939003228299e+00 2.718400768205615162e-03
3.905238878896088409e+03 1.448012694006574064e+00 2.629759101641768095e-03
3.909144117774985716e+03 1.460554367921352181e+00 2.358043092046814386e-03
3.913053261892762293e+03 1.470828449393828841e+00 2.404995840065495081e-03
3.916966315154656058e+03 1.479644374099768234e+00 2.355987919188563297e-03
3.920883281469812118e+03 1.487040549870202399e+00 2.343426968703326337e-03
3.924804164751283224e+03 1.492382518457075147e+00 2.328705077523127599e-03
3.928728968916035683e+03 1.495402687772847683e+00 2.390165321880375737e-03
3.932657697884953450e+03 1.496005365892720373e+00 2.453951167244087725e-03
3.936590355582839493e+03 1.492553826701949582e+00 2.432220204651220144e-03
3.940526945938423523e+03 1.486584426872370024e+00 2.478077110148426375e-03
3.944467472884363360e+03 1.478507039614229690e+00 2.455205050688799313e-03
3.948411940357249023e+03 1.468745227076872828e+00 2.427710994447512208e-03
3.952360352297607733e+03 1.455873418016613963e+00 2.390703069246744722e-03
3.956312712649906643e+03 1.439204374423693755e+00 2.156387047232526544e-03
3.960269025362557841e+03 1.419806820858872332e+00 1.987681624351087147e-03
3.964229294387921527e+03 1.401397072101296937e+00 2.208721865595864812e-03
3.968193523682310570e+03 1.383219664445177077e+00 2.338745450819347278e-03
3.972161717205994591e+03 1.365989843598477416e+00 2.479118609700968739e-03
3.976133878923201792e+03 1.350273826353629802e+00 2.292372140521485059e-03
3.980110012802126221e+03 1.338075273528785969e+00 2.175471090149807326e-03
3.984090122814929600e+03 1.329635391477099748e+00 2.163281237710492754e-03
3.988074212937745870e+03 1.324720830701873409e+00 2.865128785779940020e-03
3.992062287150684824e+03 1.322127070468193555e+00 3.074950360531457025e-03
3.996054349437837118e+03 1.320926128373182129e+00 3.064969499528117508e-03
4.000050403787276082e+03 1.321592698716828940e+00 2.841753315881853474e-03
4.004050454191064546e+03 1.323018579268478767e+00 2.380577468813981599e-03
4.008054504645257111e+03 1.324829102679105031e+00 2.025738305689184487e-03
4.012062559149903791e+03 1.324873495735867657e+00 2.144897927084944179e-03
4.016074621709055009e+03 1.324053753829382396e+00 1.887409711584556735e-03
4.020090696330765240e+03 1.322340227146907132e+00 1.678327866059541647e-03
4.024110787027097558e+03 1.320415609544728586e+00 1.682432592950454126e-03
4.028134897814125907e+03 1.317587427096652108e+00 1.678368306946939397e-03
4.032163032711941469e+03 1.314614303844426013e+00 1.625341148106352902e-03
4.036195195744654484e+03 1.310382568725358743e+00 1.708651724037449403e-03
4.040231390940400615e+03 1.306055013287232391e+00 1.818919102540000150e-03
4.044271622331342314e+03 1.302535776575234339e+00 1.802558642336013267e-03
4.048315893953675186e+03 1.299020073482814785e+00 2.180442306644019088e-03
4.052364209847629809e+03 1.293488124622915514e+00 2.145768511456956368e-03
4.056416574057479011e+03 1.287559146772864427e+00 2.092509133122314163e-03
4.060472990631537868e+03 1.281274890094081575e+00 2.119161221653927032e-03
4.064533463622170530e+03 1.276247534708414566e+00 1.965155873777235142e-03
4.068597997085794304e+03 1.271079487655027540e+00 1.951783703246561582e-03
4.072666595082881486e+03 1.266043737668572922e+00 1.937434060758040774e-03
4.076739261677965715e+03 1.261035057343580457e+00 1.923113067261638482e-03
4.080816000939644709e+03 1.255899061933106964e+00 1.878067069446611630e-03
4.084896816940585722e+03 1.251152455202213742e+00 1.910041033870140759e-03
4.088981713757527814e+03 1.245989529612613778e+00 1.859216095982335702e-03
4.093070695471286854e+03 1.241270081939995107e+00 2.105436129694291791e-03
4.097163766166759160e+03 1.238069462425997580e+00 2.084512214516688004e-03
4.101260929932927866e+03 1.235864302234654932e+00 2.070433573572564440e-03
4.105362190862862008e+03 1.233996490075429442e+00 2.075226476740179779e-03
4.109467553053726078e+03 1.232090402042527622e+00 2.060385720488932051e-03
4.113577020606780934e+03 1.229991534155036481e+00 1.976621779607047776e-03
4.117690597627389252e+03 1.227840998677037110e+00 1.826318795047509984e-03
4.121808288225018259e+03 1.227586983149446587e+00 1.877908525376172219e-03
4.125930096513244280e+03 1.228343424799672512e+00 1.901906156455326208e-03
4.130056026609759101e+03 1.229198627583012682e+00 2.032405518986273377e-03
4.134186082636369974e+03 1.231975585961610165e+00 2.125677110579936562e-03
4.138320268719007800e+03 1.234116366011399846e+00 2.106870509990837158e-03
4.142458588987728035e+03 1.236563625351512208e+00 2.130696929928349234e-03
4.146601047576717065e+03 1.239796573744802233e+00 2.580200419171115294e-03
4.150747648624294925e+03 1.241876868429163450e+00 2.623284176227673545e-03
4.154898396272920763e+03 1.242858238341339128e+00 2.555722194961865083e-03
4.159053294669195566e+03 1.242693218805498434e+00 2.367756824392241912e-03
4.163212347963865795e+03 1.241478925886928319e+00 2.335845664457329024e-03
4.167375560311830668e+03 1.238863615940435148e+00 2.374082958171201685e-03
4.171542935872143971e+03 1.233575176182676314e+00 1.966707006428839062e-03
4.175714478808017702e+03 1.229123079255238116e+00 1.839285194783484012e-03
4.179890193286827525e+03 1.225340295234752741e+00 1.725714189742877597e-03
4.184070083480115500e+03 1.222126399787871742e+00 1.677937837873674743e-03
4.188254153563597356e+03 1.219332213888510097e+00 1.735341234346053684e-03
4.192442407717161586e+03 1.218595933987531632e+00 1.754598179814315356e-03
4.196634850124880359e+03 1.219767254004668455e+00 1.752209435516988373e-03
4.200831484975006788e+03 1.223018759405098965e+00 1.638276962156041397e-03
4.205032316459983122e+03 1.225328180624493335e+00 1.573611686940259383e-03
4.209237348776444378e+03 1.229790759743311312e+00 2.092474692424091138e-03
4.213446586125221984e+03 1.234324217961577208e+00 2.100861569989475632e-03
4.217660032711349231e+03 1.237060755386105049e+00 2.089359565184838001e-03
4.221877692744061278e+03 1.239954302305108280e+00 2.169242542923729457e-03
4.226099570436806971e+03 1.242372618112560723e+00 1.816115735231517902e-03
4.230325670007245208e+03 1.242436319433559255e+00 1.895865848516978302e-03
4.234555995677254032e+03 1.241247921843519952e+00 2.178495123721182949e-03
4.238790551672932452e+03 1.238696174499129610e+00 2.287624190126085703e-03
4.243029342224606808e+03 1.236228619135258056e+00 2.245808398243535984e-03
4.247272371566832589e+03 1.235304579563465399e+00 2.078327529316621389e-03
4.251519643938400804e+03 1.235016531888266655e+00 1.969004700183174354e-03
4.255771163582340705e+03 1.236352507093927189e+00 2.369843670318248340e-03
4.260026934745924336e+03 1.238237415607856828e+00 2.178618771080506090e-03
4.264286961680671993e+03 1.240590919854646534e+00 2.036389528510903872e-03
4.268551248642354039e+03 1.242854892380160559e+00 2.139148864387289614e-03
4.272819799890998183e+03 1.246531217910870071e+00 2.117818202224857563e-03
4.277092619690890388e+03 1.251285079541060830e+00 2.190276774009818593e-03
4.281369712310583054e+03 1.255332989739078808e+00 2.175855556713675136e-03
4.285651082022895025e+03 1.258680618055399769e+00 2.038534900694062568e-03
4.289936733104918858e+03 1.263975721351350501e+00 2.011270543437699253e-03
4.294226669838025373e+03 1.268469988858680342e+00 1.976806920560372511e-03
4.298520896507864563e+03 1.273221025935300288e+00 1.855686931187478092e-03
4.302819417404373780e+03 1.279852886355082875e+00 1.766785783009400907e-03
4.307122236821779552e+03 1.286770763230017156e+00 1.681547367248067710e-03
4.311429359058603040e+03 1.293500271769721266e+00 1.826418353083675804e-03
4.315740788417662770e+03 1.300676940578330942e+00 1.920532615801402243e-03
4.320056529206081905e+03 1.308124453184063896e+00 1.788707041053674189e-03
4.324376585735290064e+03 1.316427625669814860e+00 1.374656147153386623e-03
4.328700962321026054e+03 1.326486040853084525e+00 1.835858121832494938e-03
4.333029663283348782e+03 1.337298723401034062e+00 2.712934224557817832e-03
4.337362692946633615e+03 1.346441322742648605e+00 2.321628792287741549e-03
4.341700055639581478e+03 1.352014507450186365e+00 2.207019586019756327e-03
4.346041755695222491e+03 1.355563521188467346e+00 2.138260510479629388e-03
4.350387797450919606e+03 1.355737565424244728e+00 2.131492393296097534e-03
4.354738185248371337e+03 1.352862010464804365e+00 2.045135874837217867e-03
4.359092923433621763e+03 1.347055593012526975e+00 1.981065646194029011e-03
4.363452016357056891e+03 1.336616762934472291e+00 2.600985018118863717e-03
4.367815468373414660e+03 1.324846838562888651e+00 2.491341869331391377e-03
4.372183283841789489e+03 1.312686970887290361e+00 2.372584637098519404e-03
4.376555467125633186e+03 1.300494488634535983e+00 1.922979109686218232e-03
4.380932022592760404e+03 1.289696501465838807e+00 1.888050798594554259e-03
4.385312954615354101e+03 1.280528315970115072e+00 1.938672521205038989e-03
4.389698267569970994e+03 1.272178111997648742e+00 1.881692665249496245e-03
4.394087965837542470e+03 1.265374618698339004e+00 1.839771456622981858e-03
4.398482053803381859e+03 1.259871794347622975e+00 1.819535533031641991e-03
4.402880535857186260e+03 1.255587343656458632e+00 1.842370404523361281e-03
4.407283416393044718e+03 1.252009805831746370e+00 1.834832182216586871e-03
4.411690699809440048e+03 1.250546036003823858e+00 1.852607525954606729e-03
4.416102390509250654e+03 1.250409731714788863e+00 1.673586518708643873e-03
4.420518492899761441e+03 1.248904682409508471e+00 1.662500701577732673e-03
4.424939011392662906e+03 1.246958746239818616e+00 1.515122705247678005e-03
4.429363950404056595e+03 1.246296700750186393e+00 1.682499539953767088e-03
4.433793314354462382e+03 1.244744766250786228e+00 1.562110431958824847e-03
4.438227107668818462e+03 1.242410173752671376e+00 1.657926835561357622e-03
4.442665334776488635e+03 1.240191841881236323e+00 1.643264225211255210e-03
4.447108000111265937e+03 1.236151396331954144e+00 1.645257263282666731e-03
4.451555108111379013e+03 1.233346790832689610e+00 1.536170181622309970e-03
4.456006663219492111e+03 1.230689940893071155e+00 1.386659363532030155e-03
4.460462669882713271e+03 1.229108320178915914e+00 1.634830732896432005e-03
4.464923132552597053e+03 1.227904066992225651e+00 1.645183818683792131e-03
4.469388055685150903e+03 1.226285015153998348e+00 1.662710918525973349e-03
4.473857443740837880e+03 1.224674482295222688e+00 1.789492287059846328e-03
4.478331301184580298e+03 1.224118562680042377e+00 1.886505609777437220e-03
4.482809632485766087e+03 1.224485795092741025e+00 1.904001393742822418e-03
4.487292442118253348e+03 1.226188674659230315e+00 1.899009370485056592e-03
4.491779734560373072e+03 1.227650846479258817e+00 1.714959643239548272e-03
4.496271514294934605e+03 1.230787688307703354e+00 1.989756443784079874e-03
4.500767785809231100e+03 1.234004953127394444e+00 2.239246860131561753e-03
4.505268553595042249e+03 1.235714242177673450e+00 2.238853823245289063e-03
4.509773822148638828e+03 1.237162666080765083e+00 2.137309886551154534e-03
4.514283595970789065e+03 1.238342277178054784e+00 1.641884837254805555e-03
4.518797879566761367e+03 1.237183592004313049e+00 1.666216191561132286e-03
4.523316677446328868e+03 1.234142143541877568e+00 1.927034634740461359e-03
4.527839994123776705e+03 1.230350727908779307e+00 1.978403414935183974e-03
4.532367834117902021e+03 1.224874586766523388e+00 1.439298235073956274e-03
4.536900201952022144e+03 1.219828356608209985e+00 1.148442143681626011e-03
4.541437102153975502e+03 1.214913641617311635e+00 1.022747946358960229e-03
4.545978539256130716e+03 1.211054504435557844e+00 1.105334772295093896e-03
4.550524517795388419e+03 1.207347895586324826e+00 1.031489558885805924e-03
4.555075042313184895e+03 1.203170282470628072e+00 1.093839559093321865e-03
4.559630117355500261e+03 1.198090809342879037e+00 1.031000008827000127e-03
4.564189747472856652e+03 1.192506189134365568e+00 1.191616668890604740e-03
