# starting wavelength: 3453.670
# ending wavelength: 7360.260
# wav flux eflux
3.456926547887940615e+03 7.480832755395405709e-01 7.742742747238147601e-03
3.460383474435829612e+03 7.531008323232225576e-01 6.125636928053491970e-03
3.463843857910266706e+03 7.588555878168591340e-01 5.085339325440563739e-03
3.467307701768178049e+03 7.636909639482731826e-01 3.857470673514370139e-03
3.470775009469947236e+03 7.674217304179307142e-01 2.955336669700152352e-03
3.474245784479418489e+03 7.702470587643596156e-01 2.337941579840079661e-03
3.477720030263898934e+03 7.725674754557432244e-01 1.883569387699936910e-03
3.481197750294164052e+03 7.746016701184563757e-01 1.567675543431847627e-03
3.484678948044459503e+03 7.759951096186602504e-01 1.281488004626562052e-03
3.488163626992504760e+03 7.769974434441645483e-01 1.087232300907541548e-03
3.491651790619498570e+03 7.777110399806407282e-01 9.454269892463367268e-04
3.495143442410119405e+03 7.784185986710446814e-01 9.050251668228036749e-04
3.498638585852530468e+03 7.788257771016166009e-01 8.250298238540102044e-04
3.502137224438384237e+03 7.788846187459994574e-01 7.628257380334724051e-04
3.505639361662823831e+03 7.786572742329952446e-01 7.326416916518199316e-04
3.509145001024487556e+03 7.784929470480671521e-01 6.933689173794173105e-04
3.512654146025513455e+03 7.781017009480214464e-01 6.864694144259574082e-04
3.516166800171540217e+03 7.777747408121999939e-01 6.778071315661614998e-04
3.519682966971712631e+03 7.772562948644116121e-01 7.087145891978123297e-04
3.523202649938685681e+03 7.768622443363477625e-01 7.668984232917089913e-04
3.526725852588625457e+03 7.770153746418716478e-01 7.773892241913437327e-04
3.530252578441215064e+03 7.773623632073384249e-01 7.710834848344302970e-04
3.533782831019657806e+03 7.778235524113309429e-01 7.733210102230898353e-04
3.537316613850678550e+03 7.788599767181746403e-01 7.860484351829192346e-04
3.540853930464530094e+03 7.798073639057848672e-01 8.074866231980350065e-04
3.544394784394995895e+03 7.807775207141168794e-01 7.785450517981917741e-04
3.547939179179392340e+03 7.822147575496950500e-01 7.779777449169973441e-04
3.551487118358572843e+03 7.840104534155889482e-01 8.690095371839483794e-04
3.555038605476932389e+03 7.861591876968658799e-01 1.027642439352306758e-03
3.558593644082410719e+03 7.878490056610054637e-01 1.111843403181222946e-03
3.562152237726494150e+03 7.893664319009350283e-01 1.186794570829796322e-03
3.565714389964221937e+03 7.899625980890445653e-01 1.223814510572405903e-03
3.569280104354187188e+03 7.906418277889178947e-01 1.304733179890878864e-03
3.572849384458542772e+03 7.910552425965123868e-01 1.308287683873655613e-03
3.576422233843002232e+03 7.906200556892787334e-01 1.111120844305735298e-03
3.579998656076846601e+03 7.891881165004618337e-01 8.693892341765352937e-04
3.583578654732924406e+03 7.860138668311646981e-01 8.277306256919914279e-04
3.587162233387658489e+03 7.815147090220584403e-01 8.403686713100788977e-04
3.590749395621047370e+03 7.760121059418776390e-01 8.187919267763334391e-04
3.594340145016669794e+03 7.690434477704271021e-01 8.422143355181108907e-04
3.597934485161687462e+03 7.608601395923564326e-01 8.489943624604422449e-04
3.601532419646850485e+03 7.512510217279203539e-01 8.359723018084028526e-04
3.605133952066498296e+03 7.402788732466918376e-01 7.631078651715180426e-04
3.608739086018566013e+03 7.284415887496008546e-01 7.563779013884980480e-04
3.612347825104585809e+03 7.154601893667670298e-01 7.462828493638334112e-04
3.615960172929691907e+03 7.016638783796156353e-01 7.542012663946507213e-04
3.619576133102622407e+03 6.864895913402007110e-01 8.257637476288834724e-04
3.623195709235726554e+03 6.709768541375404904e-01 8.941900681742638709e-04
3.626818904944963379e+03 6.552917184277502471e-01 9.601614473567012279e-04
3.630445723849909427e+03 6.390896598422913799e-01 1.094373640565112936e-03
3.634076169573760581e+03 6.231972988942525715e-01 1.127760207887405211e-03
3.637710245743335690e+03 6.074268504765697463e-01 1.093405530072778841e-03
3.641347955989080219e+03 5.922945923794232792e-01 1.060540674578130341e-03
3.644989303945070333e+03 5.781045234095699703e-01 1.099425617914810693e-03
3.648634293249016537e+03 5.644821507809836270e-01 1.071660547994143006e-03
3.652282927542266862e+03 5.517696352532980297e-01 1.070296533991136126e-03
3.655935210469810499e+03 5.396240285560620631e-01 9.811952869185998002e-04
3.659591145680281443e+03 5.287737492725659294e-01 1.111723760637984681e-03
3.663250736825963031e+03 5.191922061669431709e-01 1.195605290154201639e-03
3.666913987562790226e+03 5.104637140323624589e-01 1.165693121619262819e-03
3.670580901550354156e+03 5.023808807543119759e-01 1.152296145424611942e-03
3.674251482451905758e+03 4.953796593309389706e-01 1.080733155505916041e-03
3.677925733934358959e+03 4.892172923550054953e-01 9.763989852007694476e-04
3.681603659668294313e+03 4.840050175052666992e-01 8.582323053129508163e-04
3.685285263327964003e+03 4.794655747579719685e-01 8.852577016884848483e-04
3.688970548591293209e+03 4.751815698451701819e-01 8.768465993831504532e-04
3.692659519139885560e+03 4.716426496088016451e-01 8.664913373779587358e-04
3.696352178659026777e+03 4.684643438038352259e-01 8.217732022286338301e-04
3.700048530837686940e+03 4.661654888051783852e-01 7.772733468806243594e-04
3.703748579368525952e+03 4.647686855633621494e-01 8.873183403970985334e-04
3.707452327947895355e+03 4.640246189420837442e-01 9.734392495320292509e-04
3.711159780275844696e+03 4.641037225769571450e-01 9.289117893629786652e-04
3.714870940056121526e+03 4.643184760981214354e-01 8.646507402259109593e-04
3.718585810996179134e+03 4.651512193175167953e-01 7.690337620311671384e-04
3.722304396807176545e+03 4.662427726206291312e-01 7.556758389784515220e-04
3.726026701203984885e+03 4.678734506434290563e-01 6.571905293660813396e-04
3.729752727905190113e+03 4.697500513945817024e-01 6.770100654026279998e-04
3.733482480633096657e+03 4.718811782431434620e-01 7.424139496645654462e-04
3.737215963113731050e+03 4.747991869226880768e-01 6.939208449889405772e-04
3.740953179076846027e+03 4.783382431369206933e-01 6.951217624354540060e-04
3.744694132255923705e+03 4.832053253172336471e-01 6.497649115141563040e-04
3.748438826388181042e+03 4.892019190553358321e-01 4.996544343711943788e-04
3.752187265214570289e+03 4.973263271264016239e-01 5.113448732061610805e-04
3.755939452479786269e+03 5.077382036247806152e-01 6.578582230983567262e-04
3.759695391932267285e+03 5.204823330720873553e-01 7.929904191586965032e-04
3.763455087324201031e+03 5.362591679267483258e-01 7.685974645108794006e-04
3.767218542411526414e+03 5.547107920128245828e-01 7.635155935930178217e-04
3.770985760953939007e+03 5.763217754290355099e-01 7.308302760195906685e-04
3.774756746714894234e+03 6.009946275001589733e-01 7.129862229601024006e-04
3.778531503461610555e+03 6.293420681286080454e-01 9.763099153718649698e-04
3.782310034965073100e+03 6.602394653207155351e-01 1.061801617596491113e-03
3.786092345000039586e+03 6.934855790002248943e-01 1.045406851800114627e-03
3.789878437345040766e+03 7.286863409434000127e-01 1.201712380199686800e-03
3.793668315782387253e+03 7.664163043738478898e-01 1.230442439815085387e-03
3.797461984098170888e+03 8.061686679445853043e-01 1.229406796514927094e-03
3.801259446082270188e+03 8.472291874852200255e-01 1.299869802433254330e-03
3.805060705528353537e+03 8.889834337695903255e-01 1.313477588132788525e-03
3.808865766233883278e+03 9.310991321981331170e-01 1.352877136985875276e-03
3.812674632000118436e+03 9.725218675379425637e-01 1.493090637387648823e-03
3.816487306632119726e+03 1.013551054261347950e+00 1.767892900598089017e-03
3.820303793938753188e+03 1.052829478441810185e+00 1.825728020386258857e-03
3.824124097732693372e+03 1.088881072915342418e+00 1.760628387036588518e-03
3.827948221830427428e+03 1.121718996270756996e+00 1.501705629167941801e-03
3.831776170052258749e+03 1.150399979071071943e+00 1.334264313739189078e-03
3.835607946222312421e+03 1.173718110216986021e+00 1.374214901167392132e-03
3.839443554168536139e+03 1.192098094228761118e+00 1.388473936924403823e-03
3.843282997722705659e+03 1.205045155304607318e+00 1.400574499020682765e-03
3.847126280720429804e+03 1.212755259918265827e+00 1.292298160860601199e-03
3.850973407001151372e+03 1.215403591098728420e+00 1.177737512403177278e-03
3.854824380408153957e+03 1.214496051180080860e+00 1.486092873236622824e-03
3.858679204788563311e+03 1.209498812023746872e+00 1.294127479039887353e-03
3.862537883993353262e+03 1.199877474959563317e+00 1.975363532383553854e-03
3.866400421877347981e+03 1.187270911256085526e+00 3.111614315904484389e-03
3.870266822299226533e+03 1.173555794359992355e+00 3.326207804032160157e-03
3.874137089121526969e+03 1.161435082159329335e+00 3.132439796313557945e-03
3.878011226210649966e+03 1.151436224958298338e+00 2.846291769196523675e-03
3.881889237436861549e+03 1.144078552389701908e+00 2.818432996775989928e-03
3.885771126674299921e+03 1.139169381456390795e+00 2.956507959300286922e-03
3.889656897800975457e+03 1.137340868872577015e+00 3.332564741298837518e-03
3.893546554698777527e+03 1.138063327854531348e+00 3.320220040005681088e-03
3.897440101253477678e+03 1.139644592019592784e+00 2.924095795086608784e-03
3.901337541354732366e+03 1.141963030905743359e+00 2.622825927354614610e-03
3.905238878896088409e+03 1.144542902755649960e+00 2.434250030953819584e-03
3.909144117774985716e+03 1.146682870739985427e+00 2.442811985806883635e-03
3.913053261892762293e+03 1.147214230745149832e+00 2.253618828169880097e-03
3.916966315154656058e+03 1.147643844497247212e+00 2.039509392552498433e-03
3.920883281469812118e+03 1.147629748265179828e+00 1.905171497361985789e-03
3.924804164751283224e+03 1.147475871999170449e+00 2.006747572902949604e-03
3.928728968916035683e+03 1.147970424773462339e+00 1.667859373320237622e-03
3.932657697884953450e+03 1.147451276969964074e+00 1.311209874543061479e-03
3.936590355582839493e+03 1.145053908478997462e+00 2.033946797684311417e-03
3.940526945938423523e+03 1.142286559343866248e+00 2.080563224781231506e-03
3.944467472884363360e+03 1.139739341008462414e+00 1.888558682816506712e-03
3.948411940357249023e+03 1.137302754767298252e+00 1.841951678507096736e-03
3.952360352297607733e+03 1.134726887742964374e+00 2.053785456064191866e-03
3.956312712649906643e+03 1.131640486817564906e+00 2.395219364613394245e-03
3.960269025362557841e+03 1.127236046967615257e+00 2.462152235216705926e-03
3.964229294387921527e+03 1.121633815597614214e+00 2.121259563666572957e-03
3.968193523682310570e+03 1.114152200044739915e+00 1.794461586517256653e-03
3.972161717205994591e+03 1.103761347264774928e+00 2.018796655554193614e-03
3.976133878923201792e+03 1.091788604234396054e+00 2.148204252589157402e-03
3.980110012802126221e+03 1.078162193363235266e+00 2.089012828877869453e-03
3.984090122814929600e+03 1.062772162205111393e+00 1.880855246703594255e-03
3.988074212937745870e+03 1.046434333853277776e+00 1.668982721560860819e-03
3.992062287150684824e+03 1.029811441507525016e+00 1.737974444097607199e-03
3.996054349437837118e+03 1.012909980557641143e+00 1.731974863664770617e-03
4.000050403787276082e+03 9.966410924304184293e-01 1.515203410538380974e-03
4.004050454191064546e+03 9.807220330058707969e-01 1.264324685173806410e-03
4.008054504645257111e+03 9.644422002873507260e-01 1.646014294089136838e-03
4.012062559149903791e+03 9.487425103565406692e-01 1.622495587964543646e-03
4.016074621709055009e+03 9.348906594060122366e-01 1.470080834114529961e-03
4.020090696330765240e+03 9.231540886642136678e-01 1.183995643825484431e-03
4.024110787027097558e+03 9.139687638579317985e-01 8.474052328913299955e-04
4.028134897814125907e+03 9.080669857270968759e-01 9.717117230837090053e-04
4.032163032711941469e+03 9.052577303557901578e-01 1.225010138218063632e-03
4.036195195744654484e+03 9.043183153463010271e-01 1.201037397057392242e-03
4.040231390940400615e+03 9.046955880134995853e-01 1.016364652823898308e-03
4.044271622331342314e+03 9.057976079013566606e-01 7.923920136445719619e-04
4.048315893953675186e+03 9.059143158670623919e-01 7.049274372049429797e-04
4.052364209847629809e+03 9.053262024082796566e-01 6.160696150678563604e-04
4.056416574057479011e+03 9.036335407057320968e-01 5.274068932183610496e-04
4.060472990631537868e+03 9.000827188654585420e-01 5.460443467708273090e-04
4.064533463622170530e+03 8.954690407986818368e-01 5.551214207279390328e-04
4.068597997085794304e+03 8.889929908609874865e-01 6.190741375858495625e-04
4.072666595082881486e+03 8.808119480982430360e-01 6.607112878195750549e-04
4.076739261677965715e+03 8.720488422048021659e-01 6.532303177740942345e-04
4.080816000939644709e+03 8.623221115302388551e-01 8.383716195688720911e-04
4.084896816940585722e+03 8.520199740837998137e-01 9.463853642864498549e-04
4.088981713757527814e+03 8.427158380739591115e-01 9.218511926950063344e-04
4.093070695471286854e+03 8.342821862896115936e-01 8.686506921971682898e-04
4.097163766166759160e+03 8.268239272446405996e-01 8.135698277877353741e-04
4.101260929932927866e+03 8.203316413971836196e-01 7.574253925054545093e-04
4.105362190862862008e+03 8.155158087994591742e-01 8.928421204865192272e-04
4.109467553053726078e+03 8.118120008984465175e-01 9.485615269650550345e-04
4.113577020606780934e+03 8.086767775562591076e-01 9.813622384329718801e-04
4.117690597627389252e+03 8.060435325722844491e-01 8.963542213504962315e-04
4.121808288225018259e+03 8.039054497755629969e-01 6.307997951465089959e-04
4.125930096513244280e+03 8.012097740633756793e-01 5.922889525196990256e-04
4.130056026609759101e+03 7.980994584889041787e-01 7.994452048703389827e-04
4.134186082636369974e+03 7.949600671388717954e-01 9.316030282342080806e-04
4.138320268719007800e+03 7.919947104136068061e-01 8.721249140378236741e-04
4.142458588987728035e+03 7.900306583813547778e-01 8.378945632518023474e-04
4.146601047576717065e+03 7.883165510556030542e-01 6.703655829253087409e-04
4.150747648624294925e+03 7.877256302596825632e-01 6.968149297776032435e-04
4.154898396272920763e+03 7.881303672918967829e-01 6.752021628987634524e-04
4.159053294669195566e+03 7.885398936163142691e-01 6.738998748472049263e-04
4.163212347963865795e+03 7.892541770271036539e-01 6.685908271154472528e-04
4.167375560311830668e+03 7.907639115333605639e-01 7.139989846668661410e-04
4.171542935872143971e+03 7.920009144919141209e-01 6.721197466052658857e-04
4.175714478808017702e+03 7.926581919215309746e-01 6.307768027893715388e-04
4.179890193286827525e+03 7.920759654474723854e-01 6.266613285791513372e-04
4.184070083480115500e+03 7.905718278153930356e-01 6.013683773556742886e-04
4.188254153563597356e+03 7.877759708382610082e-01 6.092076748456991351e-04
4.192442407717161586e+03 7.838946735917193820e-01 6.079446397138856158e-04
4.196634850124880359e+03 7.788688645321384385e-01 6.148179551545015315e-04
4.200831484975006788e+03 7.728990300661667812e-01 5.675509143553475119e-04
4.205032316459983122e+03 7.657513905858105430e-01 6.051777242878449061e-04
4.209237348776444378e+03 7.573540306367082531e-01 6.850061459773088479e-04
4.213446586125221984e+03 7.485452989542037416e-01 6.992928609897103125e-04
4.217660032711349231e+03 7.397085512673695629e-01 6.074966083813048735e-04
4.221877692744061278e+03 7.314350251644233802e-01 6.704175500835159304e-04
4.226099570436806971e+03 7.233121450257277152e-01 7.598964297323511884e-04
4.230325670007245208e+03 7.157893189132098488e-01 7.126915871433776428e-04
4.234555995677254032e+03 7.083616867634460190e-01 7.054600662953979754e-04
4.238790551672932452e+03 7.014600250943578974e-01 7.028292565977098524e-04
4.243029342224606808e+03 6.951964698447943292e-01 7.653783797045798877e-04
4.247272371566832589e+03 6.904243060708803448e-01 8.155889209039082636e-04
4.251519643938400804e+03 6.869600362435618335e-01 8.352236963064367265e-04
4.255771163582340705e+03 6.850306130028565033e-01 8.747835267780163524e-04
4.260026934745924336e+03 6.847030006600365315e-01 8.063869809543718504e-04
4.264286961680671993e+03 6.863390303578544849e-01 7.038798744753949023e-04
4.268551248642354039e+03 6.899741356450961316e-01 8.028878969404771443e-04
4.272819799890998183e+03 6.955903216996348615e-01 9.764604451457255772e-04
4.277092619690890388e+03 7.026605405088649503e-01 9.496843650165236357e-04
4.281369712310583054e+03 7.106365335015434326e-01 7.264773301982124180e-04
4.285651082022895025e+03 7.192870490426175323e-01 5.069896210939357295e-04
4.289936733104918858e+03 7.278031328290985869e-01 4.190544725331066408e-04
4.294226669838025373e+03 7.358418897980938400e-01 4.967537167766317065e-04
4.298520896507864563e+03 7.438565117147859507e-01 5.320751401866292496e-04
4.302819417404373780e+03 7.522824943237154116e-01 5.385119903918239798e-04
4.307122236821779552e+03 7.606390141704533203e-01 7.417474238056042833e-04
4.311429359058603040e+03 7.696375376582625938e-01 7.579984753112332593e-04
4.315740788417662770e+03 7.795403371368735401e-01 5.863092785254506688e-04
4.320056529206081905e+03 7.910634233178631680e-01 5.922635351129280261e-04
4.324376585735290064e+03 8.035828026670086555e-01 5.384892953864604771e-04
4.328700962321026054e+03 8.180814839583849807e-01 6.123915946378739872e-04
4.333029663283348782e+03 8.343719862361906880e-01 7.434786820249202630e-04
4.337362692946633615e+03 8.516120360949205326e-01 7.379262081364698330e-04
4.341700055639581478e+03 8.704285670940870023e-01 7.729163316215445804e-04
4.346041755695222491e+03 8.910650429708619757e-01 8.438502757403037926e-04
4.350387797450919606e+03 9.136474309454464260e-01 9.349244394695836171e-04
4.354738185248371337e+03 9.381448415457461776e-01 1.066610528695232079e-03
4.359092923433621763e+03 9.646738341221303692e-01 1.119086809432156757e-03
4.363452016357056891e+03 9.937582845671141252e-01 8.707262777137618698e-04
4.367815468373414660e+03 1.025923717966950699e+00 9.334939325262547579e-04
4.372183283841789489e+03 1.060084300682182290e+00 1.085550617340053656e-03
4.376555467125633186e+03 1.095613955782177129e+00 1.342108098571594089e-03
4.380932022592760404e+03 1.132144745149632703e+00 1.557132896137793879e-03
4.385312954615354101e+03 1.168181872939744181e+00 1.325430783538955994e-03
4.389698267569970994e+03 1.202196889878845543e+00 1.169303630819026581e-03
4.394087965837542470e+03 1.233920707057849286e+00 9.289546946424174362e-04
4.398482053803381859e+03 1.262230093417912036e+00 7.546417505038938546e-04
4.402880535857186260e+03 1.286852137254974826e+00 6.957406754089060256e-04
4.407283416393044718e+03 1.306855747152601666e+00 6.433939258942473647e-04
4.411690699809440048e+03 1.323047449246432139e+00 6.893050096385509992e-04
4.416102390509250654e+03 1.334857276004158155e+00 7.167766060587401093e-04
4.420518492899761441e+03 1.341982787025435719e+00 1.054739007416935622e-03
4.424939011392662906e+03 1.346124249551125418e+00 1.378438007526280222e-03
4.429363950404056595e+03 1.348085872327306145e+00 1.565432614951721554e-03
4.433793314354462382e+03 1.348591201127372408e+00 1.634466729105726098e-03
4.438227107668818462e+03 1.347913559397710070e+00 1.567193416599868463e-03
4.442665334776488635e+03 1.346765811513992661e+00 1.229200751962631006e-03
4.447108000111265937e+03 1.346100851604250526e+00 1.236670208989365570e-03
4.451555108111379013e+03 1.345742583551167604e+00 1.555116016154971725e-03
4.456006663219492111e+03 1.345091193299679189e+00 1.989604051406215508e-03
4.460462669882713271e+03 1.343707800294731580e+00 2.112038759755330807e-03
4.464923132552597053e+03 1.340569634347391181e+00 1.629248387671975926e-03
4.469388055685150903e+03 1.334828069296767561e+00 1.243179171906043943e-03
4.473857443740837880e+03 1.326505172911477626e+00 1.121420984520189257e-03
4.478331301184580298e+03 1.315245933849401361e+00 1.373245391811378632e-03
4.482809632485766087e+03 1.301550280932548986e+00 1.288086944026324912e-03
4.487292442118253348e+03 1.286367580059752713e+00 1.086800724763127514e-03
4.491779734560373072e+03 1.269873111176638369e+00 8.622177678985580834e-04
4.496271514294934605e+03 1.253073936921986764e+00 8.641184000563250723e-04
4.500767785809231100e+03 1.236049612407003506e+00 9.300024997205683965e-04
