# starting wavelength: 3159.700
# ending wavelength: 8314.830
# wav flux eflux
3.162694593533074112e+03 1.050424351676699564e+00 1.147285480183220380e-01
3.165857288126608182e+03 1.019696204572580367e+00 8.514118681850757486e-02
3.169023145414736064e+03 9.588375971052444102e-01 6.454519046595566523e-02
3.172192168560151458e+03 8.877067379148515514e-01 4.830402485320556966e-02
3.175364360728712654e+03 8.117872364024909526e-01 3.775082940757514688e-02
3.178539725089442527e+03 7.222176640290216554e-01 3.039359926464041059e-02
3.181718264814533086e+03 6.348511057301402527e-01 2.427194382374016010e-02
3.184899983079348658e+03 5.496873644472977105e-01 1.970609543374820388e-02
3.188084883062429071e+03 4.671809949014003593e-01 1.843448632459681116e-02
3.191272967945492383e+03 3.948512942948305682e-01 1.825692553740280652e-02
3.194464240913438971e+03 3.341085436211500559e-01 1.804286228900810543e-02
3.197658705154353811e+03 2.815949883204841298e-01 1.622463702188066403e-02
3.200856363859509202e+03 2.348436517270486856e-01 1.459983586909804204e-02
3.204057220223369768e+03 1.955952412874353841e-01 1.342243130700357043e-02
3.207261277443593826e+03 1.651337033616352701e-01 1.265776593085036344e-02
3.210468538721038840e+03 1.442288786801935729e-01 1.254713422477359529e-02
3.213679007259760965e+03 1.292877121491433079e-01 1.241880189220560295e-02
3.216892686267021418e+03 1.165937495538199031e-01 1.195900004621952561e-02
3.220109578953289656e+03 1.090924913319402112e-01 1.159004529136010812e-02
3.223329688532243836e+03 1.060053036424097872e-01 1.149237692609579760e-02
3.226553018220777176e+03 1.073450225581136230e-01 1.216162278268283735e-02
3.229779571238999324e+03 1.154621061502305313e-01 1.233172942753388637e-02
3.233009350810239084e+03 1.292274027610282872e-01 1.252239457345878139e-02
3.236242360161050783e+03 1.479872609703963005e-01 1.259723496993768975e-02
3.239478602521212906e+03 1.700545266909720965e-01 1.234406307048144073e-02
3.242718081123734919e+03 2.030739690202781611e-01 1.323496044108156931e-02
3.245960799204859995e+03 2.339273628933875304e-01 1.350666830490368335e-02
3.249206760004065927e+03 2.656895369446257704e-01 1.397985521245440066e-02
3.252455966764071036e+03 2.921566889750345508e-01 1.417942852716975663e-02
3.255708422730835991e+03 3.227098331021235889e-01 1.492743863926368660e-02
3.258964131153567905e+03 3.553345758360547668e-01 1.655218897270937725e-02
3.262223095284722604e+03 3.847098561459957322e-01 1.777615437579177851e-02
3.265485318380008266e+03 4.117211900513979561e-01 1.847720610176773609e-02
3.268750803698389518e+03 4.316490803835416612e-01 1.776781077674016718e-02
3.272019554502088795e+03 4.422996322161675264e-01 1.638854552629175412e-02
3.275291574056592253e+03 4.442603224771388137e-01 1.643525055212723476e-02
3.278566865630649772e+03 4.395262162168609432e-01 1.580715730597688842e-02
3.281845432496281319e+03 4.299447961019433606e-01 1.462646432762357979e-02
3.285127277928778767e+03 4.097260780964216975e-01 1.453623859891031191e-02
3.288412405206708627e+03 3.762050585291198956e-01 1.568200546192247483e-02
3.291700817611916591e+03 3.325740331796846472e-01 1.707511143224369615e-02
3.294992518429529355e+03 2.835781302148695504e-01 1.844280624417793391e-02
3.298287510947960072e+03 2.278057385589286332e-01 1.800823713465353124e-02
3.301585798458909267e+03 1.715708210832644076e-01 1.652504051073587499e-02
3.304887384257369376e+03 1.220852014004916997e-01 1.602875234724440365e-02
3.308192271641627485e+03 6.981816542718463636e-02 1.525740497127153761e-02
3.311500463913270323e+03 2.280492796563968194e-02 1.370055811100245879e-02
3.314811964377184722e+03 -1.944149072534828715e-02 1.094368937927571277e-02
3.318126776341563072e+03 -5.150706529169915560e-02 1.030958705119767484e-02
3.321444903117905596e+03 -7.297403317976006165e-02 1.105257340913761918e-02
3.324766348021024896e+03 -8.596517004328721456e-02 1.076705673509849651e-02
3.328091114369046863e+03 -8.817302188957448772e-02 1.028217533407685923e-02
3.331419205483417045e+03 -8.561073553854436913e-02 9.528650982928101379e-03
3.334750624688901553e+03 -7.766566440424768625e-02 9.362879728358074541e-03
3.338085375313591612e+03 -6.740738029346209081e-02 9.416401380132572579e-03
3.341423460688906289e+03 -4.571654052709528404e-02 9.400637330886130877e-03
3.344764884149596128e+03 -1.996950730137464491e-02 9.676226602148164241e-03
3.348109649033746791e+03 8.399867636979543861e-03 9.749422970940351332e-03
3.351457758682781787e+03 4.142069650570485984e-02 1.005008694922997735e-02
3.354809216441465651e+03 7.786027829072469930e-02 9.413463384170792786e-03
3.358164025657908041e+03 1.086608556339372089e-01 9.731721936614212004e-03
3.361522189683567376e+03 1.403372611828863081e-01 9.728395495615807867e-03
3.364883711873251741e+03 1.730481140755964764e-01 1.022507311863003233e-02
3.368248595585126168e+03 2.087998894126546490e-01 1.221782150949356563e-02
3.371616844180712633e+03 2.376204009351041146e-01 1.285226512666749928e-02
3.374988461024894150e+03 2.570155698781275699e-01 1.206115502653833105e-02
3.378363449485920228e+03 2.631201457335879401e-01 1.254764568509652949e-02
3.381741812935407324e+03 2.620296615767694348e-01 1.278637797036238574e-02
3.385123554748343849e+03 2.576575466425750083e-01 1.287128223224023177e-02
3.388508678303093347e+03 2.457427632200159529e-01 1.467366027943168422e-02
3.391897186981397681e+03 2.302167067303287906e-01 1.582400072840985800e-02
3.395289084168380214e+03 2.083603611658994270e-01 1.663122130282846528e-02
3.398684373252549449e+03 1.853038481422254191e-01 1.622636200926645678e-02
3.402083057625803121e+03 1.616491603189380288e-01 1.517960154146653397e-02
3.405485140683430018e+03 1.403621428969371587e-01 1.376870247965944656e-02
3.408890625824114522e+03 1.229082836061002604e-01 1.324288213293102479e-02
3.412299516449939802e+03 1.028115500041395652e-01 1.266696399878111494e-02
3.415711815966390986e+03 9.236851284947675267e-02 1.336875414438941367e-02
3.419127527782358356e+03 8.546233075498854692e-02 1.344062711811156233e-02
3.422546655310141887e+03 8.319914803521510915e-02 1.314132824998679415e-02
3.425969201965453522e+03 8.451056149156421782e-02 1.329169221233732386e-02
3.429395171167419903e+03 9.564152841412609796e-02 1.344535330384031245e-02
3.432824566338588284e+03 1.107074502463651494e-01 1.326198408412613931e-02
3.436257390904928343e+03 1.279686854822472131e-01 1.340105715035022280e-02
3.439693648295834464e+03 1.459640277218343385e-01 1.425288621700759525e-02
3.443133341944131189e+03 1.755570113415841904e-01 1.416260926440794828e-02
3.446576475286076402e+03 2.086306138368196617e-01 1.437671047105086412e-02
3.450023051761363604e+03 2.429030876892908086e-01 1.479938673279341393e-02
3.453473074813126004e+03 2.779099130998570755e-01 1.549401855789656057e-02
3.456926547887940615e+03 3.110147928676184614e-01 1.629564294890141832e-02
3.460383474435829612e+03 3.415632243547550573e-01 1.705813522911305696e-02
3.463843857910266706e+03 3.696339442001790321e-01 1.718102697657945474e-02
3.467307701768178049e+03 4.046445164288548502e-01 1.544210433450435294e-02
3.470775009469947236e+03 4.275740824359600678e-01 1.338565351814341615e-02
3.474245784479418489e+03 4.400062639755538685e-01 1.271729846869061424e-02
3.477720030263898934e+03 4.469050991409772022e-01 1.311139249358149982e-02
3.481197750294164052e+03 4.380317354755525194e-01 1.516737414648467244e-02
3.484678948044459503e+03 4.207642910624866950e-01 1.543782652717291294e-02
3.488163626992504760e+03 4.014210940912736891e-01 1.476506626914361048e-02
3.491651790619498570e+03 3.748646339937619643e-01 1.268141654435377998e-02
3.495143442410119405e+03 3.466589680130552908e-01 1.119705007046032340e-02
3.498638585852530468e+03 3.162918331492141077e-01 1.010987329104654983e-02
3.502137224438384237e+03 2.904191059569298794e-01 1.065459608715930810e-02
3.505639361662823831e+03 2.657772905588150492e-01 1.055162144511226710e-02
3.509145001024487556e+03 2.392573370105500197e-01 1.038469155369676523e-02
3.512654146025513455e+03 2.130788883946607426e-01 1.047388655754374551e-02
3.516166800171540217e+03 1.900842022625292005e-01 1.094939982484743543e-02
3.519682966971712631e+03 1.706312009386850570e-01 1.078029366202785423e-02
3.523202649938685681e+03 1.570929200336615983e-01 9.546503064731488852e-03
3.526725852588625457e+03 1.426433544700378420e-01 9.418474027224505232e-03
3.530252578441215064e+03 1.200072445736460880e-01 7.650056745913890247e-03
3.533782831019657806e+03 1.084072272889550215e-01 7.958079993166073535e-03
3.537316613850678550e+03 9.934160934225513828e-02 8.540800836568593346e-03
3.540853930464530094e+03 9.384070140695448259e-02 9.963306817459395212e-03
3.544394784394995895e+03 8.332990539816398368e-02 1.019580684194004716e-02
3.547939179179392340e+03 7.361443785515628391e-02 1.177683705375122229e-02
3.551487118358572843e+03 7.390226169881913831e-02 1.167663508246162204e-02
3.555038605476932389e+03 8.004693611631960581e-02 1.097455208821943896e-02
3.558593644082410719e+03 8.335873045372525769e-02 1.122752620465792238e-02
3.562152237726494150e+03 9.273258932558769985e-02 1.139117785798355806e-02
3.565714389964221937e+03 1.000110826171793921e-01 1.179406845436115937e-02
3.569280104354187188e+03 1.090696786699285603e-01 1.214792898956384634e-02
3.572849384458542772e+03 1.188391473974159673e-01 1.258014340657223444e-02
3.576422233843002232e+03 1.300252655693210913e-01 1.265405247670630361e-02
3.579998656076846601e+03 1.398949359223369826e-01 1.290592119354799089e-02
3.583578654732924406e+03 1.466428009434953550e-01 1.291330722281341416e-02
3.587162233387658489e+03 1.549404451488158030e-01 1.245993717072011592e-02
3.590749395621047370e+03 1.615734121727007699e-01 1.244645651408945314e-02
3.594340145016669794e+03 1.624194587471136930e-01 1.252160934054805629e-02
3.597934485161687462e+03 1.613048287354798827e-01 1.258266849503807301e-02
3.601532419646850485e+03 1.633692968220626929e-01 1.232230787649986337e-02
3.605133952066498296e+03 1.650821354774069938e-01 1.219073802251468934e-02
3.608739086018566013e+03 1.647516147488336524e-01 1.187618739315752028e-02
3.612347825104585809e+03 1.646368350970616734e-01 1.175493998631525240e-02
3.615960172929691907e+03 1.685032656310961052e-01 1.138892629483992565e-02
3.619576133102622407e+03 1.770449418703277655e-01 1.066011855218205323e-02
3.623195709235726554e+03 1.882226084652901810e-01 8.017156198141537141e-03
3.626818904944963379e+03 1.874527119680730880e-01 9.249295945234006777e-03
3.630445723849909427e+03 1.863065977943345886e-01 8.941011937280321509e-03
3.634076169573760581e+03 1.900367429491286453e-01 8.701393649575296305e-03
3.637710245743335690e+03 1.906173044405202743e-01 7.992885676703864739e-03
3.641347955989080219e+03 1.978291966504119315e-01 1.084959944898241171e-02
3.644989303945070333e+03 2.010809056556580043e-01 1.110596133597722447e-02
3.648634293249016537e+03 1.932736446290494181e-01 1.068246298020015736e-02
3.652282927542266862e+03 1.809928273117093478e-01 1.103420083937375895e-02
3.655935210469810499e+03 1.632800998729719844e-01 1.201608480984118002e-02
3.659591145680281443e+03 1.439209961883503031e-01 1.223259884623108251e-02
3.663250736825963031e+03 1.243342491919310483e-01 1.208863069355787731e-02
3.666913987562790226e+03 1.042640921157115541e-01 1.200851415147559907e-02
3.670580901550354156e+03 8.294438286628674772e-02 1.142921026186901820e-02
3.674251482451905758e+03 6.309163297260153569e-02 9.666003802731764141e-03
3.677925733934358959e+03 5.663530714576158615e-02 1.097773468599435275e-02
3.681603659668294313e+03 5.467739752397343667e-02 1.108783471900104747e-02
3.685285263327964003e+03 5.748355240368149821e-02 1.081870766410250075e-02
3.688970548591293209e+03 6.411236921300937641e-02 9.883127838042630314e-03
3.692659519139885560e+03 7.244589212619219343e-02 9.698772743261986282e-03
3.696352178659026777e+03 8.520564944131910068e-02 9.537988442902028269e-03
3.700048530837686940e+03 9.264568393574394711e-02 9.751098431397446989e-03
3.703748579368525952e+03 1.066862960854745856e-01 8.170312086098377446e-03
3.707452327947895355e+03 1.306818241120950574e-01 7.056155760923469786e-03
3.711159780275844696e+03 1.637282831533333760e-01 7.973443215704714704e-03
3.714870940056121526e+03 2.062306926892763237e-01 7.746529238794180004e-03
3.718585810996179134e+03 2.536303084000382513e-01 9.427149278444572206e-03
3.722304396807176545e+03 2.912012432494230363e-01 9.399086538726460216e-03
3.726026701203984885e+03 3.239381432813879247e-01 8.832894532461598239e-03
3.729752727905190113e+03 3.499996563887943779e-01 8.693570228907609304e-03
3.733482480633096657e+03 3.710576513749240801e-01 8.297966826088286688e-03
3.737215963113731050e+03 3.837045179062717470e-01 8.159932279672085786e-03
3.740953179076846027e+03 3.830310039106842868e-01 8.490265396498703973e-03
3.744694132255923705e+03 3.758331669651924223e-01 7.186892369235848774e-03
3.748438826388181042e+03 3.674831679541096796e-01 7.163172929972318539e-03
3.752187265214570289e+03 3.524589747806551321e-01 6.670775229108858069e-03
3.755939452479786269e+03 3.385652809900056015e-01 6.855282803361784083e-03
3.759695391932267285e+03 3.212932600869933819e-01 7.503436829889425022e-03
3.763455087324201031e+03 3.064559783934189263e-01 7.928074393754263802e-03
3.767218542411526414e+03 2.970297627401529694e-01 8.034136663079867804e-03
3.770985760953939007e+03 2.867115172271901269e-01 8.111781464437294378e-03
3.774756746714894234e+03 2.840138656504390680e-01 7.338684205076694174e-03
3.778531503461610555e+03 2.862665078763503845e-01 6.456542506087454940e-03
3.782310034965073100e+03 2.992861196334947738e-01 8.326515952318225625e-03
3.786092345000039586e+03 3.139048481611492747e-01 9.188291042455642640e-03
3.789878437345040766e+03 3.390639684212758409e-01 1.139118739183697139e-02
3.793668315782387253e+03 3.484392752385643277e-01 1.098805737638059582e-02
3.797461984098170888e+03 3.552418585142226304e-01 1.055410316094600003e-02
3.801259446082270188e+03 3.564747789412786583e-01 1.042400029010171966e-02
3.805060705528353537e+03 3.492619968881747194e-01 1.013617341860197432e-02
3.808865766233883278e+03 3.315033024374007820e-01 1.107687741092499428e-02
3.812674632000118436e+03 3.057973685544819187e-01 1.038900972133387918e-02
3.816487306632119726e+03 2.793763408041767815e-01 9.885749807904339881e-03
3.820303793938753188e+03 2.518824516043239314e-01 9.591090133897773110e-03
3.824124097732693372e+03 2.272462034676897835e-01 9.233546459316366653e-03
3.827948221830427428e+03 2.082034088095149893e-01 9.846177516967495949e-03
3.831776170052258749e+03 1.944466194749612520e-01 9.984490086884491300e-03
3.835607946222312421e+03 1.931749203092456013e-01 1.044601616353167672e-02
3.839443554168536139e+03 2.060903738238958338e-01 1.035807956342162800e-02
3.843282997722705659e+03 2.302079967493433355e-01 1.088614737821153727e-02
3.847126280720429804e+03 2.632068036133152766e-01 1.130061672732752057e-02
3.850973407001151372e+03 2.999921931333451308e-01 1.144867940570920735e-02
3.854824380408153957e+03 3.459111592271765234e-01 1.196944888188555128e-02
3.858679204788563311e+03 3.918913554704943625e-01 1.275980201172282301e-02
3.862537883993353262e+03 4.357824546674671229e-01 7.937044967951696964e-03
3.866400421877347981e+03 4.587685007535700632e-01 7.864227972430821306e-03
3.870266822299226533e+03 4.771107748280987715e-01 7.070179425251396817e-03
3.874137089121526969e+03 4.811189878160120337e-01 6.579396107925703473e-03
3.878011226210649966e+03 4.691043580697637494e-01 6.928779173931532732e-03
3.881889237436861549e+03 4.445697260118089411e-01 5.579099331012469729e-03
3.885771126674299921e+03 4.114663223210691112e-01 5.107764139993122877e-03
3.889656897800975457e+03 3.694038743250776524e-01 7.315076025720876167e-03
3.893546554698777527e+03 3.258700320235830561e-01 9.000419254097960509e-03
3.897440101253477678e+03 2.893005015376977074e-01 9.214236023183022123e-03
3.901337541354732366e+03 2.559661982567922878e-01 8.771802935804290380e-03
3.905238878896088409e+03 2.323774828506379730e-01 7.913533064216538709e-03
3.909144117774985716e+03 2.178223024294172472e-01 6.946644275015246769e-03
3.913053261892762293e+03 2.237776973644233225e-01 8.286904267707999316e-03
3.916966315154656058e+03 2.445566496853785465e-01 1.087166479783721433e-02
3.920883281469812118e+03 2.704320371120418343e-01 1.218933947726422509e-02
3.924804164751283224e+03 2.977804621506578431e-01 1.197313858472475769e-02
3.928728968916035683e+03 3.295000253384164357e-01 1.052899112621334850e-02
3.932657697884953450e+03 3.607132187434338721e-01 8.496215874140611996e-03
3.936590355582839493e+03 3.844546927026475935e-01 8.415030613578440219e-03
3.940526945938423523e+03 4.024175888908899656e-01 8.403810300349196308e-03
3.944467472884363360e+03 4.161625386661394477e-01 8.383978130684633517e-03
3.948411940357249023e+03 4.200972357711270089e-01 7.591528518569844348e-03
3.952360352297607733e+03 4.195452876543988019e-01 7.777818257932585591e-03
3.956312712649906643e+03 4.225849775465457814e-01 8.027360769639928922e-03
3.960269025362557841e+03 4.257729953481206864e-01 9.170126046659583113e-03
3.964229294387921527e+03 4.309850183946184465e-01 8.305366391558618652e-03
3.968193523682310570e+03 4.468365527571752649e-01 8.702642235307055107e-03
3.972161717205994591e+03 4.704932319305344390e-01 9.299504199510137681e-03
3.976133878923201792e+03 4.934798564935025111e-01 9.222304301579114724e-03
3.980110012802126221e+03 5.187042434595677820e-01 9.330374163485144479e-03
3.984090122814929600e+03 5.450566593252518244e-01 8.477387324183774733e-03
3.988074212937745870e+03 5.812622605323006786e-01 8.691619283521906728e-03
3.992062287150684824e+03 6.195995908133737906e-01 8.168709729412892626e-03
3.996054349437837118e+03 6.542390444403474170e-01 7.557496356544848685e-03
4.000050403787276082e+03 6.791995653453863913e-01 7.761588596353004993e-03
4.004050454191064546e+03 7.012347798413006705e-01 7.909048606606383300e-03
4.008054504645257111e+03 7.131367132830611633e-01 7.917139120235398148e-03
4.012062559149903791e+03 7.183856552528586903e-01 7.735701292274414949e-03
4.016074621709055009e+03 7.192920403962165254e-01 7.932791331834587387e-03
4.020090696330765240e+03 7.114276774399365122e-01 8.029162647829152580e-03
4.024110787027097558e+03 6.962854913982918781e-01 8.907080807010700832e-03
4.028134897814125907e+03 6.768395650718600498e-01 8.675901188615182252e-03
4.032163032711941469e+03 6.563879764100608583e-01 9.698029116521799525e-03
4.036195195744654484e+03 6.253459160170233844e-01 9.145915879715704050e-03
4.040231390940400615e+03 5.938467074223636732e-01 9.209985635977552265e-03
4.044271622331342314e+03 5.656546797240533664e-01 8.198563356197986762e-03
4.048315893953675186e+03 5.350588845478151390e-01 9.415537947211833139e-03
4.052364209847629809e+03 5.049109800739211007e-01 1.111921558148926993e-02
4.056416574057479011e+03 4.816321560729793227e-01 1.172102824730584386e-02
4.060472990631537868e+03 4.704429971908219432e-01 1.135732750676678865e-02
4.064533463622170530e+03 4.784374361287041522e-01 1.050288554329323679e-02
4.068597997085794304e+03 5.034025604522842645e-01 1.088961296558604332e-02
4.072666595082881486e+03 5.429401378023065439e-01 1.269025180538132201e-02
4.076739261677965715e+03 5.892157562243255375e-01 1.323097763552450248e-02
4.080816000939644709e+03 6.467890079827709471e-01 1.248386260881222815e-02
4.084896816940585722e+03 7.069552215772640924e-01 1.260718759921109280e-02
4.088981713757527814e+03 7.667556327657449877e-01 1.035440166844364511e-02
4.093070695471286854e+03 8.161605312210122865e-01 6.300737403055594807e-03
4.097163766166759160e+03 8.432956723744609029e-01 7.164516831077565387e-03
4.101260929932927866e+03 8.549904525793684540e-01 6.719642689962514702e-03
4.105362190862862008e+03 8.528790598400237677e-01 6.840252748369155499e-03
4.109467553053726078e+03 8.342726993884458375e-01 6.950033892291045297e-03
4.113577020606780934e+03 7.971484591235142858e-01 7.040808292839192961e-03
4.117690597627389252e+03 7.528581795502532481e-01 7.267101298021783236e-03
