# starting wavelength: 3109.580
# ending wavelength: 8133.980
# wav flux eflux
3.112519037952201415e+03 1.936239307536390952e-01 4.514867923520645906e-03
3.115631556990154877e+03 1.999388727671138621e-01 3.305061602221126028e-03
3.118747188547145925e+03 2.056474246404995099e-01 2.445802097776239321e-03
3.121865935735694165e+03 2.104463688249509079e-01 1.946696513255684845e-03
3.124987801671431043e+03 2.150866560552723294e-01 1.492104813166339125e-03
3.128112789473103476e+03 2.193694216067836322e-01 1.170550249136091984e-03
3.131240902262577492e+03 2.232058354585686466e-01 9.377168096297348963e-04
3.134372143164840963e+03 2.267362635461588338e-01 7.836394305543824398e-04
3.137506515308006783e+03 2.300863046806025103e-01 6.609651994018539813e-04
3.140644021823316052e+03 2.330747466475002194e-01 6.524023297321268622e-04
3.143784665845140353e+03 2.357685230169517809e-01 5.651336288535837877e-04
3.146928450510986750e+03 2.385730638311574781e-01 6.905220683500410675e-04
3.150075378961498700e+03 2.410099529358542547e-01 6.221677956646946882e-04
3.153225454340461056e+03 2.436468278093580631e-01 6.836161525288475798e-04
3.156378679794802792e+03 2.462660485420456458e-01 8.007267146147590544e-04
3.159535058474598372e+03 2.485087883725600744e-01 8.414004361829459508e-04
3.162694593533074112e+03 2.503934137946225436e-01 8.781885770913658122e-04
3.165857288126608182e+03 2.516211937415404054e-01 8.588850422908784685e-04
3.169023145414736064e+03 2.521850432751188142e-01 8.352273459619357666e-04
3.172192168560151458e+03 2.523852159349128654e-01 8.536139397111161325e-04
3.175364360728712654e+03 2.521078418514389741e-01 9.119208179352006729e-04
3.178539725089442527e+03 2.514988518358877712e-01 1.011067697317680420e-03
3.181718264814533086e+03 2.506633122041361794e-01 1.114364344942323035e-03
3.184899983079348658e+03 2.497423539979565232e-01 1.189344315172898361e-03
3.188084883062429071e+03 2.489160116783891152e-01 1.222563116827160437e-03
3.191272967945492383e+03 2.479440769918331011e-01 1.246866277534437826e-03
3.194464240913438971e+03 2.471178371813808894e-01 1.234123867920860563e-03
3.197658705154353811e+03 2.462822515332380724e-01 1.178557796128651067e-03
3.200856363859509202e+03 2.458612281772106778e-01 1.112813958777631763e-03
3.204057220223369768e+03 2.458262547937827558e-01 1.053993036585407477e-03
3.207261277443593826e+03 2.462722260366533578e-01 1.033567014058493078e-03
3.210468538721038840e+03 2.470961943228284496e-01 1.025020179929337239e-03
3.213679007259760965e+03 2.484317261608147698e-01 1.059559037903750299e-03
3.216892686267021418e+03 2.502438631869297048e-01 1.134409653456415132e-03
3.220109578953289656e+03 2.522498619784819818e-01 1.167807302366931929e-03
3.223329688532243836e+03 2.549722528991141268e-01 1.238044695385232246e-03
3.226553018220777176e+03 2.579950406602045110e-01 1.197048833754591878e-03
3.229779571238999324e+03 2.612041091150957839e-01 1.127014686771009603e-03
3.233009350810239084e+03 2.645667882657372072e-01 1.046008044929224801e-03
3.236242360161050783e+03 2.680042259622085754e-01 9.274383659936135012e-04
3.239478602521212906e+03 2.714263149529561603e-01 8.966882892649518126e-04
3.242718081123734919e+03 2.748842669710168107e-01 8.897604670692722210e-04
3.245960799204859995e+03 2.781762854578909150e-01 9.403474518941311788e-04
3.249206760004065927e+03 2.813972835458656840e-01 9.503165056898738592e-04
3.252455966764071036e+03 2.843841915984807178e-01 8.693613911966185286e-04
3.255708422730835991e+03 2.871060439507520656e-01 6.402937453205886703e-04
3.258964131153567905e+03 2.901238497248659898e-01 6.349575278600339077e-04
3.262223095284722604e+03 2.933246123074731981e-01 7.821975285828217106e-04
3.265485318380008266e+03 2.962725626774924126e-01 8.752458867964145938e-04
3.268750803698389518e+03 2.991019394363932382e-01 8.727096582357856975e-04
3.272019554502088795e+03 3.019175581822383103e-01 8.021926947274677939e-04
3.275291574056592253e+03 3.041679221107453923e-01 8.055419422982334782e-04
3.278566865630649772e+03 3.060947287927971994e-01 8.659761664724529738e-04
3.281845432496281319e+03 3.078149105596477697e-01 9.362674187464140214e-04
3.285127277928778767e+03 3.095563248921038291e-01 9.532191124379768392e-04
3.288412405206708627e+03 3.110491729234602931e-01 9.811191467384552858e-04
3.291700817611916591e+03 3.124686180264001911e-01 9.931731943677898477e-04
3.294992518429529355e+03 3.139525134567802689e-01 9.872655261269542605e-04
3.298287510947960072e+03 3.154236404248957903e-01 9.891759134108908842e-04
3.301585798458909267e+03 3.167148685938803720e-01 9.942426344683454823e-04
3.304887384257369376e+03 3.175662004884833856e-01 1.008556825475332916e-03
3.308192271641627485e+03 3.184488027548976197e-01 1.037301893224853479e-03
3.311500463913270323e+03 3.193316092991708155e-01 1.084823672108528722e-03
3.314811964377184722e+03 3.199965329059509256e-01 1.139809756194066440e-03
3.318126776341563072e+03 3.205168955626170324e-01 1.208917680294738835e-03
3.321444903117905596e+03 3.211313319217594109e-01 1.138552564882867185e-03
3.324766348021024896e+03 3.208850907166128086e-01 1.099192685576692342e-03
3.328091114369046863e+03 3.205067539460494386e-01 1.017651935354906435e-03
3.331419205483417045e+03 3.196180489302484218e-01 1.069591341296934452e-03
3.334750624688901553e+03 3.184885981934009180e-01 1.138924353852066498e-03
3.338085375313591612e+03 3.171016991052075795e-01 1.202291015839748647e-03
3.341423460688906289e+03 3.154436844757457781e-01 1.184505109312133540e-03
3.344764884149596128e+03 3.137538260825908920e-01 1.135592726912233036e-03
3.348109649033746791e+03 3.119551644465174411e-01 1.004714194186861771e-03
3.351457758682781787e+03 3.102583159522078193e-01 7.344044831227523320e-04
3.354809216441465651e+03 3.089262055702007848e-01 5.906130073628885428e-04
3.358164025657908041e+03 3.082286818555483032e-01 5.432291457440525679e-04
3.361522189683567376e+03 3.082263797393976490e-01 5.434609853499232411e-04
3.364883711873251741e+03 3.089516169335461138e-01 5.271350624455104330e-04
3.368248595585126168e+03 3.101238010617718421e-01 4.917872651213402863e-04
3.371616844180712633e+03 3.118185243862752754e-01 4.937347889423834412e-04
3.374988461024894150e+03 3.140093871093880828e-01 4.795678711414288206e-04
3.378363449485920228e+03 3.166692372670752986e-01 4.795644898691970508e-04
3.381741812935407324e+03 3.197607062714705739e-01 4.831196396189304729e-04
3.385123554748343849e+03 3.231948233016673777e-01 4.722097536378267509e-04
3.388508678303093347e+03 3.265926156230490318e-01 4.588780210675638921e-04
3.391897186981397681e+03 3.303758291313808049e-01 5.353768053183026628e-04
3.395289084168380214e+03 3.343693309386625012e-01 6.624158599343126343e-04
3.398684373252549449e+03 3.382555132836393419e-01 7.281470648570229163e-04
3.402083057625803121e+03 3.418012368071359774e-01 7.085063411168209023e-04
3.405485140683430018e+03 3.450418528028599274e-01 7.194545280897733132e-04
3.408890625824114522e+03 3.479990750262058063e-01 6.956766454973737582e-04
3.412299516449939802e+03 3.508103484893649870e-01 6.129925149195243660e-04
3.415711815966390986e+03 3.532126400579101988e-01 5.009824634185431995e-04
3.419127527782358356e+03 3.547578315475093391e-01 5.714455187314805822e-04
3.422546655310141887e+03 3.557227527580726356e-01 5.906289814225866965e-04
3.425969201965453522e+03 3.561022955845506432e-01 5.249362298752670861e-04
3.429395171167419903e+03 3.562439219141262381e-01 5.017758331262595897e-04
3.432824566338588284e+03 3.558570113626470799e-01 4.754814984262512099e-04
3.436257390904928343e+03 3.551469399169789876e-01 4.679571669418877960e-04
3.439693648295834464e+03 3.542264220898855287e-01 4.641538875929712075e-04
3.443133341944131189e+03 3.530141959008370467e-01 4.644440375440541291e-04
3.446576475286076402e+03 3.516498275821007824e-01 4.978633266685697717e-04
3.450023051761363604e+03 3.503755655476816777e-01 4.991415105591636694e-04
3.453473074813126004e+03 3.492371725556978612e-01 5.528605710694903773e-04
3.456926547887940615e+03 3.479975336996398716e-01 5.594232586991810825e-04
3.460383474435829612e+03 3.465692046180626762e-01 5.650315938105402542e-04
3.463843857910266706e+03 3.452216400950526842e-01 5.755237880449248734e-04
3.467307701768178049e+03 3.440549618624360040e-01 5.925316397596628714e-04
3.470775009469947236e+03 3.429074762380950325e-01 6.330001980029815144e-04
3.474245784479418489e+03 3.421078130870799372e-01 5.846405926005175798e-04
3.477720030263898934e+03 3.416735570242302455e-01 5.270812867853126105e-04
3.481197750294164052e+03 3.420917818651726394e-01 5.278429270570799119e-04
3.484678948044459503e+03 3.431103839867507554e-01 5.193099843736410015e-04
3.488163626992504760e+03 3.445600124912407969e-01 5.256148082950298523e-04
3.491651790619498570e+03 3.463440595798888411e-01 5.264374854726254667e-04
3.495143442410119405e+03 3.486765553615273627e-01 5.857869943535316207e-04
3.498638585852530468e+03 3.514561969692143739e-01 6.309939904423897189e-04
3.502137224438384237e+03 3.543315208930387650e-01 6.889594058170770471e-04
3.505639361662823831e+03 3.568946187363981615e-01 7.253761489265111127e-04
3.509145001024487556e+03 3.598863853770968291e-01 7.189251729815386311e-04
3.512654146025513455e+03 3.625580026690479740e-01 6.731211628049352724e-04
3.516166800171540217e+03 3.649527878926992486e-01 5.054911668324789864e-04
3.519682966971712631e+03 3.666494685571304313e-01 5.329100493296338482e-04
3.523202649938685681e+03 3.677599254608990287e-01 5.658289814243686305e-04
3.526725852588625457e+03 3.681339586997467439e-01 5.644693929052497366e-04
3.530252578441215064e+03 3.679825839627576256e-01 4.503406262697598754e-04
3.533782831019657806e+03 3.680497724540915949e-01 4.136400209069915281e-04
3.537316613850678550e+03 3.684753144474400277e-01 5.462262596895179614e-04
3.540853930464530094e+03 3.683099055954678902e-01 5.495989757103437838e-04
3.544394784394995895e+03 3.679140826395357333e-01 5.489263654633673960e-04
3.547939179179392340e+03 3.675513429883608407e-01 5.484065078069312506e-04
3.551487118358572843e+03 3.670059599446174881e-01 5.468531849172637155e-04
3.555038605476932389e+03 3.663181991126314152e-01 6.232730085446852846e-04
3.558593644082410719e+03 3.659368017752596680e-01 6.564520239640472951e-04
3.562152237726494150e+03 3.655258377872236397e-01 6.696181632370667384e-04
3.565714389964221937e+03 3.651265477426569039e-01 6.705561427162234911e-04
3.569280104354187188e+03 3.646690125690897899e-01 6.680706799011699700e-04
3.572849384458542772e+03 3.645125475523290914e-01 7.004722665902194615e-04
3.576422233843002232e+03 3.643499480130810708e-01 7.383929895091089152e-04
3.579998656076846601e+03 3.642272536110549019e-01 7.770758616915061359e-04
3.583578654732924406e+03 3.640519375174352534e-01 7.626761547003082283e-04
3.587162233387658489e+03 3.635914454255561590e-01 6.905345170402645786e-04
3.590749395621047370e+03 3.626194408532693036e-01 6.967020280301666193e-04
3.594340145016669794e+03 3.613140917342006486e-01 7.489846141837494965e-04
3.597934485161687462e+03 3.596271914876854048e-01 8.616391124723852277e-04
3.601532419646850485e+03 3.575521236081597998e-01 8.267656693200883160e-04
3.605133952066498296e+03 3.555091244097243197e-01 5.485018845270674343e-04
3.608739086018566013e+03 3.535850231304593638e-01 4.552261505359931032e-04
3.612347825104585809e+03 3.523902931849332010e-01 5.550561546747712072e-04
3.615960172929691907e+03 3.510777753857027284e-01 6.043483118514449441e-04
3.619576133102622407e+03 3.497474497264729809e-01 6.161467317657125112e-04
3.623195709235726554e+03 3.485979939086547019e-01 4.611756578401537444e-04
3.626818904944963379e+03 3.469750489571394869e-01 3.721545528481506426e-04
3.630445723849909427e+03 3.446307770411378146e-01 4.043918349677140403e-04
3.634076169573760581e+03 3.420328731096867192e-01 4.046283531070178304e-04
3.637710245743335690e+03 3.389035596544649476e-01 4.118667113249277153e-04
3.641347955989080219e+03 3.352610784235720565e-01 4.404091899065878013e-04
3.644989303945070333e+03 3.308694468307920578e-01 4.510059418252411511e-04
3.648634293249016537e+03 3.257482626852689633e-01 4.478174742866240115e-04
3.652282927542266862e+03 3.203535237971991134e-01 4.573944843132330914e-04
3.655935210469810499e+03 3.146205366118177138e-01 4.244065569091942181e-04
3.659591145680281443e+03 3.083284865929263874e-01 4.404871221626802395e-04
3.663250736825963031e+03 3.016580079649142654e-01 5.426055753997051367e-04
3.666913987562790226e+03 2.951719734418500329e-01 5.663053694939867511e-04
3.670580901550354156e+03 2.886214753929534083e-01 5.373988833355337544e-04
3.674251482451905758e+03 2.825682630400168094e-01 4.739265790824601001e-04
3.677925733934358959e+03 2.777522898965917864e-01 4.072223958629226270e-04
3.681603659668294313e+03 2.741688413887842790e-01 4.108885806742742217e-04
3.685285263327964003e+03 2.716715446294257208e-01 4.175065975806233824e-04
3.688970548591293209e+03 2.704595597351366898e-01 4.770928247626738793e-04
3.692659519139885560e+03 2.703745290191027495e-01 4.641459490726512066e-04
3.696352178659026777e+03 2.710551808161545950e-01 4.159494903172454485e-04
3.700048530837686940e+03 2.724993156529466054e-01 4.790150772082127036e-04
3.703748579368525952e+03 2.743956782503973457e-01 4.640782482216292159e-04
3.707452327947895355e+03 2.768712793519100823e-01 4.262616015985565515e-04
3.711159780275844696e+03 2.793587945713149612e-01 3.705811988791669681e-04
3.714870940056121526e+03 2.817002791835722109e-01 4.408733753605911798e-04
3.718585810996179134e+03 2.840048523656947821e-01 4.654261046481409682e-04
3.722304396807176545e+03 2.868598170852076912e-01 4.628925244668507123e-04
3.726026701203984885e+03 2.900597323840670150e-01 4.650783443481591533e-04
3.729752727905190113e+03 2.933002439354089330e-01 4.296790248829307620e-04
3.733482480633096657e+03 2.969286801218218308e-01 4.208311923663064606e-04
3.737215963113731050e+03 3.010285652576455973e-01 4.279525044390941179e-04
3.740953179076846027e+03 3.053533204173893845e-01 4.631361779936072720e-04
3.744694132255923705e+03 3.101193496934530058e-01 4.261520405453887239e-04
3.748438826388181042e+03 3.156969365082515355e-01 4.432814330794374513e-04
3.752187265214570289e+03 3.217597566051055291e-01 4.763792879069871241e-04
3.755939452479786269e+03 3.280050905764953506e-01 5.198082024328283882e-04
3.759695391932267285e+03 3.345753674815818979e-01 6.373864334285075884e-04
3.763455087324201031e+03 3.408872551506831328e-01 7.022446296824902661e-04
3.767218542411526414e+03 3.465578539712515505e-01 6.935359446829619627e-04
3.770985760953939007e+03 3.521072358676920477e-01 6.701879406481001415e-04
3.774756746714894234e+03 3.572510123471814292e-01 7.787320280280134741e-04
3.778531503461610555e+03 3.626270645388143810e-01 8.281170737478666050e-04
3.782310034965073100e+03 3.678395470092806208e-01 9.104056388153532447e-04
3.786092345000039586e+03 3.732852889012407971e-01 7.834222463432317105e-04
3.789878437345040766e+03 3.793132714727770471e-01 5.693924269886413295e-04
3.793668315782387253e+03 3.863363556943915644e-01 5.785213324337325864e-04
3.797461984098170888e+03 3.942526752018184477e-01 6.325742651428307647e-04
3.801259446082270188e+03 4.027938152008929129e-01 6.169032293978238962e-04
3.805060705528353537e+03 4.122383769065521841e-01 5.469727924426630913e-04
3.808865766233883278e+03 4.221854690087539219e-01 5.446412245892996370e-04
3.812674632000118436e+03 4.325343753475581754e-01 5.703741926638897361e-04
3.816487306632119726e+03 4.433671038507382423e-01 5.951176619358690065e-04
3.820303793938753188e+03 4.544003530600537744e-01 7.384307133000171317e-04
3.824124097732693372e+03 4.650079493508375017e-01 8.163633210580479487e-04
3.827948221830427428e+03 4.752075661388078798e-01 9.264311903747933161e-04
3.831776170052258749e+03 4.849698452957368899e-01 9.027109381529762385e-04
3.835607946222312421e+03 4.935299473069454379e-01 7.290187729768289257e-04
3.839443554168536139e+03 5.006123429274841330e-01 8.949319176623101411e-04
3.843282997722705659e+03 5.068202755000450477e-01 1.019738106505717074e-03
3.847126280720429804e+03 5.122633084163835671e-01 1.003942271222388804e-03
3.850973407001151372e+03 5.171193667806287531e-01 9.824811885840326140e-04
3.854824380408153957e+03 5.209924038757979270e-01 8.642081912912033537e-04
3.858679204788563311e+03 5.247200010246940716e-01 7.980955254482716664e-04
3.862537883993353262e+03 5.284694326787962027e-01 7.934474688940717580e-04
3.866400421877347981e+03 5.327838142783946074e-01 8.216439015473691416e-04
3.870266822299226533e+03 5.378380043274811895e-01 8.249406241604990281e-04
3.874137089121526969e+03 5.434334322559354336e-01 8.616346225669937369e-04
3.878011226210649966e+03 5.500406817540515192e-01 8.646214348066717749e-04
3.881889237436861549e+03 5.573451877952756428e-01 8.256062699894557017e-04
3.885771126674299921e+03 5.654705477552794957e-01 7.398093170580159273e-04
3.889656897800975457e+03 5.749468886883686292e-01 8.895396966141168229e-04
3.893546554698777527e+03 5.850604893638504667e-01 9.229408517326670577e-04
3.897440101253477678e+03 5.955850610511445042e-01 9.136176322409106983e-04
3.901337541354732366e+03 6.068788237246620643e-01 8.150703027980488831e-04
3.905238878896088409e+03 6.182836565114167016e-01 5.358782338497868059e-04
3.909144117774985716e+03 6.288230954973867970e-01 5.338024380292177113e-04
3.913053261892762293e+03 6.385409702750202143e-01 4.768627447050930997e-04
3.916966315154656058e+03 6.476561878664517380e-01 4.610030292366997353e-04
3.920883281469812118e+03 6.562400908396046617e-01 5.684160439566980638e-04
3.924804164751283224e+03 6.637859822595899573e-01 5.227206173758209944e-04
3.928728968916035683e+03 6.700522893263058943e-01 6.341175897323548692e-04
3.932657697884953450e+03 6.756502056130195832e-01 7.124384160950158898e-04
3.936590355582839493e+03 6.803931752883822792e-01 7.348080227897146573e-04
3.940526945938423523e+03 6.846156143679712480e-01 7.031158684032574316e-04
3.944467472884363360e+03 6.884868818762209797e-01 7.324446955828344506e-04
3.948411940357249023e+03 6.916448389666204344e-01 7.658212867896920092e-04
3.952360352297607733e+03 6.943417174571188122e-01 8.264647060823110620e-04
3.956312712649906643e+03 6.962314471742717670e-01 8.234857429162985689e-04
3.960269025362557841e+03 6.977001572839485188e-01 8.132889314825922410e-04
3.964229294387921527e+03 6.990499447855017534e-01 7.216341421805125582e-04
3.968193523682310570e+03 6.997272116124999553e-01 8.684604635482239378e-04
3.972161717205994591e+03 7.003721780176053180e-01 8.968171995150381196e-04
3.976133878923201792e+03 7.014571063352074143e-01 8.948448639379625105e-04
3.980110012802126221e+03 7.027482601203496326e-01 8.307383228677203257e-04
3.984090122814929600e+03 7.044662659565872342e-01 6.227933521374182492e-04
3.988074212937745870e+03 7.071538143819854350e-01 6.204873932522164594e-04
3.992062287150684824e+03 7.108611955463951526e-01 6.652198073619172182e-04
3.996054349437837118e+03 7.154324665943208039e-01 4.648125226598991870e-04
4.000050403787276082e+03 7.202959665830906966e-01 4.109114834462168392e-04
4.004050454191064546e+03 7.254641325436527177e-01 4.265543212455066998e-04
4.008054504645257111e+03 7.308675166974238913e-01 4.336936707823647896e-04
4.012062559149903791e+03 7.364074394104924703e-01 5.009791825673324834e-04
4.016074621709055009e+03 7.417615562639945370e-01 6.278632177483961258e-04
4.020090696330765240e+03 7.467707641453487089e-01 7.397704431470138219e-04
4.024110787027097558e+03 7.509983120705758797e-01 7.732717864285288149e-04
4.028134897814125907e+03 7.541633352766848875e-01 6.639734746120387913e-04
4.032163032711941469e+03 7.560171649658896653e-01 6.468991447047457320e-04
4.036195195744654484e+03 7.568921242647658199e-01 5.869132827200771634e-04
4.040231390940400615e+03 7.562525581014309939e-01 6.595983118170711422e-04
4.044271622331342314e+03 7.542304797994880960e-01 6.963221737666785418e-04
4.048315893953675186e+03 7.514512827524350014e-01 6.628712803909785458e-04
4.052364209847629809e+03 7.480691104140125836e-01 5.777527723412113382e-04
