# starting wavelength: 3436.450
# ending wavelength: 7279.780
# wav flux eflux
3.439693648295834464e+03 1.193722592077489431e+00 2.117079992286623538e-02
3.443133341944131189e+03 1.214224682084871443e+00 1.561949572577389818e-02
3.446576475286076402e+03 1.244108223042333039e+00 1.258858713446633047e-02
3.450023051761363604e+03 1.281039877886084755e+00 1.265929419103024346e-02
3.453473074813126004e+03 1.319135994899830022e+00 1.235712914240624967e-02
3.456926547887940615e+03 1.352915260170332257e+00 9.844162573165060603e-03
3.460383474435829612e+03 1.385851000128368371e+00 8.014734635064730758e-03
3.463843857910266706e+03 1.417918613814297180e+00 6.547905387484191132e-03
3.467307701768178049e+03 1.448013562105039176e+00 5.591992019248632692e-03
3.470775009469947236e+03 1.475529737284586806e+00 4.873074435848931407e-03
3.474245784479418489e+03 1.500507978161598199e+00 4.316203299943484339e-03
3.477720030263898934e+03 1.521141079171392185e+00 4.184125366711637095e-03
3.481197750294164052e+03 1.538614184233210835e+00 4.005656474742009393e-03
3.484678948044459503e+03 1.553422032029551980e+00 3.780691498681725774e-03
3.488163626992504760e+03 1.565467371462749835e+00 3.583533341599899266e-03
3.491651790619498570e+03 1.573770069429170526e+00 3.535812636053333857e-03
3.495143442410119405e+03 1.579253266850503268e+00 3.521963333515056201e-03
3.498638585852530468e+03 1.580671028352925056e+00 3.226182780995984212e-03
3.502137224438384237e+03 1.581066711291892801e+00 3.054767802755842167e-03
3.505639361662823831e+03 1.578651724053300454e+00 2.813954084459002313e-03
3.509145001024487556e+03 1.574858704706037615e+00 2.688885146683956881e-03
3.512654146025513455e+03 1.569276540954442911e+00 2.685407051780041958e-03
3.516166800171540217e+03 1.562274652881274761e+00 2.782081196089282015e-03
3.519682966971712631e+03 1.554207037353991572e+00 2.840074828303150185e-03
3.523202649938685681e+03 1.546247550130573245e+00 2.888244850257261614e-03
3.526725852588625457e+03 1.538152325442053936e+00 2.890831986547671636e-03
3.530252578441215064e+03 1.530426690608451823e+00 2.884346857536017762e-03
3.533782831019657806e+03 1.522321162618700319e+00 2.805770907390963548e-03
3.537316613850678550e+03 1.514893877480148365e+00 2.810533478392025688e-03
3.540853930464530094e+03 1.508392475400486266e+00 2.855995585576196968e-03
3.544394784394995895e+03 1.500502681989374754e+00 2.626318574918060523e-03
3.547939179179392340e+03 1.496075115724240900e+00 2.582126733647656640e-03
3.551487118358572843e+03 1.493614382911429006e+00 2.642483816091508765e-03
3.555038605476932389e+03 1.492534911132184616e+00 2.731851365372269316e-03
3.558593644082410719e+03 1.492379854549987561e+00 2.945012429078494413e-03
3.562152237726494150e+03 1.495395034558096636e+00 3.405967691764159606e-03
3.565714389964221937e+03 1.498724271429492605e+00 3.772236478655987234e-03
3.569280104354187188e+03 1.501284850676196214e+00 4.117530833407038147e-03
3.572849384458542772e+03 1.502314467832102762e+00 4.334055605903000367e-03
3.576422233843002232e+03 1.502722238589708548e+00 4.404650309214376731e-03
3.579998656076846601e+03 1.503030607498591742e+00 3.926402825419205919e-03
3.583578654732924406e+03 1.502329371322937979e+00 3.508519107146800420e-03
3.587162233387658489e+03 1.498891022589857069e+00 3.610652864015028579e-03
3.590749395621047370e+03 1.493538014208981357e+00 4.527829223860863582e-03
3.594340145016669794e+03 1.487392585357193875e+00 5.332050492060342629e-03
3.597934485161687462e+03 1.479092687938289075e+00 5.725418066387076739e-03
3.601532419646850485e+03 1.473434572363264250e+00 5.672579441531903563e-03
3.605133952066498296e+03 1.468116488969717359e+00 5.546814883731251110e-03
3.608739086018566013e+03 1.460324592080490591e+00 5.396540404029774932e-03
3.612347825104585809e+03 1.454087700437929342e+00 5.036067144719148098e-03
3.615960172929691907e+03 1.449733947272461299e+00 4.777661347074865263e-03
3.619576133102622407e+03 1.445917537745213144e+00 4.907293482751994701e-03
3.623195709235726554e+03 1.444919581820107268e+00 5.461896091397062600e-03
3.626818904944963379e+03 1.443850530655529596e+00 5.834244846376376685e-03
3.630445723849909427e+03 1.443788757004784928e+00 6.318126604981710859e-03
3.634076169573760581e+03 1.446458709390053832e+00 6.245035671523253146e-03
3.637710245743335690e+03 1.445657999407760075e+00 5.567865281172653703e-03
3.641347955989080219e+03 1.444508389601798282e+00 4.828101307096515325e-03
3.644989303945070333e+03 1.441321377410284876e+00 4.541061463247746469e-03
3.648634293249016537e+03 1.434506684542984356e+00 5.210072566931820554e-03
3.652282927542266862e+03 1.426072426867731613e+00 5.301431891767470310e-03
3.655935210469810499e+03 1.417755187622822932e+00 5.299543246141152908e-03
3.659591145680281443e+03 1.407485864269719888e+00 5.254341331011375474e-03
3.663250736825963031e+03 1.395256920257659017e+00 4.703452769187744208e-03
3.666913987562790226e+03 1.382322584582254432e+00 4.181606771439906785e-03
3.670580901550354156e+03 1.370598243828268004e+00 4.403241963985665176e-03
3.674251482451905758e+03 1.359877139842564864e+00 4.513749788783112671e-03
3.677925733934358959e+03 1.350418938534120539e+00 4.666598237251158923e-03
3.681603659668294313e+03 1.341317401343075311e+00 4.393166970810697021e-03
3.685285263327964003e+03 1.331155729971309043e+00 4.147350172452140410e-03
3.688970548591293209e+03 1.320707377513011371e+00 4.168795038483449379e-03
3.692659519139885560e+03 1.308822884105195206e+00 4.555367440304932541e-03
3.696352178659026777e+03 1.299256435617995198e+00 4.704865079405120415e-03
3.700048530837686940e+03 1.292725012466309220e+00 4.920787723528460486e-03
3.703748579368525952e+03 1.287862180872670903e+00 5.099552329446960415e-03
3.707452327947895355e+03 1.283316235809105033e+00 5.680571367181664992e-03
3.711159780275844696e+03 1.276726810501682463e+00 3.545313594954919989e-03
3.714870940056121526e+03 1.280494850271096219e+00 3.177299387112869286e-03
3.718585810996179134e+03 1.289974776302401649e+00 3.732588239444941097e-03
3.722304396807176545e+03 1.303347043404637251e+00 4.290496689742816228e-03
3.726026701203984885e+03 1.320786887770249995e+00 4.248135110634638709e-03
3.729752727905190113e+03 1.340522972167321525e+00 3.924109957968652598e-03
3.733482480633096657e+03 1.362857525906028711e+00 4.303214484011267348e-03
3.737215963113731050e+03 1.386022596945045260e+00 3.803017523305963783e-03
3.740953179076846027e+03 1.409575863822772002e+00 3.651551815859362116e-03
3.744694132255923705e+03 1.429075691809996940e+00 3.647362388120317482e-03
3.748438826388181042e+03 1.449368015835726498e+00 3.194674579012643598e-03
3.752187265214570289e+03 1.463075744922976762e+00 3.378440772045122192e-03
3.755939452479786269e+03 1.473688757341870659e+00 3.343905447084568900e-03
3.759695391932267285e+03 1.480854285924504854e+00 3.577029190736003613e-03
3.763455087324201031e+03 1.482922260376726253e+00 3.840743525248194960e-03
3.767218542411526414e+03 1.480344770779962404e+00 3.802961385221120295e-03
3.770985760953939007e+03 1.471673707560889444e+00 3.754736022073359904e-03
3.774756746714894234e+03 1.458193352955368116e+00 3.965653807579638986e-03
3.778531503461610555e+03 1.441068557569257891e+00 4.008554059286919234e-03
3.782310034965073100e+03 1.418321591078402610e+00 5.532043314089873411e-03
3.786092345000039586e+03 1.395380736648995867e+00 6.299069197650501890e-03
3.789878437345040766e+03 1.371178246081059093e+00 5.531675826609142033e-03
3.793668315782387253e+03 1.349559935469986316e+00 4.427733598232187415e-03
3.797461984098170888e+03 1.333593567928900603e+00 4.138352555112481679e-03
3.801259446082270188e+03 1.324538700617571507e+00 4.430661551827494091e-03
3.805060705528353537e+03 1.320770087250972225e+00 4.916887833755484785e-03
3.808865766233883278e+03 1.320753228034531102e+00 5.159293809515972176e-03
3.812674632000118436e+03 1.325181976531011108e+00 5.376124161267733896e-03
3.816487306632119726e+03 1.334216966107889535e+00 4.326150218144437370e-03
3.820303793938753188e+03 1.346013805908382155e+00 3.136994323842076573e-03
3.824124097732693372e+03 1.355632785927855632e+00 2.735742978947213865e-03
3.827948221830427428e+03 1.363250998103967548e+00 2.307684340357117007e-03
3.831776170052258749e+03 1.365900577161706986e+00 2.040341708057132226e-03
3.835607946222312421e+03 1.366389492461806965e+00 2.403509964583945991e-03
3.839443554168536139e+03 1.365174916817719852e+00 2.299024535234701818e-03
3.843282997722705659e+03 1.362671938006212002e+00 2.258076640505354837e-03
3.847126280720429804e+03 1.359835281948680086e+00 2.216671705355174795e-03
3.850973407001151372e+03 1.355980011320982559e+00 2.501859634807465649e-03
3.854824380408153957e+03 1.352096586525921573e+00 2.801236246260668025e-03
3.858679204788563311e+03 1.347376918514458621e+00 2.046394091972073177e-03
3.862537883993353262e+03 1.346975354790872714e+00 2.225406849832638808e-03
3.866400421877347981e+03 1.347612628375103760e+00 2.791332565147252014e-03
3.870266822299226533e+03 1.347888666390243628e+00 3.158147017081891494e-03
3.874137089121526969e+03 1.347324409123697109e+00 3.414061905195463209e-03
3.878011226210649966e+03 1.346799084391108625e+00 3.702959429735191033e-03
3.881889237436861549e+03 1.340516597800496701e+00 3.128911932755243982e-03
3.885771126674299921e+03 1.329505779464096538e+00 3.186461353585712166e-03
3.889656897800975457e+03 1.314355479670124893e+00 3.519297916391922205e-03
3.893546554698777527e+03 1.296857305738033261e+00 3.570887464972756498e-03
3.897440101253477678e+03 1.276367821369170263e+00 3.529485173567477405e-03
3.901337541354732366e+03 1.254415919860634832e+00 3.693878917649425029e-03
3.905238878896088409e+03 1.229227468621437280e+00 3.645156305063979377e-03
3.909144117774985716e+03 1.203554305797326585e+00 3.419248772376402151e-03
3.913053261892762293e+03 1.179822689727207274e+00 3.423858469849811077e-03
3.916966315154656058e+03 1.157497278040169553e+00 3.725695916790226422e-03
3.920883281469812118e+03 1.138911823239699750e+00 4.999762158432036196e-03
3.924804164751283224e+03 1.124717002743395700e+00 6.571702433815608015e-03
3.928728968916035683e+03 1.119598089532404250e+00 6.280840645840727460e-03
3.932657697884953450e+03 1.123384686259066179e+00 5.222243892344904242e-03
3.936590355582839493e+03 1.138774771758118698e+00 5.166541685506736634e-03
3.940526945938423523e+03 1.163648465628599915e+00 5.999129538300866302e-03
3.944467472884363360e+03 1.195826799676372731e+00 6.987072680499000453e-03
3.948411940357249023e+03 1.234434126834000223e+00 7.928387002491779634e-03
3.952360352297607733e+03 1.275352780193227398e+00 6.421965585586763940e-03
3.956312712649906643e+03 1.309900215880877905e+00 5.170539419602712856e-03
3.960269025362557841e+03 1.339945039575245911e+00 3.847658940529271546e-03
3.964229294387921527e+03 1.360164506167040210e+00 3.720209141747897637e-03
3.968193523682310570e+03 1.371287573919536040e+00 4.010656268987665071e-03
3.972161717205994591e+03 1.373683381561001005e+00 3.874202937810120127e-03
3.976133878923201792e+03 1.369433136426556175e+00 3.689134292295506105e-03
3.980110012802126221e+03 1.356825260278272660e+00 2.575932785277983226e-03
3.984090122814929600e+03 1.343414112934370630e+00 2.359197993718812909e-03
3.988074212937745870e+03 1.329095207488150798e+00 3.109311456342699759e-03
3.992062287150684824e+03 1.314027516945050822e+00 6.020081683031448284e-03
3.996054349437837118e+03 1.303807565366667864e+00 7.005732908167762972e-03
4.000050403787276082e+03 1.301622201663314105e+00 6.209632957468131341e-03
4.004050454191064546e+03 1.311424510620934569e+00 5.609715290832828667e-03
4.008054504645257111e+03 1.331856238183033225e+00 5.922547814799922206e-03
4.012062559149903791e+03 1.361846744981084933e+00 7.421710035238453414e-03
4.016074621709055009e+03 1.397619172410178079e+00 8.384463208164475226e-03
4.020090696330765240e+03 1.435485093011420910e+00 8.287445407410058001e-03
4.024110787027097558e+03 1.475752164497467156e+00 7.846328467689938496e-03
4.028134897814125907e+03 1.509554788307302164e+00 6.580012495357031102e-03
4.032163032711941469e+03 1.530700874233701825e+00 5.526324871947156832e-03
4.036195195744654484e+03 1.540146713832253544e+00 3.969228549100678113e-03
4.040231390940400615e+03 1.532432886721529552e+00 3.893655180218702147e-03
4.044271622331342314e+03 1.508478296232994564e+00 4.236586776644464536e-03
4.048315893953675186e+03 1.471151366820413253e+00 4.625679538268710582e-03
4.052364209847629809e+03 1.424014058620754586e+00 4.996612014174600831e-03
4.056416574057479011e+03 1.370191611147732358e+00 5.630034410831018417e-03
4.060472990631537868e+03 1.317495040332870015e+00 6.888593075500350910e-03
4.064533463622170530e+03 1.267614907602439445e+00 7.622408527514713990e-03
4.068597997085794304e+03 1.223481527116472067e+00 6.658433515408821585e-03
4.072666595082881486e+03 1.193190771089507551e+00 4.913875799044753814e-03
4.076739261677965715e+03 1.177558341721017809e+00 4.574203785011582424e-03
4.080816000939644709e+03 1.177665087547324241e+00 6.350549293324810225e-03
4.084896816940585722e+03 1.191805054352191418e+00 7.484336686816061776e-03
4.088981713757527814e+03 1.214832569884167768e+00 6.543581483943964466e-03
4.093070695471286854e+03 1.242809520964761383e+00 5.449575321215252219e-03
4.097163766166759160e+03 1.273687586241024405e+00 5.074649139704317212e-03
4.101260929932927866e+03 1.309233835968321991e+00 4.185967939067436298e-03
4.105362190862862008e+03 1.340775944142000409e+00 3.800388509917411277e-03
4.109467553053726078e+03 1.366912787101928872e+00 3.776368590734777934e-03
4.113577020606780934e+03 1.389274103462686538e+00 3.984041719433098830e-03
4.117690597627389252e+03 1.404387540679817858e+00 3.955543448600941717e-03
4.121808288225018259e+03 1.412497996638795605e+00 4.091871995704741277e-03
4.125930096513244280e+03 1.415635865135431493e+00 4.525075910295241026e-03
4.130056026609759101e+03 1.415757763517097700e+00 4.793762929122799554e-03
4.134186082636369974e+03 1.412525144972066604e+00 5.084319761647402604e-03
4.138320268719007800e+03 1.407316428366702121e+00 5.307871965865713394e-03
4.142458588987728035e+03 1.400675063606476867e+00 5.009536285053684847e-03
4.146601047576717065e+03 1.394489223345396267e+00 3.621695394811681908e-03
4.150747648624294925e+03 1.392427103067686467e+00 3.370537976457014043e-03
4.154898396272920763e+03 1.393648459261423334e+00 3.604784224171475853e-03
4.159053294669195566e+03 1.399583922038130757e+00 3.845974104512166116e-03
4.163212347963865795e+03 1.407845169168954635e+00 2.926911481218354150e-03
4.167375560311830668e+03 1.413865572679679161e+00 2.397729426426382406e-03
4.171542935872143971e+03 1.418608118641994542e+00 2.441357039209256403e-03
4.175714478808017702e+03 1.422838213504228344e+00 2.434601379088035915e-03
4.179890193286827525e+03 1.427045105123826430e+00 2.291607357385772210e-03
4.184070083480115500e+03 1.428416758262504027e+00 2.000494945528649964e-03
4.188254153563597356e+03 1.428787567871685260e+00 1.811832323459155059e-03
4.192442407717161586e+03 1.429714913091932882e+00 1.733666878969510050e-03
4.196634850124880359e+03 1.428239226269875095e+00 2.021445410041880410e-03
4.200831484975006788e+03 1.426078516011380470e+00 1.880489989108085312e-03
4.205032316459983122e+03 1.425566763928347136e+00 3.493712613517922609e-03
4.209237348776444378e+03 1.422854924395785092e+00 3.388908032463763820e-03
4.213446586125221984e+03 1.417201941468394510e+00 3.649975359917815784e-03
4.217660032711349231e+03 1.410026037150151179e+00 4.455007203375695168e-03
4.221877692744061278e+03 1.403230259611289554e+00 4.497663941517050790e-03
4.226099570436806971e+03 1.397244230757506367e+00 4.322778726541833851e-03
4.230325670007245208e+03 1.391723423851346952e+00 4.217063789556337906e-03
4.234555995677254032e+03 1.386841099622287521e+00 4.428592354089148919e-03
4.238790551672932452e+03 1.382746790095486622e+00 4.707482166106584029e-03
4.243029342224606808e+03 1.377387465106850284e+00 4.629493122289607410e-03
4.247272371566832589e+03 1.368233270702188031e+00 4.599634252282580257e-03
4.251519643938400804e+03 1.357361297910805842e+00 4.566177490414297969e-03
4.255771163582340705e+03 1.345210338610904222e+00 4.450385232834842830e-03
4.260026934745924336e+03 1.330315977510821090e+00 4.430016751159560062e-03
4.264286961680671993e+03 1.313232876091625645e+00 4.407550573798264641e-03
4.268551248642354039e+03 1.292905333044789051e+00 4.405921730535101305e-03
4.272819799890998183e+03 1.271326844562141289e+00 4.411030133481930182e-03
4.277092619690890388e+03 1.246698018987308476e+00 4.080016316404882007e-03
4.281369712310583054e+03 1.222672221323565900e+00 4.326264630601471019e-03
4.285651082022895025e+03 1.201304222539366195e+00 2.582614966671641608e-03
4.289936733104918858e+03 1.176214265299561301e+00 5.279210316379710083e-03
4.294226669838025373e+03 1.152710951780020254e+00 7.222212567564368323e-03
4.298520896507864563e+03 1.135186636483560996e+00 6.952109399153222347e-03
4.302819417404373780e+03 1.126459741073374543e+00 6.397480698119132475e-03
4.307122236821779552e+03 1.124778442260583988e+00 6.191397796281304308e-03
4.311429359058603040e+03 1.130176693426224954e+00 6.386448236672060720e-03
4.315740788417662770e+03 1.143791799911087148e+00 7.178788809546768346e-03
4.320056529206081905e+03 1.162565243912239366e+00 7.084184015478355891e-03
4.324376585735290064e+03 1.184838464899002686e+00 6.460952758088977718e-03
4.328700962321026054e+03 1.206643937266283384e+00 5.747058748012091704e-03
4.333029663283348782e+03 1.226837965220460180e+00 5.543212051492922392e-03
4.337362692946633615e+03 1.246187916277797347e+00 5.400994886594694469e-03
4.341700055639581478e+03 1.261340302983227080e+00 5.567689479425574559e-03
4.346041755695222491e+03 1.273432145218446720e+00 5.265422618487994831e-03
4.350387797450919606e+03 1.282477583936501242e+00 4.009543088922915867e-03
4.354738185248371337e+03 1.292648402578296274e+00 3.895026899966930189e-03
4.359092923433621763e+03 1.301731217956999309e+00 3.884853971214820550e-03
4.363452016357056891e+03 1.311385184231420142e+00 3.398907699829924536e-03
4.367815468373414660e+03 1.320163924632162589e+00 2.690840342050001069e-03
4.372183283841789489e+03 1.323901206212020787e+00 2.497784944520247026e-03
4.376555467125633186e+03 1.325136715880644855e+00 2.028845409699969737e-03
4.380932022592760404e+03 1.325523198142243064e+00 2.290524741196970932e-03
4.385312954615354101e+03 1.323775447774212077e+00 2.756464769001366194e-03
4.389698267569970994e+03 1.316806477778863504e+00 3.384626463028461013e-03
4.394087965837542470e+03 1.304197468844883190e+00 3.997722648824316750e-03
4.398482053803381859e+03 1.286065731353137176e+00 4.255182105283234102e-03
4.402880535857186260e+03 1.259102379760700607e+00 3.920467117142016969e-03
4.407283416393044718e+03 1.223654486665554098e+00 2.690119334981653024e-03
4.411690699809440048e+03 1.178330119440044843e+00 4.044484451241892910e-03
4.416102390509250654e+03 1.126666056529829429e+00 6.282088196629414915e-03
4.420518492899761441e+03 1.074496545661617342e+00 7.953036361928485579e-03
4.424939011392662906e+03 1.024366771990920855e+00 8.361308360687035382e-03
4.429363950404056595e+03 9.829773561921825165e-01 7.284650152875487596e-03
4.433793314354462382e+03 9.551530719167830030e-01 5.107430305237046185e-03
4.438227107668818462e+03 9.452005068183021441e-01 4.600000304943092401e-03
4.442665334776488635e+03 9.510277987770319186e-01 5.191749163818683288e-03
4.447108000111265937e+03 9.733393473611759994e-01 6.885623671397107619e-03
4.451555108111379013e+03 1.008935535374779091e+00 7.728730130767336691e-03
4.456006663219492111e+03 1.052175456909111517e+00 6.753819268114733855e-03
4.460462669882713271e+03 1.098569476154760860e+00 5.123936505048515971e-03
4.464923132552597053e+03 1.146314169060460797e+00 3.267346615778738729e-03
4.469388055685150903e+03 1.190923714558716595e+00 2.538781350965802798e-03
4.473857443740837880e+03 1.229520226976243080e+00 2.830538309873161049e-03
4.478331301184580298e+03 1.259872227830935554e+00 3.087288294889931582e-03
