# starting wavelength: 3519.890
# ending wavelength: 7668.160
# wav flux eflux
3.523202649938685681e+03 9.421821887703293319e-01 1.594612454337278606e-01
3.526725852588625457e+03 1.001680478137064068e+00 1.237902078604902617e-01
3.530252578441215064e+03 1.057215786239454225e+00 9.267420647719532001e-02
3.533782831019657806e+03 1.104902047284419320e+00 7.097890852311210252e-02
3.537316613850678550e+03 1.143244718097442991e+00 5.588406033518805022e-02
3.540853930464530094e+03 1.174816819491611319e+00 4.604054997471213051e-02
3.544394784394995895e+03 1.202608838850127704e+00 3.770656912541670014e-02
3.547939179179392340e+03 1.223663191959137642e+00 3.143729650001862025e-02
3.551487118358572843e+03 1.234012061989962383e+00 2.722873885651195050e-02
3.555038605476932389e+03 1.236072273110548903e+00 2.333860575354280292e-02
3.558593644082410719e+03 1.226016455151841766e+00 2.105804739090948174e-02
3.562152237726494150e+03 1.202686630066067242e+00 2.034217772482087294e-02
3.565714389964221937e+03 1.173229683510566002e+00 1.927298145693601833e-02
3.569280104354187188e+03 1.141251408769183184e+00 1.803904406563777013e-02
3.572849384458542772e+03 1.100353761664720320e+00 1.739479881740405021e-02
3.576422233843002232e+03 1.055825247438362258e+00 1.684806637204402588e-02
3.579998656076846601e+03 1.009896323108975702e+00 1.626607613368393282e-02
3.583578654732924406e+03 9.612559960159118289e-01 1.590321603551592827e-02
3.587162233387658489e+03 9.089169114032984442e-01 1.613893649016968218e-02
3.590749395621047370e+03 8.560769022622509716e-01 1.720167797300407517e-02
3.594340145016669794e+03 8.086325344624704092e-01 1.734841411542291725e-02
3.597934485161687462e+03 7.564592437527548618e-01 1.755404555453250054e-02
3.601532419646850485e+03 7.082015087859744318e-01 1.987225234251167871e-02
3.605133952066498296e+03 6.705724710211667938e-01 2.014674378380909223e-02
3.608739086018566013e+03 6.391685428382677392e-01 1.928310191080959829e-02
3.612347825104585809e+03 6.102560684595245144e-01 1.407300128239500660e-02
3.615960172929691907e+03 6.075721291249600586e-01 1.388741208759763403e-02
3.619576133102622407e+03 6.251359517569257118e-01 1.491009273686841677e-02
3.623195709235726554e+03 6.573070929528932460e-01 1.843789946708017033e-02
3.626818904944963379e+03 6.942182268762984165e-01 2.142683533079516034e-02
3.630445723849909427e+03 7.376111780020100372e-01 2.351187607682531100e-02
3.634076169573760581e+03 7.868230469448886932e-01 2.378680739954222578e-02
3.637710245743335690e+03 8.230124815072451527e-01 2.455083618935901407e-02
3.641347955989080219e+03 8.692140561514841712e-01 2.451845558617767734e-02
3.644989303945070333e+03 9.142759407331549903e-01 2.285678841842046088e-02
3.648634293249016537e+03 9.569078233229618702e-01 2.200877215102788748e-02
3.652282927542266862e+03 9.958982920609671385e-01 1.988620259528445927e-02
3.655935210469810499e+03 1.029104872644505786e+00 1.913508663734605000e-02
3.659591145680281443e+03 1.047042124620404469e+00 1.859265786981569718e-02
3.663250736825963031e+03 1.056221203753189286e+00 1.792449819921115850e-02
3.666913987562790226e+03 1.056046812976850324e+00 1.755132164859837113e-02
3.670580901550354156e+03 1.042765534767306379e+00 1.827339668140987028e-02
3.674251482451905758e+03 1.019756077990600973e+00 1.880219813040721194e-02
3.677925733934358959e+03 9.835011768544056343e-01 1.856409172327962154e-02
3.681603659668294313e+03 9.460844102980875414e-01 1.774526863530566378e-02
3.685285263327964003e+03 8.946139022660377638e-01 1.603885699768361692e-02
3.688970548591293209e+03 8.441365795616055934e-01 1.637628012902692110e-02
3.692659519139885560e+03 7.969992929741195331e-01 1.819893556493527853e-02
3.696352178659026777e+03 7.504675995332271699e-01 1.693916247528765712e-02
3.700048530837686940e+03 7.284220704436210614e-01 1.727032538508092852e-02
3.703748579368525952e+03 7.213156042029040815e-01 1.716564652648961548e-02
3.707452327947895355e+03 7.364898231809935414e-01 1.920601534182649062e-02
3.711159780275844696e+03 7.644445790107012861e-01 2.246604010951572597e-02
3.714870940056121526e+03 7.983341973372004574e-01 2.396135698900705990e-02
3.718585810996179134e+03 8.366738841221503797e-01 2.509340337928744891e-02
3.722304396807176545e+03 8.787392227587641491e-01 2.584513555428531034e-02
3.726026701203984885e+03 9.303122395981880954e-01 2.664721746140550143e-02
3.729752727905190113e+03 9.884452399405998513e-01 2.722803958901194935e-02
3.733482480633096657e+03 1.042440965398151675e+00 2.667125442977871103e-02
3.737215963113731050e+03 1.113231919399719105e+00 2.313835608332564728e-02
3.740953179076846027e+03 1.171491403541568888e+00 2.171791795644233483e-02
3.744694132255923705e+03 1.226228414986262116e+00 2.084502886413233669e-02
3.748438826388181042e+03 1.272626966852293151e+00 2.066784319558749930e-02
3.752187265214570289e+03 1.305279607411559795e+00 2.064791442720187442e-02
3.755939452479786269e+03 1.329641054447937343e+00 1.984650829847365433e-02
3.759695391932267285e+03 1.348426115188565033e+00 1.962596634047692953e-02
3.763455087324201031e+03 1.354884940047625275e+00 1.971440722441673149e-02
3.767218542411526414e+03 1.354814988510400831e+00 1.930982886831965339e-02
3.770985760953939007e+03 1.342065152691538366e+00 1.924129462982888950e-02
3.774756746714894234e+03 1.330007714572792876e+00 1.898567898523731076e-02
3.778531503461610555e+03 1.321158332874940111e+00 1.967801007871995689e-02
3.782310034965073100e+03 1.316712264431940671e+00 1.904111890916571070e-02
3.786092345000039586e+03 1.314184374647648701e+00 1.848867078623335145e-02
3.789878437345040766e+03 1.311900749498730256e+00 1.876449559811431064e-02
3.793668315782387253e+03 1.302352023696458083e+00 1.887937227418857306e-02
3.797461984098170888e+03 1.285568238386055606e+00 1.851032064238776129e-02
3.801259446082270188e+03 1.263197016610036805e+00 1.797041837801095776e-02
3.805060705528353537e+03 1.236523573368743412e+00 1.831600178984513216e-02
3.808865766233883278e+03 1.214262184508123843e+00 1.891822865711467391e-02
3.812674632000118436e+03 1.197472892140173162e+00 1.683809417302623707e-02
3.816487306632119726e+03 1.169712588156767819e+00 2.075249181378908958e-02
3.820303793938753188e+03 1.149223709915812464e+00 2.204650127414718372e-02
3.824124097732693372e+03 1.132271594449796526e+00 2.209551432158287157e-02
3.827948221830427428e+03 1.117131450121589209e+00 2.205049096339419326e-02
3.831776170052258749e+03 1.096821502202139698e+00 1.986373244051253817e-02
3.835607946222312421e+03 1.080908049936236459e+00 1.923266052937800882e-02
3.839443554168536139e+03 1.070304630002064883e+00 1.885352077521713562e-02
3.843282997722705659e+03 1.063668682919218567e+00 1.879690822266266367e-02
3.847126280720429804e+03 1.061791437349785650e+00 1.973451280382840928e-02
3.850973407001151372e+03 1.066583869854007993e+00 1.972161297093813492e-02
3.854824380408153957e+03 1.083965899350888717e+00 1.854691331683168756e-02
3.858679204788563311e+03 1.110770435319909266e+00 1.588924755279653642e-02
3.862537883993353262e+03 1.120814880711242356e+00 1.589880388697836530e-02
3.866400421877347981e+03 1.128965306455186113e+00 1.587468110052947176e-02
3.870266822299226533e+03 1.127155296393337558e+00 1.572454928497073884e-02
3.874137089121526969e+03 1.114190440390083081e+00 1.562866652824792049e-02
3.878011226210649966e+03 1.098263339048716425e+00 1.606304337093468829e-02
3.881889237436861549e+03 1.084655204581297161e+00 1.627972601780864823e-02
3.885771126674299921e+03 1.067243264572969030e+00 1.722848482263099334e-02
3.889656897800975457e+03 1.061188245390435547e+00 1.807043759994931761e-02
3.893546554698777527e+03 1.054773924486916981e+00 2.010653692571811105e-02
3.897440101253477678e+03 1.062988613421904871e+00 2.089367975901140762e-02
3.901337541354732366e+03 1.068005614639071066e+00 1.316023917070617034e-02
3.905238878896088409e+03 1.101574371619301385e+00 1.684926024405621406e-02
3.909144117774985716e+03 1.145888700275711436e+00 2.057009761250457036e-02
3.913053261892762293e+03 1.193223929229858093e+00 2.039622289052034701e-02
3.916966315154656058e+03 1.233595401656517154e+00 1.841833823193321854e-02
3.920883281469812118e+03 1.276228542533201615e+00 1.680164089662501692e-02
3.924804164751283224e+03 1.317090569703660563e+00 1.495886986937887408e-02
3.928728968916035683e+03 1.338448587306600768e+00 1.484546640870966841e-02
3.932657697884953450e+03 1.345677653592539214e+00 1.562117180728867481e-02
3.936590355582839493e+03 1.340896241313910497e+00 1.551640285621070509e-02
3.940526945938423523e+03 1.318464248874467337e+00 1.578062140430539634e-02
3.944467472884363360e+03 1.284693070588465602e+00 1.784212480042029342e-02
3.948411940357249023e+03 1.254436662030858907e+00 1.842792566449190025e-02
3.952360352297607733e+03 1.229232938348461257e+00 1.814176114306262355e-02
3.956312712649906643e+03 1.214494454684320379e+00 1.783310491329332184e-02
3.960269025362557841e+03 1.209155693102871076e+00 1.842796064031898898e-02
3.964229294387921527e+03 1.213042940194546171e+00 1.901941686950708171e-02
3.968193523682310570e+03 1.209773785760654974e+00 1.886452987956819052e-02
3.972161717205994591e+03 1.204241897929246852e+00 1.877435594317448941e-02
3.976133878923201792e+03 1.202084831763130746e+00 1.980266362728138121e-02
3.980110012802126221e+03 1.199023490719320018e+00 1.800637780248531133e-02
3.984090122814929600e+03 1.190368405481781577e+00 1.660626859540082628e-02
3.988074212937745870e+03 1.177364588106040832e+00 1.509385204601552954e-02
3.992062287150684824e+03 1.147692382384245313e+00 1.744985850874656089e-02
3.996054349437837118e+03 1.108322019949576465e+00 1.233954588463138241e-02
4.000050403787276082e+03 1.081205468948593929e+00 1.249161432358759406e-02
4.004050454191064546e+03 1.057561597767198158e+00 1.359728050142105550e-02
4.008054504645257111e+03 1.031896627169076597e+00 1.400964701605773161e-02
4.012062559149903791e+03 1.018057601914917010e+00 1.482550570728524177e-02
4.016074621709055009e+03 1.011375573571402064e+00 1.625802411497537930e-02
4.020090696330765240e+03 1.013259438316909122e+00 1.615349570907649232e-02
4.024110787027097558e+03 1.034452367366698100e+00 1.578874091650653982e-02
4.028134897814125907e+03 1.066156613905639317e+00 1.559758703134623593e-02
4.032163032711941469e+03 1.116122244636874594e+00 1.868068951522515800e-02
4.036195195744654484e+03 1.167327152062229256e+00 1.880139439422789591e-02
4.040231390940400615e+03 1.219774626552335040e+00 1.768366991595968218e-02
4.044271622331342314e+03 1.269288887917477737e+00 1.804199088515541158e-02
4.048315893953675186e+03 1.314167030794522795e+00 1.732843096220434975e-02
4.052364209847629809e+03 1.352047858769885647e+00 1.531035014502853293e-02
4.056416574057479011e+03 1.370798022850267861e+00 1.528502484551089863e-02
4.060472990631537868e+03 1.376209739985384095e+00 1.523544994536855934e-02
4.064533463622170530e+03 1.363199656220785094e+00 1.558926269737087068e-02
4.068597997085794304e+03 1.331786284336729853e+00 1.166759901843104907e-02
4.072666595082881486e+03 1.300280882513388692e+00 1.067759332643238718e-02
4.076739261677965715e+03 1.270123093268077152e+00 9.683806483712292107e-03
4.080816000939644709e+03 1.235471796794616495e+00 9.478986134847766643e-03
4.084896816940585722e+03 1.193008759105845584e+00 1.235822667083035301e-02
4.088981713757527814e+03 1.154762525092806191e+00 1.280989013050588300e-02
4.093070695471286854e+03 1.128240068435444554e+00 1.187582869409656988e-02
4.097163766166759160e+03 1.108642421728051053e+00 1.198552095019751913e-02
4.101260929932927866e+03 1.101335730798473245e+00 1.413237515808104909e-02
4.105362190862862008e+03 1.092450664935055826e+00 1.388140711205223220e-02
4.109467553053726078e+03 1.097054598835904171e+00 1.206072852744900260e-02
4.113577020606780934e+03 1.095495200523133983e+00 1.170098038301601445e-02
4.117690597627389252e+03 1.091026984870186123e+00 1.170900880384952332e-02
4.121808288225018259e+03 1.091636404026432805e+00 1.097871274549548984e-02
4.125930096513244280e+03 1.084143987155797628e+00 1.191292089244000256e-02
4.130056026609759101e+03 1.077453771675108696e+00 1.216468005419971826e-02
4.134186082636369974e+03 1.070472642472937608e+00 1.162024551650680734e-02
4.138320268719007800e+03 1.066127884245966717e+00 1.122208956551901636e-02
4.142458588987728035e+03 1.062975261127659499e+00 9.622152864183540835e-03
4.146601047576717065e+03 1.070360155867663643e+00 1.020451855955218680e-02
4.150747648624294925e+03 1.087896701681518419e+00 9.739147558181364059e-03
4.154898396272920763e+03 1.106474997264309090e+00 8.676431794398411709e-03
4.159053294669195566e+03 1.122956435882766835e+00 7.955672804820106830e-03
4.163212347963865795e+03 1.133673893923625497e+00 8.186883978225456202e-03
4.167375560311830668e+03 1.145883547172733108e+00 7.845591544548863316e-03
4.171542935872143971e+03 1.162424365733371934e+00 7.698643199128615312e-03
4.175714478808017702e+03 1.178766589097467232e+00 7.833657919433379205e-03
4.179890193286827525e+03 1.198349856887477971e+00 7.811126298355440881e-03
4.184070083480115500e+03 1.211656744644241446e+00 5.922168340097022816e-03
4.188254153563597356e+03 1.232662110416857137e+00 5.946275052396370227e-03
4.192442407717161586e+03 1.250101318773781056e+00 6.081949000468604011e-03
4.196634850124880359e+03 1.267987140014473324e+00 8.573707783307640828e-03
4.200831484975006788e+03 1.294214147247172209e+00 9.614091604913825584e-03
4.205032316459983122e+03 1.323659891179858938e+00 8.815092413848681085e-03
4.209237348776444378e+03 1.361121055019391735e+00 1.206118603925000407e-02
4.213446586125221984e+03 1.396099709790411758e+00 1.603425033004499123e-02
4.217660032711349231e+03 1.419270835526164287e+00 1.842937724403849800e-02
4.221877692744061278e+03 1.424066920411612536e+00 1.812481030922065070e-02
4.226099570436806971e+03 1.415533450896171885e+00 1.610398039260352646e-02
4.230325670007245208e+03 1.385843658299820591e+00 1.542497130624422876e-02
4.234555995677254032e+03 1.338289133725204749e+00 1.724084717068007783e-02
4.238790551672932452e+03 1.274125348103919197e+00 2.114288034815231185e-02
4.243029342224606808e+03 1.204442491043268504e+00 2.126094878950568826e-02
4.247272371566832589e+03 1.138307804120517686e+00 1.908724770071797139e-02
4.251519643938400804e+03 1.081670135385766729e+00 1.523436869851309099e-02
4.255771163582340705e+03 1.039312904674148053e+00 1.306679077280430840e-02
4.260026934745924336e+03 1.018514718212887527e+00 1.454434294322295464e-02
4.264286961680671993e+03 1.014669257072436714e+00 1.418605473038124856e-02
4.268551248642354039e+03 1.028802044550024331e+00 1.119014214703417665e-02
4.272819799890998183e+03 1.057295255735654527e+00 9.581537259166907766e-03
4.277092619690890388e+03 1.093531704984601616e+00 9.578850427404889123e-03
4.281369712310583054e+03 1.136632734460724325e+00 9.311347306096175516e-03
4.285651082022895025e+03 1.184032542338634642e+00 9.447436597894147414e-03
4.289936733104918858e+03 1.237297484081161691e+00 1.334328042872891425e-02
4.294226669838025373e+03 1.286643526511106472e+00 1.664594548224983261e-02
4.298520896507864563e+03 1.322782204050511501e+00 1.663415552948647666e-02
4.302819417404373780e+03 1.337181324150554573e+00 1.536994906656793426e-02
4.307122236821779552e+03 1.335183098207901820e+00 1.390992131113102763e-02
4.311429359058603040e+03 1.311867326184342097e+00 1.578038341954897048e-02
4.315740788417662770e+03 1.271997941516114006e+00 1.744157130944354664e-02
4.320056529206081905e+03 1.214012478497896064e+00 1.752100938583941656e-02
4.324376585735290064e+03 1.152037453021363511e+00 1.466268114210455588e-02
4.328700962321026054e+03 1.091509666901040454e+00 1.119115768405455104e-02
4.333029663283348782e+03 1.037082389207700128e+00 1.057080093805215330e-02
4.337362692946633615e+03 9.921133101748149663e-01 1.085144453992579333e-02
4.341700055639581478e+03 9.568714693788974435e-01 1.004532780887861659e-02
4.346041755695222491e+03 9.327921877571612175e-01 9.499181103517526786e-03
4.350387797450919606e+03 9.189690414399888096e-01 9.346549854736846408e-03
4.354738185248371337e+03 9.160185177496815712e-01 9.086206261166421272e-03
4.359092923433621763e+03 9.207008876193439884e-01 9.065675524807501745e-03
4.363452016357056891e+03 9.308191320307940275e-01 8.506769852290811673e-03
4.367815468373414660e+03 9.514071761795298565e-01 7.512062133772902384e-03
4.372183283841789489e+03 9.848976165038495489e-01 9.702365553989200989e-03
4.376555467125633186e+03 1.023894421490028295e+00 9.821050307173328012e-03
4.380932022592760404e+03 1.061262578614841523e+00 8.181833207571332853e-03
4.385312954615354101e+03 1.094126636933888452e+00 7.589797361381978719e-03
4.389698267569970994e+03 1.120003223443045703e+00 6.483591291299925508e-03
4.394087965837542470e+03 1.133721279558362438e+00 6.219618303914787108e-03
4.398482053803381859e+03 1.137665835281800542e+00 6.143296109081312038e-03
4.402880535857186260e+03 1.124064943801660776e+00 6.160959064793651054e-03
4.407283416393044718e+03 1.103296608802158740e+00 6.748157152910257660e-03
4.411690699809440048e+03 1.080606466043674496e+00 6.691175581243871337e-03
4.416102390509250654e+03 1.052534224221533199e+00 6.723893084744672101e-03
4.420518492899761441e+03 1.022008977657788975e+00 6.777669499502913912e-03
4.424939011392662906e+03 9.893577964117429291e-01 6.120416562698534520e-03
4.429363950404056595e+03 9.680656663189322053e-01 5.916949287131247938e-03
4.433793314354462382e+03 9.531489726882530489e-01 6.635913320292250415e-03
4.438227107668818462e+03 9.478994917396958986e-01 7.476884986592291851e-03
4.442665334776488635e+03 9.556214645887123327e-01 7.164751456252230893e-03
4.447108000111265937e+03 9.751489238540613780e-01 6.214803970646838593e-03
4.451555108111379013e+03 1.010144668269044921e+00 6.798908203046650015e-03
4.456006663219492111e+03 1.054951854490667529e+00 6.604393101210494915e-03
4.460462669882713271e+03 1.108091998219827179e+00 7.994340255812736398e-03
4.464923132552597053e+03 1.161970101858801785e+00 9.303394882592680784e-03
4.469388055685150903e+03 1.216940075741260952e+00 1.101241710975168174e-02
4.473857443740837880e+03 1.260235810517675636e+00 9.883733919730641054e-03
4.478331301184580298e+03 1.290646297736684378e+00 8.660206933911009444e-03
4.482809632485766087e+03 1.306679594966724034e+00 5.838544224322180821e-03
4.487292442118253348e+03 1.296819614509601148e+00 8.312039725416916006e-03
4.491779734560373072e+03 1.270188497028612806e+00 1.181878418533263177e-02
4.496271514294934605e+03 1.237119198474451620e+00 1.292049083261234167e-02
4.500767785809231100e+03 1.198218791749908751e+00 1.205448625888583085e-02
4.505268553595042249e+03 1.158931714294694437e+00 1.023420840168717989e-02
4.509773822148638828e+03 1.122948771294412618e+00 7.991738147815981644e-03
4.514283595970789065e+03 1.099172843887610274e+00 8.029128678948326339e-03
4.518797879566761367e+03 1.082642222379054164e+00 7.260828540002690554e-03
4.523316677446328868e+03 1.083319682971323639e+00 7.592956979220473468e-03
4.527839994123776705e+03 1.096133370289747333e+00 7.344912242379667000e-03
4.532367834117902021e+03 1.125269080876595940e+00 8.402263003904602429e-03
4.536900201952022144e+03 1.160861255143196713e+00 9.687689069441417222e-03
4.541437102153975502e+03 1.194951219359356775e+00 1.065173294541022983e-02
4.545978539256130716e+03 1.227706481170607322e+00 1.078621375587430174e-02
4.550524517795388419e+03 1.251415285654400078e+00 1.044149725362991665e-02
4.555075042313184895e+03 1.266087350482990148e+00 9.671570897561857297e-03
4.559630117355500261e+03 1.268225312689105655e+00 1.047773506261672795e-02
4.564189747472856652e+03 1.267058433380458204e+00 1.027547494452401948e-02
4.568753937220330954e+03 1.257464154852644400e+00 1.019810320019234016e-02
4.573322691157552981e+03 1.233250060148202154e+00 1.086528437525876439e-02
4.577896013848711846e+03 1.205292619430963885e+00 9.263572239847490258e-03
4.582473909862562323e+03 1.182129810263290226e+00 7.860815150172208166e-03
4.587056383772426670e+03 1.166128980263267945e+00 7.247699301728130136e-03
