# starting wavelength: 4056.680
# ending wavelength: 9025.040
# wav flux eflux
4.060472990631537868e+03 1.793300821722852767e+00 1.905790344127374775e-02
4.064533463622170530e+03 1.826828784593020005e+00 1.821968807521029410e-02
4.068597997085794304e+03 1.854058797695137262e+00 1.395972116472654276e-02
4.072666595082881486e+03 1.875756167710457056e+00 1.238164530015255053e-02
4.076739261677965715e+03 1.898454526296556644e+00 1.037333306554123237e-02
4.080816000939644709e+03 1.921219981110670494e+00 8.980572828642122835e-03
4.084896816940585722e+03 1.944631844894902262e+00 7.451922423459125984e-03
4.088981713757527814e+03 1.966467914343214218e+00 6.220170553492454686e-03
4.093070695471286854e+03 1.986171676485381399e+00 5.525911408518810464e-03
4.097163766166759160e+03 2.003362624183012031e+00 5.139738622754517691e-03
4.101260929932927866e+03 2.017754604961986775e+00 5.133032659004575782e-03
4.105362190862862008e+03 2.031672773596184811e+00 4.766292273160825654e-03
4.109467553053726078e+03 2.046586663717700816e+00 4.604261571154680092e-03
4.113577020606780934e+03 2.061307980468760181e+00 4.721107239397438066e-03
4.117690597627389252e+03 2.074317957803277324e+00 4.748560087705429485e-03
4.121808288225018259e+03 2.085461852089140145e+00 4.762825047780520037e-03
4.125930096513244280e+03 2.094678724937185432e+00 4.820809513998632403e-03
4.130056026609759101e+03 2.101475105159290369e+00 4.781043808698193925e-03
4.134186082636369974e+03 2.104818647730878123e+00 4.761926730414458610e-03
4.138320268719007800e+03 2.107173871150260780e+00 4.865769203014909394e-03
4.142458588987728035e+03 2.105981859806318024e+00 5.148523204298684208e-03
4.146601047576717065e+03 2.103399629893840661e+00 5.401178641421855268e-03
4.150747648624294925e+03 2.099430714370371209e+00 5.616391841198064422e-03
4.154898396272920763e+03 2.094043954377439398e+00 5.575314144754887381e-03
4.159053294669195566e+03 2.088381564189505379e+00 5.516531288212551780e-03
4.163212347963865795e+03 2.083151637674513168e+00 5.682501668960956466e-03
4.167375560311830668e+03 2.076315996713240519e+00 5.642567968013077057e-03
4.171542935872143971e+03 2.068418990650579214e+00 5.607271719696981307e-03
4.175714478808017702e+03 2.059813173987453894e+00 5.590535912502182965e-03
4.179890193286827525e+03 2.050601554911361646e+00 5.591643705772954276e-03
4.184070083480115500e+03 2.040107376390739802e+00 5.570846178784506254e-03
4.188254153563597356e+03 2.029619616909029034e+00 5.747456284956862539e-03
4.192442407717161586e+03 2.018192813059076496e+00 5.801242485835166225e-03
4.196634850124880359e+03 2.006061773932039216e+00 5.902223073101810907e-03
4.200831484975006788e+03 1.993631837646619331e+00 5.791880301170847928e-03
4.205032316459983122e+03 1.983818432618484673e+00 5.746752390686986171e-03
4.209237348776444378e+03 1.972012377643293402e+00 5.822258267052431678e-03
4.213446586125221984e+03 1.962779965488263390e+00 6.011540103772838525e-03
4.217660032711349231e+03 1.953700596229585029e+00 5.615691124486755885e-03
4.221877692744061278e+03 1.943545283496417087e+00 5.314134509789357301e-03
4.226099570436806971e+03 1.932111655991414434e+00 4.893537738928526760e-03
4.230325670007245208e+03 1.917676333787067255e+00 4.877816829271204753e-03
4.234555995677254032e+03 1.901496406687779306e+00 4.863504414145772628e-03
4.238790551672932452e+03 1.883091131206831248e+00 4.881482430146732825e-03
4.243029342224606808e+03 1.862489369384122462e+00 4.561424246878766249e-03
4.247272371566832589e+03 1.842347778124505231e+00 4.558210900626987090e-03
4.251519643938400804e+03 1.823141943566164658e+00 4.498430986079162211e-03
4.255771163582340705e+03 1.804145334306489046e+00 4.416109951409836858e-03
4.260026934745924336e+03 1.785636031454845174e+00 4.397238833312801937e-03
4.264286961680671993e+03 1.766661004891537656e+00 4.344324411315331723e-03
4.268551248642354039e+03 1.747156205070671708e+00 4.482521744879361045e-03
4.272819799890998183e+03 1.725381019451519338e+00 5.008083204294178775e-03
4.277092619690890388e+03 1.704955801737744636e+00 4.968490513669740309e-03
4.281369712310583054e+03 1.688377540593244852e+00 4.352394758383174717e-03
4.285651082022895025e+03 1.674713712101404850e+00 3.702657115364587064e-03
4.289936733104918858e+03 1.663713934148219220e+00 3.473594892379750377e-03
4.294226669838025373e+03 1.657062112075818217e+00 3.416417444359675943e-03
4.298520896507864563e+03 1.655539952625315614e+00 3.644450211329081438e-03
4.302819417404373780e+03 1.657290753352404833e+00 3.753170592744043202e-03
4.307122236821779552e+03 1.663590658759122043e+00 3.389629048095905636e-03
4.311429359058603040e+03 1.671056268194923478e+00 3.561437324608090604e-03
4.315740788417662770e+03 1.680313937510058864e+00 4.229304001194687281e-03
4.320056529206081905e+03 1.692885651782695122e+00 4.184924366292559240e-03
4.324376585735290064e+03 1.709700364973956388e+00 3.887481670389127380e-03
4.328700962321026054e+03 1.730557747416203052e+00 4.170860858763005344e-03
4.333029663283348782e+03 1.754163487953511513e+00 4.682016703110184440e-03
4.337362692946633615e+03 1.780719102678023358e+00 5.827136975297594543e-03
4.341700055639581478e+03 1.803996252868743877e+00 5.933334606865126037e-03
4.346041755695222491e+03 1.827392585235403599e+00 5.974167706376593348e-03
4.350387797450919606e+03 1.849622387582610328e+00 5.978918691807374140e-03
4.354738185248371337e+03 1.868463024350071722e+00 5.923463247085366395e-03
4.359092923433621763e+03 1.884422835310450184e+00 5.732807027124175656e-03
4.363452016357056891e+03 1.893141159993766420e+00 5.641279762719574042e-03
4.367815468373414660e+03 1.897908754050896096e+00 5.770179840439904582e-03
4.372183283841789489e+03 1.896892429895193910e+00 5.772789261606979527e-03
4.376555467125633186e+03 1.888071601892511220e+00 5.320309403617309342e-03
4.380932022592760404e+03 1.869610348198823990e+00 5.170680245872014136e-03
4.385312954615354101e+03 1.843369925403225196e+00 5.386144207162881295e-03
4.389698267569970994e+03 1.811139232154036938e+00 5.608918313625287262e-03
4.394087965837542470e+03 1.768466871504205340e+00 5.558300174278690831e-03
4.398482053803381859e+03 1.721844462310493373e+00 6.257878850742712960e-03
4.402880535857186260e+03 1.676911931921370336e+00 6.219378126581129491e-03
4.407283416393044718e+03 1.629656165688886826e+00 6.195035783479315057e-03
4.411690699809440048e+03 1.588564351626062576e+00 6.365779570082051239e-03
4.416102390509250654e+03 1.551242872821338992e+00 6.670156174097946131e-03
4.420518492899761441e+03 1.518107564474819204e+00 7.151096052119570827e-03
4.424939011392662906e+03 1.492537791078655918e+00 6.701881912812811259e-03
4.429363950404056595e+03 1.477518624034539485e+00 5.277411840819749844e-03
4.433793314354462382e+03 1.475351137319258710e+00 4.477112137728266397e-03
4.438227107668818462e+03 1.486654769203044513e+00 4.931307936395177768e-03
4.442665334776488635e+03 1.507393443363091112e+00 5.168928345465003543e-03
4.447108000111265937e+03 1.541966936421071743e+00 6.445234561412122726e-03
4.451555108111379013e+03 1.585438756376547298e+00 6.591220437119431862e-03
4.456006663219492111e+03 1.634871464216869574e+00 7.045617918774576063e-03
4.460462669882713271e+03 1.681585108506705950e+00 6.816027551506805178e-03
4.464923132552597053e+03 1.726891114952331385e+00 7.248484568182069453e-03
4.469388055685150903e+03 1.768275591220958898e+00 7.986786448362403687e-03
4.473857443740837880e+03 1.803239024086383147e+00 7.078952746153241958e-03
4.478331301184580298e+03 1.824732514707997133e+00 5.652639019210345221e-03
4.482809632485766087e+03 1.832151860644190444e+00 7.295563103480980430e-03
4.487292442118253348e+03 1.828046747675091233e+00 9.148190018543994953e-03
4.491779734560373072e+03 1.819365884544735135e+00 9.388609800702241506e-03
4.496271514294934605e+03 1.797389033311998618e+00 9.660280390344474014e-03
4.500767785809231100e+03 1.772358260753626347e+00 7.615040445558979472e-03
4.505268553595042249e+03 1.747212874980153208e+00 6.207009469854849783e-03
4.509773822148638828e+03 1.727520507040812170e+00 6.080244055961867358e-03
4.514283595970789065e+03 1.711703363674470513e+00 6.150444544217825021e-03
4.518797879566761367e+03 1.702571516871815849e+00 5.872807568858683970e-03
4.523316677446328868e+03 1.702973044271854031e+00 5.817293773118902521e-03
4.527839994123776705e+03 1.713317737882380065e+00 6.108293922765049150e-03
4.532367834117902021e+03 1.731787213255993496e+00 6.582181183980443176e-03
4.536900201952022144e+03 1.756607105634550692e+00 7.040273143628359744e-03
4.541437102153975502e+03 1.782579083418025290e+00 6.769007026302706169e-03
4.545978539256130716e+03 1.810696866454009957e+00 7.166923577276995694e-03
4.550524517795388419e+03 1.834645876403406151e+00 7.324283575252908685e-03
4.555075042313184895e+03 1.850054340587133250e+00 7.342621173577162756e-03
4.559630117355500261e+03 1.860213087726536596e+00 7.142459759976266254e-03
4.564189747472856652e+03 1.865829372047606904e+00 6.410490234930359479e-03
4.568753937220330954e+03 1.863701006619517209e+00 6.437193955112246145e-03
4.573322691157552981e+03 1.851543995257274311e+00 6.908708913007184128e-03
4.577896013848711846e+03 1.832001155670433645e+00 5.994026746095035968e-03
4.582473909862562323e+03 1.809923436325766133e+00 4.599744843016615944e-03
4.587056383772426670e+03 1.785937586643960628e+00 4.107568696268396914e-03
4.591643440156200086e+03 1.761608889194151484e+00 4.059808703337788004e-03
4.596235083596357981e+03 1.737974176399730952e+00 3.924552864506431274e-03
4.600831318679955984e+03 1.714919646952856924e+00 4.051940681422195982e-03
4.605432149998637215e+03 1.693399666284228111e+00 4.072394978371153204e-03
4.610037582148637739e+03 1.674080401790082551e+00 4.046024691855694758e-03
4.614647619730787483e+03 1.656547339532802088e+00 3.964630582319927758e-03
4.619262267350520233e+03 1.641755537910259966e+00 3.998158105703138870e-03
4.623881529617872729e+03 1.629480205707162010e+00 4.482674565957067529e-03
4.628505411147491941e+03 1.619242819339513195e+00 4.948223282024362055e-03
4.633133916558640522e+03 1.610476791252253070e+00 4.650241022878652368e-03
4.637767050475200449e+03 1.601989488437670861e+00 3.970152850484250096e-03
4.642404817525677572e+03 1.591836460706122836e+00 4.094649432020189272e-03
4.647047222343205249e+03 1.581218325168678218e+00 4.765518562534188339e-03
4.651694269565549803e+03 1.572022777980235819e+00 5.321421872675890542e-03
4.656345963835116891e+03 1.563515761889970435e+00 4.915313321837208073e-03
4.661002309798953320e+03 1.558903563056978969e+00 4.244976869916764622e-03
4.665663312108753416e+03 1.556873387862844238e+00 3.959967969808186883e-03
4.670328975420864481e+03 1.559241706680985162e+00 3.921847621933632205e-03
4.674999304396286789e+03 1.566217071762628477e+00 3.311918676293077596e-03
4.679674303700684504e+03 1.573757667403408167e+00 3.307308468769785698e-03
4.684353978004386590e+03 1.583747065760236161e+00 3.427923631789015022e-03
4.689038331982392265e+03 1.595358273760027368e+00 3.444137935276657663e-03
4.693727370314376458e+03 1.605438262447347331e+00 3.229102434025449449e-03
4.698421097684692540e+03 1.613035069419599621e+00 3.181905610710967537e-03
4.703119518782378691e+03 1.616496027306247418e+00 3.130189276553900675e-03
4.707822638301162442e+03 1.617285816901300910e+00 3.084325104392832660e-03
4.712530460939465229e+03 1.616616155410578459e+00 3.607967895974318728e-03
4.717242991400406027e+03 1.611027596492536018e+00 3.461271790527314322e-03
4.721960234391808626e+03 1.601134532022690182e+00 3.733747819973419393e-03
4.726682194626201635e+03 1.588836908014715110e+00 4.053911238705947689e-03
4.731408876820829391e+03 1.573225195534294851e+00 4.299838116488001807e-03
4.736140285697651962e+03 1.556779710971988084e+00 3.937722357036854345e-03
4.740876425983350600e+03 1.540207823788956931e+00 3.144439671473444296e-03
4.745617302409335934e+03 1.526034325873707242e+00 2.564766306881934368e-03
4.750362919711747054e+03 1.517103160400605999e+00 2.486610904103990233e-03
4.755113282631459697e+03 1.510619963976906899e+00 2.482454491476520329e-03
4.759868395914093526e+03 1.505680712292039036e+00 2.457305380861227444e-03
4.764628264310008490e+03 1.504716106401788656e+00 2.825471660651171328e-03
4.769392892574320285e+03 1.504988834353521598e+00 3.194029519282372449e-03
4.774162285466896719e+03 1.506765061028619845e+00 2.938465704689498074e-03
4.778936447752364984e+03 1.508504493079514841e+00 2.576395020381480779e-03
4.783715384200118933e+03 1.508072580588140532e+00 2.623132755503414411e-03
4.788499099584319993e+03 1.504281768024327448e+00 2.500452604259964344e-03
4.793287598683906253e+03 1.495404275318352294e+00 2.608184586059764890e-03
4.798080886282591564e+03 1.484056243139352249e+00 2.802823644942989498e-03
4.802878967168876443e+03 1.472782902836138108e+00 2.477737177814694648e-03
4.807681846136046261e+03 1.456593341533694241e+00 4.001942879425925831e-03
4.812489527982183972e+03 1.439846440835702346e+00 4.864532834687826206e-03
4.817302017510168298e+03 1.427093496887620772e+00 4.470426280963582695e-03
4.822119319527679181e+03 1.419432548038542130e+00 3.713883440908808016e-03
4.826941438847208701e+03 1.417672012251190772e+00 4.199192405457808849e-03
4.831768380286057436e+03 1.419847305898505052e+00 4.795435230201938043e-03
4.836600148666345376e+03 1.425747578293502071e+00 5.186908826242979040e-03
4.841436748815013743e+03 1.434122966373527985e+00 4.946683291588959905e-03
4.846278185563829538e+03 1.443246239488906735e+00 4.478328527509145042e-03
4.851124463749395545e+03 1.449543624927152274e+00 4.092382859350976974e-03
4.855975588213146693e+03 1.454567998599555656e+00 3.918904704118212484e-03
4.860831563801360971e+03 1.456764416969670517e+00 4.695861772170253912e-03
4.865692395365163975e+03 1.457415626858859170e+00 4.780838523908940464e-03
4.870558087760530725e+03 1.458963394220663901e+00 4.241697742048032398e-03
4.875428645848292945e+03 1.461922313925190897e+00 3.724556352370405818e-03
4.880304074494142696e+03 1.466271149776080307e+00 3.243958784016854821e-03
4.885184378568638749e+03 1.473667860492633652e+00 2.879749050254097349e-03
4.890069562947209306e+03 1.485509720178328941e+00 3.067583016451749713e-03
4.894959632510157462e+03 1.500950897819284702e+00 1.987957226820433361e-03
4.899854592142669389e+03 1.514018273101044976e+00 1.917068546039470871e-03
4.904754446734813428e+03 1.526538605420790118e+00 1.923840496986273761e-03
4.909659201181550088e+03 1.538252301441698888e+00 2.053843137968888559e-03
4.914568860382732964e+03 1.548321683508468771e+00 2.699996437354469560e-03
4.919483429243117826e+03 1.554021203193014955e+00 3.043030313472157907e-03
4.924402912672362618e+03 1.552908738809734901e+00 3.157402431831863795e-03
4.929327315585036558e+03 1.545238775241080553e+00 3.123893169946176905e-03
4.934256642900622865e+03 1.530979116687596342e+00 2.855448512956429517e-03
4.939190899543525120e+03 1.510606673843918779e+00 2.396735772574723044e-03
4.944130090443070912e+03 1.483627525627165378e+00 3.051904196875413356e-03
4.949074220533515472e+03 1.451517846211626273e+00 4.601294011256821560e-03
4.954023294754050767e+03 1.418888972091979950e+00 4.848266099765395978e-03
4.958977318048806410e+03 1.388990209348593741e+00 4.881873870291814424e-03
4.963936295366856939e+03 1.366079625679933462e+00 4.762979160836635327e-03
4.968900231662225451e+03 1.352565102705762801e+00 4.037265732563364087e-03
4.973869131893889062e+03 1.351193831872177897e+00 2.289858605579868887e-03
4.978843001025784361e+03 1.364932240522395812e+00 3.291840034833922943e-03
4.983821844026811959e+03 1.391671234580692307e+00 4.585033282459250945e-03
4.988805665870840130e+03 1.428531792619511798e+00 4.684526337010127758e-03
4.993794471536712990e+03 1.471501085541988552e+00 4.632178366387557263e-03
4.998788266008251412e+03 1.518843228526142397e+00 4.037438816641787144e-03
5.003787054274261209e+03 1.567523822458950944e+00 3.439237191535232489e-03
5.008790841328536771e+03 1.615212766667556643e+00 2.711958225565686345e-03
5.013799632169867436e+03 1.656934386783270430e+00 2.194209101410922978e-03
5.018813431802038394e+03 1.690262519695916010e+00 2.165439760268005574e-03
5.023832245233842514e+03 1.715247649559409115e+00 2.155446182975668569e-03
5.028856077479077612e+03 1.731017408971273097e+00 2.155484885462738767e-03
5.033884933556558281e+03 1.736864727370228900e+00 2.175948653795120938e-03
5.038918818490116792e+03 1.732780136964830797e+00 2.168067356132073568e-03
5.043957737308608557e+03 1.717816757652648629e+00 2.248335427554292495e-03
5.049001695045918495e+03 1.694176018396961858e+00 2.960867636303755619e-03
5.054050696740966487e+03 1.662630840804353749e+00 3.723350132345910543e-03
5.059104747437709193e+03 1.625247391255679075e+00 3.948470303877160345e-03
5.064163852185148244e+03 1.583807702855804411e+00 3.369107461157619127e-03
5.069228016037335692e+03 1.542245941686725352e+00 2.334445923315520924e-03
5.074297244053374015e+03 1.504899440836036995e+00 3.061198840137257290e-03
5.079371541297429758e+03 1.468899274079777273e+00 3.411793088729877382e-03
5.084450912838728073e+03 1.434726641719737072e+00 3.461396222972777225e-03
5.089535363751569093e+03 1.403373979234240343e+00 3.393256926971707169e-03
5.094624899115322478e+03 1.375137778920498377e+00 3.311251028505299548e-03
5.099719524014439230e+03 1.351095349389066280e+00 3.288714737547597088e-03
5.104819243538455339e+03 1.332350223899086306e+00 3.236180457422769326e-03
5.109924062781995417e+03 1.317489483480140056e+00 3.527216208017032971e-03
5.115033986844779065e+03 1.307410535494504478e+00 3.248637732484657530e-03
5.120149020831625421e+03 1.303890993271409338e+00 2.680768783594556035e-03
5.125269169852458617e+03 1.307738395501103934e+00 2.255494925865245831e-03
5.130394439022313236e+03 1.318768858763887719e+00 2.430696924128737495e-03
5.135524833461337039e+03 1.336948264947326548e+00 3.066000055337656915e-03
5.140660358294800062e+03 1.359421553085243373e+00 3.241625659802369573e-03
5.145801018653096435e+03 1.383312212838667898e+00 2.858206909288751787e-03
5.150946819671751655e+03 1.406860891102967193e+00 2.065746268400306569e-03
5.156097766491425318e+03 1.429221598191825482e+00 1.757223563924142874e-03
5.161253864257918394e+03 1.447498192208378720e+00 2.006623192721997562e-03
5.166415118122177773e+03 1.460840646775684259e+00 2.084482692269256591e-03
5.171581533240301724e+03 1.470558220018943096e+00 1.528573801275234182e-03
5.176753114773543530e+03 1.472723508131053904e+00 1.694990110154049679e-03
5.181929867888318768e+03 1.469276831250936555e+00 1.836527584017905775e-03
5.187111797756208944e+03 1.461055969239516639e+00 1.975848524285735153e-03
5.192298909553966951e+03 1.448300368397346993e+00 2.478651314500309160e-03
5.197491208463522526e+03 1.432974720052479611e+00 2.976926884172215442e-03
5.202688699671987706e+03 1.417930626331705746e+00 3.101604218785316246e-03
5.207891388371661378e+03 1.404326926936480646e+00 2.713542020721954745e-03
5.213099279760034733e+03 1.392750598746577584e+00 2.383512937408261215e-03
5.218312379039796724e+03 1.384443964286222961e+00 2.018042524717369220e-03
5.223530691418837705e+03 1.381185718652768069e+00 1.841012164879860793e-03
5.228754222110258524e+03 1.383038204858922704e+00 2.048333921668288402e-03
5.233982976332370527e+03 1.390415885958614428e+00 2.387456595550310496e-03
5.239216959308704645e+03 1.400547671988843002e+00 2.121765721931354390e-03
5.244456176268015042e+03 1.411820010897600897e+00 2.197773302932012462e-03
5.249700632444284565e+03 1.422628752025778098e+00 2.655657447860873023e-03
5.254950333076731113e+03 1.432435883672782406e+00 2.293499228764458824e-03
5.260205283409809454e+03 1.439515088851256452e+00 1.838133356900540846e-03
5.265465488693221232e+03 1.442307274578704446e+00 2.123433432461519811e-03
5.270730954181915877e+03 1.442121286783642820e+00 2.594057027540818024e-03
5.276001685136099695e+03 1.438411515337830737e+00 2.753298077138671262e-03
5.281277686821237694e+03 1.433569230023546526e+00 2.646850064828124276e-03
5.286558964508059944e+03 1.427742715158863973e+00 2.636511890047911044e-03
