# starting wavelength: 3393.840
# ending wavelength: 9069.378
# wav flux eflux
3.395289084168380214e+03 -2.198346527179255716e+00 1.344940054084212733e+01
3.398684373252549449e+03 -7.266167307915987195e-01 9.762717528942802758e+00
3.402083057625803121e+03 5.712863764511719733e-01 7.230177964152013637e+00
3.405485140683430018e+03 1.447937167409757198e+00 5.491396789344540785e+00
3.408890625824114522e+03 2.225011341234945483e+00 4.241695299290983101e+00
3.412299516449939802e+03 2.966865528966525112e+00 3.329600699521784613e+00
3.415711815966390986e+03 3.563110180394503335e+00 2.663423898879557772e+00
3.419127527782358356e+03 4.028665631086575161e+00 2.286212922578126694e+00
3.422546655310141887e+03 4.111563791809780710e+00 1.974452238920056280e+00
3.425969201965453522e+03 3.832642445170706402e+00 1.717589613786646430e+00
3.429395171167419903e+03 3.357104723853960859e+00 1.503976172325788951e+00
3.432824566338588284e+03 2.945720855500779223e+00 1.337379702992699260e+00
3.436257390904928343e+03 2.563146626512878168e+00 1.217272534489793001e+00
3.439693648295834464e+03 1.916618143089387383e+00 1.126877671409800774e+00
3.443133341944131189e+03 1.674035733538950410e+00 1.080429623597831013e+00
3.446576475286076402e+03 1.135986014196020744e+00 1.022539364367751169e+00
3.450023051761363604e+03 5.642974548612174068e-01 9.787377803891419425e-01
3.453473074813126004e+03 -2.095961239658776787e-01 9.368536451965673306e-01
3.456926547887940615e+03 -6.692632012710146849e-01 9.096701729353509069e-01
3.460383474435829612e+03 -7.879773346580667415e-01 9.115512802605388876e-01
3.463843857910266706e+03 -6.290843430220207644e-01 9.427076613466747190e-01
3.467307701768178049e+03 -5.854586332108171476e-01 9.353372819279656136e-01
3.470775009469947236e+03 -9.629932604015580822e-01 9.509546976104304994e-01
3.474245784479418489e+03 -1.037877478016631771e+00 9.124055901135712521e-01
3.477720030263898934e+03 -1.237897761624366932e+00 8.168207382932946015e-01
3.481197750294164052e+03 -9.314724741946411868e-01 7.897409039362490724e-01
3.484678948044459503e+03 -2.728269048974263367e-01 7.963460963257918968e-01
3.488163626992504760e+03 7.456069066855779415e-01 8.177571641103229538e-01
3.491651790619498570e+03 1.389185325912262181e+00 7.813946881294031588e-01
3.495143442410119405e+03 1.673537504706884560e+00 7.762052303085327232e-01
3.498638585852530468e+03 2.047006410250959085e+00 7.555830125334359604e-01
3.502137224438384237e+03 2.575225593634353327e+00 7.416031644934821809e-01
3.505639361662823831e+03 2.973389078501917915e+00 7.734312252630647366e-01
3.509145001024487556e+03 2.936192529454074496e+00 7.480789332749433473e-01
3.512654146025513455e+03 2.801106015612778943e+00 7.393496855196203255e-01
3.516166800171540217e+03 2.432146097356138625e+00 7.627894868566890141e-01
3.519682966971712631e+03 1.890792234184982101e+00 8.125760120645212359e-01
3.523202649938685681e+03 1.097747791507667658e+00 8.869710207379133404e-01
3.526725852588625457e+03 5.697048253983630905e-01 8.688786368918556269e-01
3.530252578441215064e+03 1.238273322665854881e-01 8.778118021602616672e-01
3.533782831019657806e+03 -7.446370644796518334e-02 8.672154412609374141e-01
3.537316613850678550e+03 -6.097115969050381779e-01 8.573791462326314505e-01
3.540853930464530094e+03 -2.995503414876163895e-01 9.108257128158786520e-01
3.544394784394995895e+03 -1.165494462480536342e-01 9.233669077126241964e-01
3.547939179179392340e+03 -3.806397121857181265e-01 8.840540393251924423e-01
3.551487118358572843e+03 -2.835674991187246974e-01 8.782622599690105281e-01
3.555038605476932389e+03 8.611251784452522706e-02 8.974757222267338852e-01
3.558593644082410719e+03 4.846812885292053341e-01 8.844898110795774704e-01
3.562152237726494150e+03 8.844417368008850033e-01 8.559627444154628284e-01
3.565714389964221937e+03 1.368958984153910929e+00 8.114744120362991087e-01
3.569280104354187188e+03 1.525015736780620523e+00 8.301443211126464661e-01
3.572849384458542772e+03 2.048712011807918287e+00 8.245807235063449259e-01
3.576422233843002232e+03 2.730231606280543843e+00 8.491410639597601895e-01
3.579998656076846601e+03 3.289390926419891059e+00 8.235601272798905859e-01
3.583578654732924406e+03 3.891889375661278905e+00 7.712150411557079366e-01
3.587162233387658489e+03 4.140749042527303025e+00 7.413807446048981120e-01
3.590749395621047370e+03 4.140493118394823924e+00 7.051538316111302107e-01
3.594340145016669794e+03 4.087389927096973352e+00 7.011173927872070832e-01
3.597934485161687462e+03 3.777879555957338820e+00 6.873625377832206507e-01
3.601532419646850485e+03 3.157622626246531006e+00 7.376194305210682645e-01
3.605133952066498296e+03 2.754534209340668838e+00 7.621830244431266888e-01
3.608739086018566013e+03 2.788160764317096696e+00 7.405120671079427064e-01
3.612347825104585809e+03 2.500966846394940823e+00 7.015276663159131232e-01
3.615960172929691907e+03 2.473410485139591053e+00 7.323366334705373459e-01
3.619576133102622407e+03 2.416415212620849129e+00 7.022926681929471115e-01
3.623195709235726554e+03 2.514515305602433415e+00 6.563096579571092715e-01
3.626818904944963379e+03 2.510448165523170516e+00 6.623523265789542647e-01
3.630445723849909427e+03 2.573249118913680356e+00 6.584818482817303975e-01
3.634076169573760581e+03 2.459987743415279038e+00 6.353056899733715568e-01
3.637710245743335690e+03 2.173273708902060175e+00 6.281520292150197804e-01
3.641347955989080219e+03 1.974724786645470909e+00 6.276893232825200286e-01
3.644989303945070333e+03 1.567545072923353766e+00 6.541170047388329412e-01
3.648634293249016537e+03 1.383898894292054038e+00 6.482940856177205058e-01
3.652282927542266862e+03 1.183982036062764198e+00 6.262285548696485682e-01
3.655935210469810499e+03 1.374511985643291689e+00 5.899377670950732844e-01
3.659591145680281443e+03 1.567353291587698649e+00 6.121131885396777772e-01
3.663250736825963031e+03 1.519111903442658562e+00 6.047590294225921870e-01
3.666913987562790226e+03 1.467264706993106405e+00 6.199441025748425593e-01
3.670580901550354156e+03 1.389484377090987710e+00 6.100475506560610883e-01
3.674251482451905758e+03 1.400187948797563697e+00 6.047302328143028260e-01
3.677925733934358959e+03 1.106689806623605943e+00 5.790917790003186072e-01
3.681603659668294313e+03 9.416490730880472393e-01 5.564666314191939467e-01
3.685285263327964003e+03 1.094544645726764909e+00 5.378430333341157610e-01
3.688970548591293209e+03 1.039184245556352026e+00 5.662161157830407632e-01
3.692659519139885560e+03 1.266262664189595544e+00 5.701982792223007079e-01
3.696352178659026777e+03 2.002741108985850893e+00 6.106745347892854614e-01
3.700048530837686940e+03 2.298158284321505374e+00 6.041971094239981799e-01
3.703748579368525952e+03 2.429703755076714877e+00 6.073158341777642466e-01
3.707452327947895355e+03 2.453179046614480718e+00 5.965470062898269310e-01
3.711159780275844696e+03 2.404606630438722803e+00 5.786478332472519970e-01
3.714870940056121526e+03 2.364471783125680293e+00 5.730104324264535531e-01
3.718585810996179134e+03 2.175714377993100523e+00 5.513250675396250688e-01
3.722304396807176545e+03 1.872600195925636202e+00 5.601909218316873940e-01
3.726026701203984885e+03 1.596670161659687670e+00 5.587537989710490427e-01
3.729752727905190113e+03 1.346802290897894272e+00 5.624575774615004908e-01
3.733482480633096657e+03 1.323260224700449239e+00 5.629774795882759308e-01
3.737215963113731050e+03 1.353590738290896045e+00 5.511337943601750666e-01
3.740953179076846027e+03 1.166673730295560762e+00 5.409479940536651155e-01
3.744694132255923705e+03 9.563438862349828984e-01 5.335754210927482477e-01
3.748438826388181042e+03 7.638722492397489461e-01 5.230180617325380643e-01
3.752187265214570289e+03 4.738139585918904606e-01 5.009996440799703299e-01
3.755939452479786269e+03 4.159694802114058954e-01 4.817769286806489193e-01
3.759695391932267285e+03 5.762283955623586085e-01 5.148800466591492153e-01
3.763455087324201031e+03 1.014033493666371744e+00 4.716062255032767991e-01
3.767218542411526414e+03 1.099273320795558506e+00 4.675314717936375208e-01
3.770985760953939007e+03 1.107700666281585367e+00 4.738558241181518582e-01
3.774756746714894234e+03 1.356988884111605120e+00 4.641992897348239389e-01
3.778531503461610555e+03 1.482890223197972368e+00 4.571230036642331407e-01
3.782310034965073100e+03 1.580960554775615146e+00 4.516569239272306691e-01
3.786092345000039586e+03 1.543073521830380601e+00 4.472864756022881805e-01
3.789878437345040766e+03 1.413392675908597962e+00 3.914932387668411673e-01
3.793668315782387253e+03 1.648318803075055738e+00 3.493919187739603083e-01
3.797461984098170888e+03 1.703300052722495517e+00 3.452040400564641565e-01
3.801259446082270188e+03 1.641999807466497652e+00 3.433218853150837302e-01
3.805060705528353537e+03 1.677872958336479092e+00 3.382958407681611601e-01
3.808865766233883278e+03 1.709616792983867484e+00 3.302413667900099270e-01
3.812674632000118436e+03 1.637484785499270012e+00 3.176432630283283487e-01
3.816487306632119726e+03 1.607846933280713042e+00 3.175470347512348579e-01
3.820303793938753188e+03 1.527255906665646812e+00 3.010430239118480067e-01
3.824124097732693372e+03 1.547298040228356930e+00 2.998214827344077849e-01
3.827948221830427428e+03 1.690384995903746246e+00 2.804753379404587021e-01
3.831776170052258749e+03 1.811814357374594397e+00 2.756304762642245998e-01
3.835607946222312421e+03 1.905617118479340677e+00 2.747518338705018937e-01
3.839443554168536139e+03 1.893721995560456506e+00 2.883181316417174900e-01
3.843282997722705659e+03 1.997097650130590818e+00 2.912514011383115498e-01
3.847126280720429804e+03 2.083128243338805863e+00 2.830317931203769066e-01
3.850973407001151372e+03 2.156055822408543765e+00 2.719634772427684255e-01
3.854824380408153957e+03 2.275724756698667584e+00 2.452655796307367797e-01
3.858679204788563311e+03 2.299059634198477475e+00 2.448738242587183422e-01
3.862537883993353262e+03 2.180283145504493980e+00 2.260386484137263674e-01
3.866400421877347981e+03 2.197272881729932958e+00 2.024417721285008964e-01
3.870266822299226533e+03 2.486023739106094421e+00 2.368999059238042493e-01
3.874137089121526969e+03 2.682144738771047532e+00 2.483104389962282332e-01
3.878011226210649966e+03 2.788766928155929747e+00 2.484346063394114179e-01
3.881889237436861549e+03 3.033206606354752921e+00 2.465135689356292015e-01
3.885771126674299921e+03 3.235191422168964603e+00 2.442894227655586503e-01
3.889656897800975457e+03 3.391490884081293178e+00 2.472922611582089591e-01
3.893546554698777527e+03 3.329039389078067845e+00 2.580282714316464721e-01
3.897440101253477678e+03 3.175734622779309735e+00 3.118356737808944956e-01
3.901337541354732366e+03 3.139231461534659928e+00 3.245458014926345114e-01
3.905238878896088409e+03 2.930145489924862456e+00 3.243419442957644616e-01
3.909144117774985716e+03 2.647695557686206236e+00 3.378018843166001872e-01
3.913053261892762293e+03 2.340469764420360477e+00 3.293490994151797580e-01
3.916966315154656058e+03 2.054106108065796299e+00 3.117902582281523172e-01
3.920883281469812118e+03 1.818018573230588242e+00 3.188907164136327022e-01
3.924804164751283224e+03 1.841681701335533106e+00 3.543278746632073650e-01
3.928728968916035683e+03 2.055548571768524457e+00 3.658768000986860058e-01
3.932657697884953450e+03 2.071242924636130134e+00 3.418037914101595409e-01
3.936590355582839493e+03 2.128966515971277840e+00 3.429855047643222132e-01
3.940526945938423523e+03 2.274507970121832034e+00 3.727411035653455662e-01
3.944467472884363360e+03 2.059523312043854748e+00 3.744421671012528319e-01
3.948411940357249023e+03 1.833090929428174309e+00 3.891661958645508124e-01
3.952360352297607733e+03 1.744394055420628753e+00 3.962958893433632390e-01
3.956312712649906643e+03 1.639512847945471252e+00 3.914867125963912842e-01
3.960269025362557841e+03 1.608887500708833018e+00 3.962311058028592514e-01
3.964229294387921527e+03 1.662448479335671525e+00 3.931747269887150287e-01
3.968193523682310570e+03 1.787968132159060364e+00 3.920596664554397148e-01
3.972161717205994591e+03 1.805984495562528602e+00 3.938765258427064930e-01
3.976133878923201792e+03 1.929013603264845944e+00 3.856443545489476876e-01
3.980110012802126221e+03 2.173300064718780789e+00 3.163443116431674529e-01
3.984090122814929600e+03 2.363281914349591339e+00 3.027365243195868638e-01
3.988074212937745870e+03 2.346433722198788985e+00 3.071066399091381682e-01
3.992062287150684824e+03 2.238720892472821244e+00 3.132077618459826462e-01
3.996054349437837118e+03 2.019065392798150782e+00 2.959145645932534374e-01
4.000050403787276082e+03 1.825376263126726073e+00 2.870764480380337824e-01
4.004050454191064546e+03 1.711975657924664329e+00 2.813852375225714963e-01
4.008054504645257111e+03 1.468933194555342547e+00 2.582585826227326020e-01
4.012062559149903791e+03 1.287253978272242971e+00 2.516003311188891312e-01
4.016074621709055009e+03 1.419388304315721383e+00 2.339295943762422780e-01
4.020090696330765240e+03 1.696262114767167928e+00 2.499761624257698100e-01
4.024110787027097558e+03 1.630517385734659541e+00 2.511104318768247468e-01
4.028134897814125907e+03 1.565230440694125758e+00 2.429952610391613865e-01
4.032163032711941469e+03 1.448693082589119774e+00 2.546656826638952764e-01
4.036195195744654484e+03 1.482567842687382953e+00 2.408301195376805204e-01
4.040231390940400615e+03 1.370823032798938801e+00 2.559356848479127367e-01
4.044271622331342314e+03 1.218124026941292737e+00 2.410842928947804498e-01
4.048315893953675186e+03 1.258212053712975953e+00 2.439209147879359829e-01
4.052364209847629809e+03 1.537887995471578506e+00 2.597193814926856414e-01
4.056416574057479011e+03 1.752993954649122221e+00 2.842438108589757095e-01
4.060472990631537868e+03 2.150136461814245781e+00 2.948382745737420652e-01
4.064533463622170530e+03 2.300531969851015823e+00 3.053623018040898529e-01
4.068597997085794304e+03 2.432011690045050578e+00 3.000723289342795974e-01
4.072666595082881486e+03 2.524318711277533822e+00 2.810743748848785195e-01
4.076739261677965715e+03 2.563805712133898851e+00 2.923771874024928552e-01
4.080816000939644709e+03 2.324875036065523481e+00 3.206142234143533054e-01
4.084896816940585722e+03 2.192370944327426407e+00 3.054125657731688315e-01
4.088981713757527814e+03 1.832198513501120507e+00 2.435314206124011838e-01
4.093070695471286854e+03 1.804987480809242095e+00 2.573912501902018146e-01
4.097163766166759160e+03 1.800284393480685585e+00 2.440554328090323299e-01
4.101260929932927866e+03 1.756830732185072019e+00 2.671811064407126901e-01
4.105362190862862008e+03 1.714310614710664815e+00 2.479193035123547773e-01
4.109467553053726078e+03 1.651511564312777347e+00 2.708981125248019484e-01
4.113577020606780934e+03 1.628826699626753971e+00 2.603711471285560242e-01
4.117690597627389252e+03 1.607520038871940171e+00 2.566547632585932104e-01
4.121808288225018259e+03 1.481407185197015641e+00 2.407875486772206586e-01
4.125930096513244280e+03 1.304539060573981946e+00 2.138044229749972436e-01
4.130056026609759101e+03 1.253770197661172592e+00 2.139199539894027224e-01
4.134186082636369974e+03 1.348636126832073678e+00 2.258068783133943269e-01
4.138320268719007800e+03 1.532777574333667125e+00 2.319331345859759475e-01
4.142458588987728035e+03 1.576686141540691866e+00 2.382607450128232662e-01
4.146601047576717065e+03 1.512965099785985368e+00 2.520806054824175635e-01
4.150747648624294925e+03 1.465672108808156571e+00 2.570424254568423605e-01
4.154898396272920763e+03 1.449435501054230802e+00 2.493671938447773739e-01
4.159053294669195566e+03 1.191342886222116926e+00 2.363711973890217921e-01
4.163212347963865795e+03 1.025119404319963845e+00 2.441150050605958854e-01
4.167375560311830668e+03 8.190732508272657864e-01 2.355608601904144173e-01
4.171542935872143971e+03 8.243234354039297163e-01 2.394154290020092113e-01
4.175714478808017702e+03 8.953211015200945866e-01 2.449874780278056829e-01
4.179890193286827525e+03 1.010251222218903067e+00 2.332946991970249739e-01
4.184070083480115500e+03 1.195236821388948378e+00 2.329143434115956146e-01
4.188254153563597356e+03 1.206406929869257905e+00 2.383424430428527363e-01
4.192442407717161586e+03 1.328039362264909373e+00 2.353974255003008220e-01
4.196634850124880359e+03 1.484959173896218676e+00 2.253441368867087069e-01
4.200831484975006788e+03 1.511303469890031392e+00 2.348375464504055266e-01
4.205032316459983122e+03 1.546053668874673548e+00 2.278307129476423165e-01
4.209237348776444378e+03 1.401452294853232416e+00 2.242118726326753908e-01
4.213446586125221984e+03 1.270717423526678269e+00 2.147876577435007261e-01
4.217660032711349231e+03 1.207791984779923222e+00 2.060627905507391444e-01
4.221877692744061278e+03 1.051800497611886431e+00 2.066917290742980862e-01
4.226099570436806971e+03 7.141832385605778599e-01 2.136439478623110289e-01
4.230325670007245208e+03 4.513441221670621006e-01 2.014969717935781168e-01
4.234555995677254032e+03 3.774517476542205152e-01 1.704003450528256136e-01
4.238790551672932452e+03 1.489444765439220664e-01 1.764990503690076484e-01
4.243029342224606808e+03 -6.911622347667523147e-02 1.860399480829684482e-01
4.247272371566832589e+03 -5.609494842884243937e-02 1.780938062917946929e-01
4.251519643938400804e+03 1.276084530573848852e-01 1.934627813738541702e-01
4.255771163582340705e+03 5.492670109805928291e-01 2.442439288009495835e-01
4.260026934745924336e+03 8.419827928078996715e-01 2.736596001888518259e-01
4.264286961680671993e+03 1.078925602792125016e+00 2.467839283506357007e-01
4.268551248642354039e+03 1.375416843756660290e+00 2.381864072221703821e-01
4.272819799890998183e+03 1.495581432727711491e+00 2.460105957663552834e-01
4.277092619690890388e+03 1.668320413404881020e+00 2.472038108440165194e-01
4.281369712310583054e+03 1.571617009828714995e+00 2.336551188417651526e-01
4.285651082022895025e+03 1.554576454753057391e+00 2.338848464052605824e-01
4.289936733104918858e+03 1.450646229633828943e+00 2.316939819648365650e-01
4.294226669838025373e+03 1.331795882944880605e+00 2.315277166919246232e-01
4.298520896507864563e+03 1.194193221565642116e+00 2.325713754003029266e-01
4.302819417404373780e+03 1.037875994514380285e+00 2.401033924774003958e-01
4.307122236821779552e+03 9.878013453747769290e-01 2.449408471703820867e-01
4.311429359058603040e+03 1.121622048078904310e+00 2.370739969880958087e-01
4.315740788417662770e+03 1.292130227004902876e+00 2.350964735630831082e-01
4.320056529206081905e+03 1.392380872869952491e+00 2.379499535537002164e-01
4.324376585735290064e+03 1.614436144018224883e+00 2.068137132776499965e-01
4.328700962321026054e+03 2.026067260238445744e+00 2.357933164176918006e-01
4.333029663283348782e+03 2.501212886913817712e+00 2.486979412933505995e-01
4.337362692946633615e+03 3.043847527138213493e+00 2.314709619850334743e-01
4.341700055639581478e+03 3.563429767130696924e+00 1.757208354382417126e-01
4.346041755695222491e+03 3.711049202140241476e+00 1.724660147309767799e-01
4.350387797450919606e+03 3.657656327881503966e+00 2.067689414019590055e-01
4.354738185248371337e+03 3.313297509843463828e+00 2.254436147836588744e-01
4.359092923433621763e+03 3.007558906167643542e+00 2.419199358197103855e-01
4.363452016357056891e+03 2.638577361346761574e+00 2.210279411036848163e-01
4.367815468373414660e+03 2.157380224688792314e+00 2.109299219722800545e-01
4.372183283841789489e+03 1.818283174273597425e+00 2.070559740194693743e-01
4.376555467125633186e+03 1.614011718598063361e+00 2.013496130706574905e-01
4.380932022592760404e+03 1.448652295403603407e+00 2.078607550121732150e-01
4.385312954615354101e+03 1.448498955228002982e+00 2.128053279605686410e-01
4.389698267569970994e+03 1.635226142618161571e+00 2.411222107332341436e-01
4.394087965837542470e+03 1.851932969059361334e+00 2.116312889089167482e-01
4.398482053803381859e+03 2.016202168661647143e+00 1.746338407080751387e-01
4.402880535857186260e+03 1.909829607365025828e+00 1.830707198259634572e-01
4.407283416393044718e+03 1.720731476496738299e+00 2.243310893970116016e-01
4.411690699809440048e+03 1.572273196897574277e+00 2.181227219606985124e-01
4.416102390509250654e+03 1.442549080160876462e+00 2.190568604448469847e-01
4.420518492899761441e+03 1.339550659851640901e+00 2.109940737423962875e-01
