# starting wavelength: 5003.372
# ending wavelength: 9165.875
# wav flux eflux
5.003787054274261209e+03 1.053992526526962070e+00 2.846778897821905518e-01
5.008790841328536771e+03 1.113042717660961634e+00 2.080467957842723481e-01
5.013799632169867436e+03 1.157873358258916907e+00 1.532137036733209889e-01
5.018813431802038394e+03 1.203989048233200965e+00 1.154605224109136047e-01
5.023832245233842514e+03 1.240493702866311221e+00 8.867694848768206684e-02
5.028856077479077612e+03 1.272531891762383793e+00 7.021343357178946865e-02
5.033884933556558281e+03 1.288648629619837171e+00 5.587644134959830755e-02
5.038918818490116792e+03 1.297208057684257065e+00 4.542356164247775274e-02
5.043957737308608557e+03 1.301537450334566914e+00 3.791077567106086038e-02
5.049001695045918495e+03 1.299273842528724243e+00 3.235893317888690474e-02
5.054050696740966487e+03 1.291403881663581110e+00 2.809432227910951471e-02
5.059104747437709193e+03 1.280291193349992307e+00 2.481764092258493745e-02
5.064163852185148244e+03 1.260433804054808871e+00 2.297714723651995278e-02
5.069228016037335692e+03 1.234029967856024479e+00 2.241624347803333403e-02
5.074297244053374015e+03 1.220792357993021326e+00 2.114016777289032256e-02
5.079371541297429758e+03 1.215014045453526093e+00 2.071998686245911728e-02
5.084450912838728073e+03 1.217040978913745075e+00 2.088177148116996534e-02
5.089535363751569093e+03 1.208935989811987355e+00 2.003026347581721503e-02
5.094624899115322478e+03 1.198092566545202464e+00 1.918104699637259922e-02
5.099719524014439230e+03 1.197108590351859236e+00 1.948637127055414045e-02
5.104819243538455339e+03 1.202795330323971790e+00 1.920613657999500901e-02
5.109924062781995417e+03 1.206423642517592931e+00 1.957010521216713886e-02
5.115033986844779065e+03 1.208592687991552950e+00 1.943051703998528723e-02
5.120149020831625421e+03 1.217307396315083556e+00 1.703095711936106899e-02
5.125269169852458617e+03 1.213112451829320371e+00 1.626017697183287924e-02
5.130394439022313236e+03 1.205193613756922577e+00 1.623290294106422352e-02
5.135524833461337039e+03 1.190828047943749857e+00 1.627948034786959319e-02
5.140660358294800062e+03 1.177833383939053125e+00 1.699607005651652264e-02
5.145801018653096435e+03 1.167088687197330721e+00 1.682380135971494814e-02
5.150946819671751655e+03 1.163973761487673508e+00 1.650467079096460885e-02
5.156097766491425318e+03 1.164160524287012777e+00 1.654396059763024035e-02
5.161253864257918394e+03 1.152920258496395123e+00 1.648351810708797993e-02
5.166415118122177773e+03 1.139037110489456106e+00 1.498390073681846527e-02
5.171581533240301724e+03 1.123647169161410941e+00 1.509520260478412410e-02
5.176753114773543530e+03 1.118764694734163179e+00 1.518996175192372129e-02
5.181929867888318768e+03 1.113225576459874189e+00 1.459843546345398688e-02
5.187111797756208944e+03 1.121889037674137057e+00 1.510751772291422934e-02
5.192298909553966951e+03 1.135727790838351625e+00 1.618062403400196553e-02
5.197491208463522526e+03 1.148439547340811773e+00 1.704197701599594397e-02
5.202688699671987706e+03 1.170446096096558364e+00 1.835037872914286466e-02
5.207891388371661378e+03 1.192002216346068399e+00 1.730368005152408198e-02
5.213099279760034733e+03 1.209320060111422235e+00 1.536085526992149800e-02
5.218312379039796724e+03 1.222040615346768444e+00 1.449634340939710483e-02
5.223530691418837705e+03 1.218082222177301777e+00 1.607697411572057977e-02
5.228754222110258524e+03 1.205914684550672522e+00 1.745542535778521823e-02
5.233982976332370527e+03 1.194100158690630353e+00 1.724766759256340237e-02
5.239216959308704645e+03 1.190520723320842134e+00 1.729017893226917485e-02
5.244456176268015042e+03 1.189930057146868725e+00 1.727183522654613876e-02
5.249700632444284565e+03 1.185214958256677997e+00 1.586775210306226591e-02
5.254950333076731113e+03 1.181283132489512777e+00 1.554107592201111644e-02
5.260205283409809454e+03 1.178735821897568536e+00 1.573598305392829785e-02
5.265465488693221232e+03 1.185656559336788041e+00 1.671296183842148342e-02
5.270730954181915877e+03 1.187519193103456550e+00 1.653259342587318909e-02
5.276001685136099695e+03 1.188178968173353445e+00 1.625498971857576927e-02
5.281277686821237694e+03 1.186725681167358326e+00 1.617185966253854162e-02
5.286558964508059944e+03 1.184999101101377628e+00 1.635492060558325911e-02
5.291845523472569766e+03 1.181425971831076893e+00 1.679077546836488244e-02
5.297137368996044643e+03 1.191875005967086620e+00 1.602988552049986956e-02
5.302434506365042580e+03 1.208022343658165632e+00 1.542134562971860835e-02
5.307736940871409388e+03 1.215797324162188442e+00 1.540382221742830730e-02
5.313044677812282316e+03 1.209959798550069632e+00 1.543524320923666225e-02
5.318357722490096421e+03 1.205552902645383062e+00 1.360582568638808200e-02
5.323676080212588204e+03 1.200654974754291615e+00 1.289914214709930208e-02
5.328999756292802886e+03 1.193437619828995988e+00 1.303413297174135788e-02
5.334328756049097137e+03 1.196215749346459356e+00 1.328627307776594595e-02
5.339663084805148173e+03 1.206253344599238275e+00 1.251980783049014799e-02
5.345002747889954662e+03 1.219975230138364841e+00 1.195591613371519910e-02
5.350347750637846730e+03 1.232153635804157599e+00 1.136537232320224827e-02
5.355698098388485960e+03 1.234537450417781956e+00 1.134100030267697241e-02
5.361053796486876308e+03 1.236579824599205235e+00 1.151701079151884986e-02
5.366414850283365013e+03 1.225699068564311434e+00 1.177120412727405280e-02
5.371781265133649867e+03 1.223320413059588052e+00 1.204208776037416460e-02
5.377153046398785591e+03 1.218583397668788537e+00 1.187754345473837972e-02
5.382530199445186554e+03 1.208129445069163754e+00 1.229306715168373282e-02
5.387912729644633146e+03 1.199350948213040224e+00 1.268991218285483481e-02
5.393300642374279960e+03 1.198838881629079811e+00 1.230798957590471289e-02
5.398693943016655794e+03 1.194942139048819740e+00 1.215321301625903704e-02
5.404092636959673655e+03 1.187441294824439275e+00 1.182537214255398317e-02
5.409496729596635305e+03 1.183320026411524672e+00 1.145166416470519768e-02
5.414906226326233991e+03 1.183039220427316796e+00 1.093007633921379979e-02
5.420321132552561721e+03 1.194637850530727130e+00 1.054663733649948906e-02
5.425741453685116539e+03 1.208330839243058508e+00 1.050226581144315594e-02
5.431167195138803436e+03 1.226502796186689448e+00 1.018194892358131876e-02
5.436598362333943442e+03 1.245404573890738220e+00 8.580533869564956062e-03
5.442034960696279086e+03 1.254104698645516880e+00 8.544998502206895691e-03
5.447476995656978033e+03 1.261813408224534250e+00 7.780882069019031191e-03
5.452924472652636723e+03 1.266221234438128507e+00 7.724796425437121215e-03
5.458377397125291282e+03 1.266691529677653749e+00 8.406984283997177496e-03
5.463835774522417523e+03 1.266550175005169310e+00 8.260186632549463420e-03
5.469299610296941864e+03 1.269189863715029842e+00 8.200338826299571893e-03
5.474768909907241323e+03 1.273730337393259582e+00 8.450104663035681862e-03
5.480243678817149885e+03 1.271948473791556955e+00 7.369664392097213801e-03
5.485723922495968509e+03 1.273045252331977295e+00 7.800568512014141934e-03
5.491209646418466946e+03 1.266471466807191470e+00 8.045721067545438462e-03
5.496700856064887375e+03 1.260503129305342807e+00 7.680588408032895144e-03
5.502197556920953502e+03 1.249280086091446140e+00 1.000054523687703492e-02
5.507699754477876013e+03 1.243914038684915457e+00 9.849475979937075826e-03
5.513207454232356213e+03 1.245593919104220682e+00 9.605229588152188261e-03
5.518720661686590574e+03 1.251583162085988743e+00 9.734738340134933832e-03
5.524239382348278923e+03 1.258996538077861382e+00 1.028622361256533238e-02
5.529763621730628984e+03 1.263792953580330725e+00 1.018863176076336211e-02
5.535293385352360929e+03 1.277155352027658619e+00 1.073368226195445946e-02
5.540828678737715563e+03 1.284425829180727119e+00 1.085395786797881644e-02
5.546369507416455235e+03 1.283672891447380282e+00 1.072217588808683023e-02
5.551915876923872929e+03 1.284888792092536702e+00 9.911358729295801154e-03
5.557467792800798634e+03 1.273952008785617762e+00 1.045560248292074293e-02
5.563025260593602070e+03 1.256719506072049297e+00 1.022657630031212871e-02
5.568588285854197238e+03 1.241983958047858883e+00 9.796915867117774943e-03
5.574156874140053333e+03 1.222531829983563023e+00 9.853295423514523560e-03
5.579731031014194741e+03 1.219592015290547060e+00 1.031103193599281626e-02
5.585310762045211050e+03 1.220837475500603286e+00 1.099220348950388088e-02
5.590896072807257951e+03 1.228913598048732458e+00 1.079027911539819778e-02
5.596486968880067252e+03 1.237188954897253002e+00 9.589172207138519852e-03
5.602083455848949598e+03 1.246263915263569722e+00 9.436567521344510837e-03
5.607685539304799931e+03 1.258380394682269143e+00 9.975654656177369850e-03
5.613293224844106589e+03 1.264859627085651139e+00 9.990429323186495250e-03
5.618906518068952209e+03 1.261776988616940542e+00 1.011409712038235063e-02
5.624525424587023736e+03 1.249351394565127782e+00 1.104232658757769124e-02
5.630149950011612418e+03 1.235367135654918069e+00 1.141110012201772793e-02
5.635780099961625638e+03 1.213980740757246934e+00 9.938557340048396332e-03
5.641415880061589633e+03 1.199711109367545880e+00 9.944850999875404565e-03
5.647057295941652228e+03 1.190464850104658856e+00 9.683282772391875806e-03
5.652704353237596479e+03 1.188168896665004359e+00 9.942850193999160091e-03
5.658357057590835211e+03 1.191457257486766119e+00 1.014384260917478020e-02
5.664015414648428305e+03 1.193696074100010884e+00 1.006720747658819415e-02
5.669679430063079053e+03 1.202027204109811453e+00 9.678125139302084720e-03
5.675349109493143260e+03 1.211382415499298038e+00 9.407526316434875954e-03
5.681024458602638333e+03 1.219303389343829647e+00 9.300286124029343710e-03
5.686705483061243285e+03 1.231683410617903096e+00 8.838476571190898023e-03
5.692392188544306009e+03 1.242178667063032371e+00 8.019163837293155975e-03
5.698084580732852373e+03 1.244456405786480202e+00 8.063839600710097713e-03
5.703782665313587131e+03 1.238094931886851047e+00 7.844172953806342885e-03
5.709486447978903016e+03 1.228474610669863187e+00 6.874118651009611912e-03
5.715195934426883468e+03 1.232429681175600145e+00 6.771139208432179306e-03
5.720911130361312644e+03 1.237261625980948354e+00 6.536704525970893527e-03
5.726632041491675409e+03 1.239732622426622966e+00 6.563191994787606794e-03
5.732358673533169167e+03 1.242804343029798142e+00 6.602018823011244521e-03
5.738091032206703858e+03 1.243226723861767802e+00 6.479177298176790577e-03
5.743829123238912871e+03 1.244408969061691517e+00 6.191446397622250852e-03
5.749572952362153046e+03 1.242729089226641825e+00 6.268818531032014155e-03
5.755322525314517407e+03 1.238758204179614353e+00 6.636591819993977945e-03
5.761077847839834249e+03 1.237419134920469732e+00 6.500964708344570200e-03
5.766838925687675328e+03 1.240642014768190249e+00 6.507604782989286421e-03
5.772605764613364954e+03 1.241031311807902826e+00 6.381919170285924904e-03
5.778378370377980900e+03 1.239880740099393197e+00 6.097854792181303836e-03
5.784156748748360769e+03 1.237533556043680871e+00 5.907015978316793731e-03
5.789940905497111089e+03 1.238763596498867692e+00 5.849576757564503744e-03
5.795730846402610041e+03 1.246987826515124853e+00 5.842958039348877114e-03
5.801526577249013826e+03 1.255455383922213342e+00 5.453421599841074344e-03
5.807328103826264851e+03 1.258589900575737941e+00 5.205836490626762451e-03
5.813135431930093546e+03 1.255531377993748476e+00 5.879725326188430141e-03
5.818948567362025642e+03 1.250609686356582984e+00 5.942972263684065393e-03
5.824767515929389447e+03 1.243979175856466224e+00 7.447788927635689074e-03
5.830592283445320390e+03 1.243166349154306793e+00 7.052348560392481501e-03
5.836422875728768304e+03 1.250988789216025632e+00 9.443307715445414460e-03
5.842259298604498326e+03 1.268794342763672978e+00 1.476293436591326336e-02
5.848101557903105459e+03 1.260624149481939460e+00 1.510529012317655441e-02
5.853949659461010015e+03 1.246217281164141655e+00 1.575493968546729309e-02
5.859803609120473084e+03 1.230967890444581103e+00 1.664701909962567131e-02
5.865663412729595620e+03 1.212874387944709698e+00 1.682215394245378109e-02
5.871529076142326630e+03 1.202278256595007644e+00 1.655582500177233546e-02
5.877400605218471355e+03 1.196067756254680203e+00 1.685758855513934742e-02
5.883278005823691274e+03 1.193458720349531932e+00 1.685421714171669166e-02
5.889161283829516833e+03 1.193843144431986580e+00 1.650508625142392896e-02
5.895050445113348360e+03 1.198852755575563256e+00 1.678121594105446562e-02
5.900945495558464245e+03 1.205269974782458897e+00 1.699277788722962368e-02
5.906846441054024581e+03 1.218860383161063599e+00 1.692600844386147815e-02
5.912753287495080258e+03 1.231131099089186609e+00 1.595526972193068993e-02
5.918666040782577511e+03 1.243819755327817855e+00 1.540696930649299544e-02
5.924584706823361557e+03 1.249346651983768597e+00 1.571846655825981376e-02
5.930509291530187511e+03 1.249293422132700115e+00 1.563573837503364969e-02
5.936439800821719473e+03 1.230088596136444057e+00 1.224447284743911991e-02
5.942376240622543264e+03 1.218405285988426678e+00 1.150800702536279238e-02
5.948318616863167335e+03 1.213400107411011675e+00 1.113932483916214855e-02
5.954266935480032771e+03 1.222069978374572319e+00 5.903414829030767703e-03
5.960221202415515108e+03 1.219906683622715038e+00 5.620304448398834134e-03
5.966181423617932523e+03 1.216353004846535635e+00 5.650975954649511274e-03
5.972147605041552197e+03 1.212099926660100468e+00 5.704739606711336022e-03
5.978119752646595771e+03 1.205620690246763882e+00 5.912780659955254800e-03
5.984097872399243897e+03 1.201918420221526063e+00 6.065573317247675497e-03
5.990081970271645332e+03 1.199366182191980990e+00 6.080034691576204943e-03
5.996072052241918755e+03 1.196361490930535121e+00 6.151646221016209004e-03
6.002068124294162772e+03 1.194029802401932461e+00 5.964297696385449654e-03
6.008070192418459555e+03 1.197621531952175467e+00 5.937145140316756921e-03
6.014078262610879392e+03 1.205541129005756718e+00 6.315025843873020225e-03
6.020092340873492503e+03 1.210272108255476153e+00 6.192032851032180582e-03
6.026112433214368139e+03 1.213218222919220324e+00 6.161049845832367727e-03
6.032138545647584579e+03 1.217652807743588861e+00 6.171406458875357791e-03
6.038170684193233683e+03 1.217407741835724755e+00 5.980230097739749895e-03
6.044208854877429076e+03 1.220217118893445418e+00 5.550279092125996912e-03
6.050253063732308874e+03 1.218936049211596151e+00 5.548950405074622692e-03
6.056303316796042964e+03 1.216185434235674601e+00 5.749026877267447017e-03
6.062359620112841185e+03 1.211840860138845288e+00 5.695236229395409140e-03
6.068421979732956061e+03 1.203700988312657705e+00 5.812248773125579075e-03
6.074490401712690982e+03 1.193592154000064909e+00 5.272079305347636760e-03
6.080564892114405666e+03 1.192989057258482255e+00 5.724098533729929557e-03
6.086645457006521610e+03 1.190522479362538411e+00 6.063949580933316111e-03
6.092732102463530282e+03 1.186498753333382172e+00 6.240927899480118272e-03
6.098824834565995843e+03 1.183960944006888782e+00 5.203574302631510870e-03
6.104923659400564247e+03 1.175778422208582974e+00 5.168018701231191954e-03
6.111028583059966877e+03 1.162445467886567219e+00 5.848212234135808166e-03
6.117139611643028729e+03 1.150217636329078585e+00 5.891836908706427935e-03
6.123256751254673873e+03 1.139437366605316360e+00 6.035129493611395869e-03
6.129380008005929994e+03 1.136469258109231939e+00 6.025317626833849236e-03
6.135509388013938405e+03 1.132439839651439684e+00 5.787908567025368961e-03
6.141644897401954040e+03 1.131582129012919991e+00 6.040039549255480159e-03
6.147786542299358189e+03 1.131977994845743130e+00 5.933791424351009085e-03
6.153934328841659408e+03 1.137960358473818712e+00 6.068440615362954635e-03
6.160088263170503524e+03 1.151007691832628632e+00 5.726484303978969168e-03
6.166248351433675452e+03 1.163991450727276611e+00 5.416167770494566963e-03
6.172414599785111022e+03 1.173432022116872586e+00 5.370708045112290718e-03
6.178587014384898794e+03 1.182971239150724552e+00 5.328664035154854171e-03
6.184765601399285515e+03 1.187121964245273720e+00 5.597321192226767210e-03
6.190950367000687038e+03 1.186039100650687628e+00 5.708513923020305282e-03
6.197141317367689226e+03 1.180878248469313885e+00 6.197849492259930801e-03
6.203338458685059777e+03 1.171447097280110761e+00 6.459817924414064036e-03
6.209541797143746408e+03 1.162353182956077591e+00 6.421448940511735072e-03
6.215751338940892310e+03 1.146853848044299573e+00 7.108540010769923145e-03
6.221967090279835247e+03 1.134350458042379328e+00 7.228227259936417272e-03
6.228189057370116643e+03 1.117108608001371683e+00 7.670013304828814799e-03
6.234417246427488863e+03 1.107075354242621712e+00 7.461782511146750063e-03
6.240651663673918847e+03 1.100422777724452406e+00 7.174403978228444632e-03
6.246892315337594482e+03 1.102355607889058620e+00 7.180128481209708396e-03
6.253139207652934601e+03 1.110892089908559921e+00 7.131172216133415710e-03
6.259392346860589896e+03 1.123591511803661902e+00 7.205337786150805071e-03
6.265651739207452010e+03 1.135321623363754195e+00 7.182127728988820653e-03
6.271917390946661726e+03 1.147241190000295008e+00 6.987518235384895457e-03
6.278189308337610782e+03 1.157350120331723353e+00 6.764982404465838539e-03
6.284467497645950061e+03 1.164230422166816492e+00 6.772856776542436966e-03
6.290751965143597772e+03 1.164719776501946136e+00 6.778372406783738160e-03
6.297042717108744000e+03 1.158394659851247344e+00 6.772773107616688291e-03
6.303339759825854344e+03 1.153056447365901960e+00 6.579623063905159532e-03
6.309643099585682648e+03 1.154632010322282465e+00 6.321575730885756715e-03
6.315952742685270096e+03 1.154165834670511481e+00 6.560064644461513668e-03
6.322268695427957937e+03 1.150258263770068012e+00 6.208126448796529896e-03
6.328590964123387494e+03 1.149903280126500782e+00 5.882803232018699209e-03
6.334919555087512890e+03 1.148710178698970630e+00 5.912486925210070667e-03
6.341254474642602872e+03 1.150485856190480716e+00 5.440974326383687769e-03
6.347595729117247174e+03 1.142257640325780255e+00 5.199378373652783353e-03
6.353943324846366522e+03 1.141727386005247258e+00 4.916743533529645271e-03
6.360297268171215364e+03 1.139341121416054925e+00 4.809157728045995554e-03
6.366657565439388236e+03 1.137652180921157052e+00 4.839285619991399827e-03
6.373024223004829764e+03 1.133578859743142209e+00 4.767343422462117647e-03
6.379397247227837397e+03 1.134336473460799022e+00 5.027478874216013971e-03
6.385776644475066860e+03 1.131399380237259278e+00 5.027788134966008904e-03
6.392162421119543978e+03 1.124489575148700959e+00 5.320673365207374481e-03
6.398554583540665590e+03 1.124911320680949567e+00 5.425237264641522526e-03
6.404953138124208635e+03 1.130035469927302527e+00 5.979131105500880110e-03
6.411358091262334710e+03 1.127745200121574864e+00 6.097081984078091439e-03
6.417769449353599157e+03 1.120730493182795051e+00 6.263018948806546755e-03
6.424187218802954703e+03 1.108528852995911196e+00 7.158325576689093285e-03
6.430611406021760558e+03 1.102600826755072649e+00 7.160278221615317198e-03
6.437042017427784231e+03 1.100398316421062672e+00 7.856014039484668712e-03
6.443479059445214261e+03 1.098921025293482234e+00 7.838707295767690167e-03
6.449922538504661134e+03 1.090210283275275582e+00 7.915884765352598773e-03
6.456372461043168187e+03 1.087114317847183376e+00 8.149780974979529968e-03
6.462828833504213435e+03 1.082995221388576512e+00 8.206736201115625087e-03
6.469291662337719572e+03 1.077254779018654629e+00 8.204380914057908189e-03
6.475760954000059428e+03 1.075409647797483936e+00 8.252776963121445306e-03
6.482236714954061426e+03 1.075784564262422416e+00 8.446941775765744523e-03
6.488718951669017770e+03 1.080772976217015291e+00 9.678068616124543486e-03
6.495207670620688987e+03 1.093401863728514112e+00 1.401681494977154857e-02
6.501702878291312118e+03 1.121943186562452066e+00 2.654258387554368076e-02
6.508204581169605262e+03 1.056763584838784853e+00 4.932678618708673246e-02
6.514712785750777584e+03 9.731526562684268411e-01 7.683160045831605167e-02
