# starting wavelength: 4998.999
# ending wavelength: 9295.545
# wav flux eflux
5.003787054274261209e+03 6.569570757197391586e-01 1.939620056131360348e-01
5.008790841328536771e+03 6.643598755159622060e-01 1.462958295251964025e-01
5.013799632169867436e+03 6.847623492848656790e-01 1.164097398493655899e-01
5.018813431802038394e+03 6.948145689393191438e-01 8.921107455849429380e-02
5.023832245233842514e+03 7.005655701280533165e-01 7.256980685478874038e-02
5.028856077479077612e+03 7.125140642334890639e-01 5.895698603024029233e-02
5.033884933556558281e+03 7.280223038999714680e-01 4.852790937336366045e-02
5.038918818490116792e+03 7.442656586793915396e-01 4.053193377237164496e-02
5.043957737308608557e+03 7.586469519469649647e-01 3.462294866484025985e-02
5.049001695045918495e+03 7.718503398311652441e-01 2.970406341933439290e-02
5.054050696740966487e+03 7.814623806159426422e-01 2.663085731079766968e-02
5.059104747437709193e+03 7.913144557122381295e-01 2.432720142277039824e-02
5.064163852185148244e+03 7.946799724905719842e-01 2.272011901563212102e-02
5.069228016037335692e+03 7.909678816531324763e-01 2.240713340571297285e-02
5.074297244053374015e+03 7.858460720437768776e-01 2.231289473675224580e-02
5.079371541297429758e+03 7.841228818451216886e-01 2.158792732443986714e-02
5.084450912838728073e+03 7.860111375593881178e-01 2.089546633320566241e-02
5.089535363751569093e+03 7.851206204416455448e-01 2.088016043839528019e-02
5.094624899115322478e+03 7.768322084059968713e-01 2.016706310030777494e-02
5.099719524014439230e+03 7.747386989721660733e-01 2.187171084592339984e-02
5.104819243538455339e+03 7.733097615907584821e-01 2.130761414792171210e-02
5.109924062781995417e+03 7.706017349149508755e-01 2.044677650661030910e-02
5.115033986844779065e+03 7.617967694810767743e-01 2.063837370178276190e-02
5.120149020831625421e+03 7.463612755460860004e-01 2.015523807358605632e-02
5.125269169852458617e+03 7.315235208791783794e-01 2.022982719864455450e-02
5.130394439022313236e+03 7.133568997690441504e-01 2.024743234639636916e-02
5.135524833461337039e+03 6.963196180090236442e-01 2.098086370610235604e-02
5.140660358294800062e+03 6.796862287096415711e-01 2.107178308937194405e-02
5.145801018653096435e+03 6.642440217812026759e-01 2.114126235892734018e-02
5.150946819671751655e+03 6.484883961130608609e-01 2.144802950450688805e-02
5.156097766491425318e+03 6.288332426674788644e-01 2.235489616928305195e-02
5.161253864257918394e+03 6.081410188044360510e-01 2.266390483993968932e-02
5.166415118122177773e+03 5.964365463386571697e-01 2.338102831420851499e-02
5.171581533240301724e+03 5.937470514316139925e-01 2.326696470888487550e-02
5.176753114773543530e+03 5.843565229099579872e-01 2.244998360598856463e-02
5.181929867888318768e+03 5.697621665063703489e-01 1.835999191048995685e-02
5.187111797756208944e+03 5.647409232621418695e-01 1.652088804399937799e-02
5.192298909553966951e+03 5.746652468958510784e-01 1.922817167875670238e-02
5.197491208463522526e+03 5.943338560154355354e-01 2.287130093540204814e-02
5.202688699671987706e+03 6.150335376885963656e-01 2.694537052654475198e-02
5.207891388371661378e+03 6.354525903026961853e-01 2.572179818349557695e-02
5.213099279760034733e+03 6.439502534761438746e-01 2.505184226192189861e-02
5.218312379039796724e+03 6.472023137145936911e-01 2.758844541432728045e-02
5.223530691418837705e+03 6.545279241878696475e-01 2.914684305200252248e-02
5.228754222110258524e+03 6.576312359761787851e-01 2.994619909731608895e-02
5.233982976332370527e+03 6.607892638998421608e-01 2.960326225915697190e-02
5.239216959308704645e+03 6.580336779201982900e-01 2.920599749722172650e-02
5.244456176268015042e+03 6.644452100440944031e-01 2.896516033984514876e-02
5.249700632444284565e+03 6.822264730996644433e-01 2.887544108160631368e-02
5.254950333076731113e+03 7.040633015957427077e-01 3.061816926146730330e-02
5.260205283409809454e+03 7.317150679001883651e-01 3.356736751604898206e-02
5.265465488693221232e+03 7.638743340794972303e-01 3.886201811294201502e-02
5.270730954181915877e+03 7.904864123074446525e-01 4.070858936136169393e-02
5.276001685136099695e+03 8.182778227358782352e-01 3.917068318558835499e-02
5.281277686821237694e+03 8.396550175565592466e-01 3.572587906310682737e-02
5.286558964508059944e+03 8.540219769143662099e-01 3.570063486509218037e-02
5.291845523472569766e+03 8.506925126636308843e-01 3.903462706787519387e-02
5.297137368996044643e+03 8.456643805462285002e-01 4.664635868256502421e-02
5.302434506365042580e+03 8.362087644567866018e-01 4.805622432210340800e-02
5.307736940871409388e+03 8.270118943545790025e-01 4.675813581941999642e-02
5.313044677812282316e+03 8.073505677622306864e-01 4.419383697670989375e-02
5.318357722490096421e+03 7.814372081874877418e-01 4.239767438293341045e-02
5.323676080212588204e+03 7.533517466864695367e-01 3.851186102922957155e-02
5.328999756292802886e+03 7.426495756079787292e-01 3.640422416543096645e-02
5.334328756049097137e+03 7.709052753187011220e-01 3.957014662137713773e-02
5.339663084805148173e+03 8.220330336569623420e-01 4.043228111653867501e-02
5.345002747889954662e+03 8.508418765409705431e-01 4.127431680978441153e-02
5.350347750637846730e+03 8.927963136062214700e-01 4.213010125575698817e-02
5.355698098388485960e+03 9.083907405630474718e-01 4.116451399809570311e-02
5.361053796486876308e+03 9.115975410901935305e-01 4.279086123758400750e-02
5.366414850283365013e+03 9.041050606019253033e-01 4.561888874341025329e-02
5.371781265133649867e+03 8.697478759392787140e-01 4.426934880613305617e-02
5.377153046398785591e+03 8.401627937017434045e-01 4.196866617987165399e-02
5.382530199445186554e+03 8.079930157877340813e-01 4.106169145129842657e-02
5.387912729644633146e+03 7.850257062466223790e-01 4.114024758262841558e-02
5.393300642374279960e+03 7.749065941046652251e-01 4.133376002057214532e-02
5.398693943016655794e+03 7.701651441777149776e-01 4.324192469110680476e-02
5.404092636959673655e+03 7.587513441229686295e-01 4.446372937946533460e-02
5.409496729596635305e+03 7.259866251764681699e-01 4.560618173593411484e-02
5.414906226326233991e+03 6.768914559094355576e-01 4.908485937926333753e-02
5.420321132552561721e+03 6.672702931576555141e-01 4.986488102917137344e-02
5.425741453685116539e+03 6.928764501855827485e-01 4.738532591310419539e-02
5.431167195138803436e+03 7.166935084885420748e-01 4.742540017082245291e-02
5.436598362333943442e+03 7.261547727588579804e-01 4.582401436267179162e-02
5.442034960696279086e+03 7.324955171998728254e-01 4.209149993207019630e-02
5.447476995656978033e+03 7.527275170976295282e-01 4.238693436175507839e-02
5.452924472652636723e+03 7.954635469474305998e-01 4.728904040586480451e-02
5.458377397125291282e+03 8.634155635347665614e-01 3.566031295848360455e-02
5.463835774522417523e+03 8.562925972958416176e-01 4.078885249003669916e-02
5.469299610296941864e+03 8.312979682562304795e-01 4.280701488079855649e-02
5.474768909907241323e+03 8.002390921271893554e-01 4.313929568589735392e-02
5.480243678817149885e+03 7.722089112160397395e-01 4.309657824955488020e-02
5.485723922495968509e+03 7.371364869819503340e-01 4.125447451126600801e-02
5.491209646418466946e+03 6.985516812844128065e-01 3.591133225397995232e-02
5.496700856064887375e+03 6.898606794296537892e-01 3.421839591257951757e-02
5.502197556920953502e+03 7.116637734016646455e-01 3.519115764594027418e-02
5.507699754477876013e+03 7.581110312767708193e-01 2.942846158944501661e-02
5.513207454232356213e+03 8.123719813258549749e-01 2.880721406327465747e-02
5.518720661686590574e+03 8.669641664859569774e-01 3.224796745923790009e-02
5.524239382348278923e+03 9.260171526051643731e-01 3.275329207970114481e-02
5.529763621730628984e+03 9.784319318522873843e-01 2.809180054904919163e-02
5.535293385352360929e+03 9.999908704194226949e-01 2.599444988256307751e-02
5.540828678737715563e+03 9.977935728635125567e-01 2.597248966526892119e-02
5.546369507416455235e+03 9.637711550415698492e-01 2.650275427649783147e-02
5.551915876923872929e+03 9.235339539868590020e-01 2.778194776789448192e-02
5.557467792800798634e+03 8.919637076724493685e-01 2.823611505319534309e-02
5.563025260593602070e+03 8.628068634687685590e-01 2.864183774504303059e-02
5.568588285854197238e+03 8.121183320180237475e-01 2.221359137310120052e-02
5.574156874140053333e+03 7.840168547850682179e-01 2.170938448538241652e-02
5.579731031014194741e+03 7.708280278900355720e-01 2.182513560661490312e-02
5.585310762045211050e+03 7.781957962319873134e-01 2.143799096325177400e-02
5.590896072807257951e+03 7.927877956735909226e-01 2.107559796077470432e-02
5.596486968880067252e+03 8.156082303899079289e-01 2.119930202402375494e-02
5.602083455848949598e+03 8.650024911563565233e-01 1.830391400691873741e-02
5.607685539304799931e+03 9.158572895978333017e-01 2.283250479950286668e-02
5.613293224844106589e+03 9.461484188497271131e-01 2.352409523537669217e-02
5.618906518068952209e+03 9.633950231762871130e-01 2.367034980240557973e-02
5.624525424587023736e+03 9.785387084099156363e-01 2.324310359346617658e-02
5.630149950011612418e+03 9.872115802073131441e-01 2.325107346885516360e-02
5.635780099961625638e+03 9.838723742776418479e-01 2.387360163727409931e-02
5.641415880061589633e+03 9.659012919030730560e-01 2.533338774729085655e-02
5.647057295941652228e+03 9.607687318652681219e-01 2.660323966372969348e-02
5.652704353237596479e+03 9.500895500732556842e-01 2.466726717868973628e-02
5.658357057590835211e+03 9.401946576927842081e-01 2.472362989278238665e-02
5.664015414648428305e+03 9.337790363515335867e-01 2.404512996444140016e-02
5.669679430063079053e+03 9.272309610750297804e-01 2.396837953659563397e-02
5.675349109493143260e+03 9.238897452025355284e-01 2.373470611515629547e-02
5.681024458602638333e+03 9.293586363437764675e-01 2.354454734204461386e-02
5.686705483061243285e+03 9.407097897177043588e-01 2.330228017452426817e-02
5.692392188544306009e+03 9.564719544297295428e-01 2.310448448986450118e-02
5.698084580732852373e+03 9.647937845653150601e-01 2.236003515461494270e-02
5.703782665313587131e+03 9.726073322667100340e-01 2.050218866611675655e-02
5.709486447978903016e+03 9.826046936886529970e-01 2.013941319895620405e-02
5.715195934426883468e+03 1.012337487961563198e+00 1.630188680083252684e-02
5.720911130361312644e+03 1.031199551343625398e+00 1.544227639059069825e-02
5.726632041491675409e+03 1.045781577176877697e+00 1.544977522033756136e-02
5.732358673533169167e+03 1.058070006771888005e+00 1.543335907466151027e-02
5.738091032206703858e+03 1.066168865352219886e+00 1.633667777990359740e-02
5.743829123238912871e+03 1.066257904798213474e+00 1.582396962644927463e-02
5.749572952362153046e+03 1.065589688757405007e+00 1.310261956759989355e-02
5.755322525314517407e+03 1.066880407511761053e+00 1.504637459548974904e-02
5.761077847839834249e+03 1.065457619670980183e+00 1.474599461573875524e-02
5.766838925687675328e+03 1.060951058175708450e+00 1.312263666545672273e-02
5.772605764613364954e+03 1.051895580111205541e+00 1.361744915077086129e-02
5.778378370377980900e+03 1.035871784750897584e+00 1.883726722517680904e-02
5.784156748748360769e+03 1.014353360760890554e+00 2.069868275107948630e-02
5.789940905497111089e+03 1.018919518535511326e+00 2.068811267064164447e-02
5.795730846402610041e+03 1.036320117846075917e+00 2.745556699225330105e-02
5.801526577249013826e+03 1.050514125872980653e+00 3.198642931175570830e-02
5.807328103826264851e+03 1.053305899000378965e+00 3.296034079693497404e-02
5.813135431930093546e+03 1.033597298974644918e+00 3.320270796263873753e-02
5.818948567362025642e+03 1.011569777911004664e+00 3.879718396083801230e-02
5.824767515929389447e+03 1.003024626098100391e+00 3.918423563707726376e-02
5.830592283445320390e+03 1.014417685221932208e+00 4.666604638255791165e-02
5.836422875728768304e+03 1.028376968116340384e+00 5.594062606896307854e-02
5.842259298604498326e+03 1.005499836948910763e+00 5.684020338170903131e-02
5.848101557903105459e+03 9.384786245358840429e-01 5.871295910678335506e-02
5.853949659461010015e+03 8.354028050458390808e-01 6.767312586567481025e-02
5.859803609120473084e+03 7.914142724483247404e-01 6.876611793609369028e-02
5.865663412729595620e+03 7.785171751997069789e-01 6.806085389088004090e-02
5.871529076142326630e+03 7.917450701492164677e-01 6.806933767572664884e-02
5.877400605218471355e+03 8.315247537162724356e-01 6.960529607333905411e-02
5.883278005823691274e+03 8.849895601121811062e-01 7.476929584779105908e-02
5.889161283829516833e+03 9.273951409034026927e-01 7.457285133562939483e-02
5.895050445113348360e+03 9.948352329136794792e-01 7.483033914440045953e-02
5.900945495558464245e+03 1.043619731908019155e+00 7.238041686047438916e-02
5.906846441054024581e+03 1.089899279042346070e+00 6.646298177177105415e-02
5.912753287495080258e+03 1.123865036678171725e+00 6.196560622941538893e-02
5.918666040782577511e+03 1.128898631492350368e+00 6.354626581501274241e-02
5.924584706823361557e+03 1.100289797407289383e+00 6.653820945510686979e-02
5.930509291530187511e+03 1.002239252266931890e+00 4.201157095437691585e-02
5.936439800821719473e+03 9.575594829863914859e-01 2.951498611720042992e-02
5.942376240622543264e+03 9.443989971787514204e-01 3.040511427833789138e-02
5.948318616863167335e+03 9.675741346399477916e-01 2.382860428032699401e-02
5.954266935480032771e+03 1.005586299325206712e+00 1.834167487223937673e-02
5.960221202415515108e+03 1.034503204040212232e+00 1.685765023014510963e-02
5.966181423617932523e+03 1.054609293866973108e+00 1.689446812912049484e-02
5.972147605041552197e+03 1.069206169557312291e+00 1.791969795300598495e-02
5.978119752646595771e+03 1.082278597438446344e+00 1.760019126018438559e-02
5.984097872399243897e+03 1.090310469839394614e+00 1.773146129802428625e-02
5.990081970271645332e+03 1.088604517411711381e+00 1.983314007934078999e-02
5.996072052241918755e+03 1.085454378173024370e+00 1.920669347134281585e-02
6.002068124294162772e+03 1.079329688641585072e+00 1.465363403213792125e-02
6.008070192418459555e+03 1.085169583709694408e+00 1.624613857451923105e-02
6.014078262610879392e+03 1.086944285503522512e+00 1.496170489468731137e-02
6.020092340873492503e+03 1.089289200528240409e+00 1.477527753037052860e-02
6.026112433214368139e+03 1.095118985222297781e+00 1.387125208260207333e-02
6.032138545647584579e+03 1.097753417336427395e+00 1.390995510538031547e-02
6.038170684193233683e+03 1.098591945380524848e+00 1.487686454115797266e-02
6.044208854877429076e+03 1.111306638149296200e+00 1.558011044614085287e-02
6.050253063732308874e+03 1.120577720597468963e+00 1.619911805643080988e-02
6.056303316796042964e+03 1.116265291093447631e+00 1.638801487568455895e-02
6.062359620112841185e+03 1.107693168905068859e+00 1.737962475698558509e-02
6.068421979732956061e+03 1.105453017947561678e+00 1.735765467436837031e-02
6.074490401712690982e+03 1.106215700873566243e+00 1.820776964177526699e-02
6.080564892114405666e+03 1.121000569107924782e+00 2.467689692121206174e-02
6.086645457006521610e+03 1.098874514686630111e+00 2.310624302920263190e-02
6.092732102463530282e+03 1.053884412344384902e+00 3.021975218519080270e-02
6.098824834565995843e+03 1.001742111716631189e+00 3.504112856147896526e-02
6.104923659400564247e+03 9.574535829233943307e-01 3.250265702406755081e-02
6.111028583059966877e+03 9.275265227408839852e-01 3.020811921815655735e-02
6.117139611643028729e+03 9.055744813977393282e-01 2.998907904963635934e-02
6.123256751254673873e+03 8.992385746320057383e-01 3.007829761593133755e-02
6.129380008005929994e+03 9.006216049442701266e-01 3.190148167709856708e-02
6.135509388013938405e+03 9.174244240102840120e-01 3.234027085578260186e-02
6.141644897401954040e+03 9.346534496200170627e-01 3.056996775381813289e-02
6.147786542299358189e+03 9.536123746979292548e-01 3.018266084319941658e-02
6.153934328841659408e+03 9.738596454442295380e-01 3.011980148019709203e-02
6.160088263170503524e+03 9.976941557157459339e-01 2.975770846204657885e-02
6.166248351433675452e+03 1.023110014084575248e+00 2.837797824456578591e-02
6.172414599785111022e+03 1.015252686169774821e+00 2.696196061798853197e-02
6.178587014384898794e+03 9.911850193346933846e-01 2.336808084125763935e-02
6.184765601399285515e+03 9.654658030780275402e-01 2.091441491093933361e-02
6.190950367000687038e+03 9.489510921916740616e-01 2.107748730826362882e-02
6.197141317367689226e+03 9.448601224316759417e-01 1.815783445913171992e-02
6.203338458685059777e+03 9.307079573882929280e-01 1.638541287844126615e-02
6.209541797143746408e+03 8.971720898796163857e-01 1.504708086699804714e-02
6.215751338940892310e+03 8.696885260492380754e-01 1.347669298102174146e-02
6.221967090279835247e+03 8.579065349008121455e-01 1.329305354119063656e-02
6.228189057370116643e+03 8.521047099411452885e-01 1.335156107274622361e-02
6.234417246427488863e+03 8.518793594696422167e-01 1.319513275033900278e-02
6.240651663673918847e+03 8.623199765968541097e-01 1.316893182328984606e-02
6.246892315337594482e+03 8.853799318897453974e-01 1.352180751606674690e-02
6.253139207652934601e+03 9.111136025740976807e-01 1.294959851104309639e-02
6.259392346860589896e+03 9.338399970602926370e-01 1.314328640683547558e-02
6.265651739207452010e+03 9.488405331615344940e-01 1.301022656847772643e-02
6.271917390946661726e+03 9.608561921666248784e-01 1.257430331328699379e-02
6.278189308337610782e+03 9.687941052562867306e-01 1.286464842771898459e-02
6.284467497645950061e+03 9.715518201100120654e-01 1.453833405088629863e-02
6.290751965143597772e+03 9.746063557959825374e-01 1.404197642629612108e-02
6.297042717108744000e+03 9.727582198523769819e-01 1.229202258989501965e-02
6.303339759825854344e+03 9.719741339396160695e-01 1.191486669575533321e-02
6.309643099585682648e+03 9.720382830968347099e-01 1.185919959868008723e-02
6.315952742685270096e+03 9.765811120723363326e-01 1.191713798106388243e-02
6.322268695427957937e+03 9.845777367964972937e-01 1.251041270661686598e-02
6.328590964123387494e+03 1.005101127753233348e+00 1.472976734096737537e-02
6.334919555087512890e+03 1.032772695421619202e+00 1.779578927835135521e-02
6.341254474642602872e+03 1.050370484865107645e+00 1.749122452764798746e-02
6.347595729117247174e+03 1.051649084232312292e+00 1.744924146605162166e-02
6.353943324846366522e+03 1.050759216256442974e+00 1.845947620294970462e-02
6.360297268171215364e+03 1.052303753630245753e+00 1.875519655522888546e-02
6.366657565439388236e+03 1.059011348207677283e+00 2.031986618436542463e-02
6.373024223004829764e+03 1.057009927938997285e+00 1.980793413453417820e-02
6.379397247227837397e+03 1.040646980284173573e+00 2.022827500960252406e-02
6.385776644475066860e+03 1.018618573556132390e+00 2.215282012240362211e-02
6.392162421119543978e+03 9.951526659802424346e-01 2.351837973414023716e-02
6.398554583540665590e+03 9.780854039564891300e-01 2.130877557576992681e-02
6.404953138124208635e+03 9.685711036865030099e-01 2.006750000742709913e-02
6.411358091262334710e+03 9.666822375246761911e-01 1.983369458063187138e-02
6.417769449353599157e+03 9.790617395544579660e-01 2.073943643709472151e-02
6.424187218802954703e+03 1.018583258541926329e+00 2.522775291247163210e-02
6.430611406021760558e+03 1.066919921263135729e+00 3.552786657838093859e-02
6.437042017427784231e+03 1.093966951512656882e+00 3.844659872492012936e-02
6.443479059445214261e+03 1.089850328312181649e+00 3.820461807083299494e-02
6.449922538504661134e+03 1.065939090325570549e+00 4.249253213375045468e-02
6.456372461043168187e+03 1.052860920942147782e+00 4.407529497006110186e-02
6.462828833504213435e+03 1.033044648872306182e+00 4.567232047224040192e-02
6.469291662337719572e+03 1.015476629549580512e+00 4.447399121710841202e-02
6.475760954000059428e+03 9.943373757372584443e-01 3.718409892055040550e-02
6.482236714954061426e+03 1.009461290711801684e+00 3.884719450041330957e-02
6.488718951669017770e+03 1.048635649008289983e+00 4.546410699608235961e-02
6.495207670620688987e+03 1.101450558515872924e+00 5.767197726599121443e-02
6.501702878291312118e+03 1.145212916233139921e+00 6.001404833327255578e-02
6.508204581169605262e+03 1.090801422862313297e+00 8.510778956118325578e-02
6.514712785750777584e+03 1.045961884257614827e+00 1.110938657635374555e-01
