# starting wavelength: 3938.240
# ending wavelength: 8933.320
# wav flux eflux
3.940526945938423523e+03 3.956029007886388005e+00 6.321166637173619707e-02
3.944467472884363360e+03 3.951903344723942446e+00 4.834556114516184305e-02
3.948411940357249023e+03 3.955140866057013760e+00 3.622826437385739951e-02
3.952360352297607733e+03 3.961563383367839197e+00 2.807842692991161307e-02
3.956312712649906643e+03 3.967237141871666317e+00 2.227574510556848408e-02
3.960269025362557841e+03 3.970495779890894195e+00 1.768372279733850319e-02
3.964229294387921527e+03 3.971795183845332033e+00 1.431255982202169624e-02
3.968193523682310570e+03 3.971195196201918964e+00 1.179470678797297188e-02
3.972161717205994591e+03 3.969672012581331622e+00 9.988904403504333951e-03
3.976133878923201792e+03 3.966390499891719656e+00 8.577413121426348888e-03
3.980110012802126221e+03 3.960719204832409801e+00 7.572827997219860365e-03
3.984090122814929600e+03 3.953129771319955132e+00 6.875425392143788041e-03
3.988074212937745870e+03 3.943977437723548807e+00 6.377675829544147967e-03
3.992062287150684824e+03 3.931896192848340910e+00 6.226002633044623244e-03
3.996054349437837118e+03 3.921370976637049921e+00 5.887942352021861489e-03
4.000050403787276082e+03 3.910240974764475741e+00 5.670528101017298025e-03
4.004050454191064546e+03 3.900523016566605161e+00 5.443785712811521210e-03
4.008054504645257111e+03 3.892948599912780416e+00 5.305634283331042700e-03
4.012062559149903791e+03 3.885147046589358943e+00 5.156761485142434195e-03
4.016074621709055009e+03 3.875098415296124976e+00 5.072634027517885884e-03
4.020090696330765240e+03 3.864259159446181258e+00 5.343036821846622667e-03
4.024110787027097558e+03 3.857431860586566952e+00 5.134246027652323435e-03
4.028134897814125907e+03 3.856627622662140986e+00 5.956992008898469131e-03
4.032163032711941469e+03 3.857812584944892098e+00 5.639582329244800449e-03
4.036195195744654484e+03 3.852345709885302227e+00 6.656256924787582602e-03
4.040231390940400615e+03 3.849250743235261840e+00 7.277646462016371803e-03
4.044271622331342314e+03 3.856458966429931579e+00 7.146941825160657222e-03
4.048315893953675186e+03 3.859340004554959958e+00 7.718595212821225890e-03
4.052364209847629809e+03 3.867188787957573037e+00 7.731513954109717202e-03
4.056416574057479011e+03 3.881204421054604392e+00 7.551336652672752288e-03
4.060472990631537868e+03 3.901710764414306531e+00 8.306854485966946172e-03
4.064533463622170530e+03 3.921600692926754395e+00 8.948561288701759389e-03
4.068597997085794304e+03 3.946373681248225740e+00 1.076185822100770434e-02
4.072666595082881486e+03 3.973806080354451709e+00 1.204302581912689539e-02
4.076739261677965715e+03 3.996543507509923820e+00 1.263732509158757567e-02
4.080816000939644709e+03 4.015804219172184553e+00 1.287143061302880621e-02
4.084896816940585722e+03 4.028256784176591943e+00 1.258651826430784958e-02
4.088981713757527814e+03 4.033210004587493458e+00 1.223410040382525918e-02
4.093070695471286854e+03 4.030554430981262648e+00 1.172277618803191715e-02
4.097163766166759160e+03 4.020359543632732624e+00 1.163811475441428600e-02
4.101260929932927866e+03 4.000331081434410407e+00 1.183685822395591329e-02
4.105362190862862008e+03 3.972114198804781893e+00 1.246921141938997502e-02
4.109467553053726078e+03 3.938466330246625180e+00 1.305712473103702587e-02
4.113577020606780934e+03 3.901236009636073199e+00 1.368752872058147385e-02
4.117690597627389252e+03 3.854183640050138138e+00 1.414252430259318669e-02
4.121808288225018259e+03 3.802904631961806281e+00 1.415343249919877484e-02
4.125930096513244280e+03 3.749342298108288674e+00 1.332257890425369261e-02
4.130056026609759101e+03 3.695594523129106967e+00 1.216198230681441068e-02
4.134186082636369974e+03 3.644249550031704032e+00 1.117846224877450632e-02
4.138320268719007800e+03 3.592685166580847689e+00 9.916526592204899862e-03
4.142458588987728035e+03 3.551313994250536066e+00 9.612091683168701856e-03
4.146601047576717065e+03 3.518118855912706788e+00 9.793768719610443721e-03
4.150747648624294925e+03 3.490594674010957021e+00 1.004493630385657442e-02
4.154898396272920763e+03 3.473329098770783663e+00 1.053304223540725212e-02
4.159053294669195566e+03 3.466321049660663789e+00 8.388360499829255329e-03
4.163212347963865795e+03 3.463605187484835035e+00 5.264215913689955333e-03
4.167375560311830668e+03 3.456089584128056114e+00 4.970321169430027934e-03
4.171542935872143971e+03 3.449519301235099533e+00 4.963155610353762667e-03
4.175714478808017702e+03 3.446585724084624935e+00 3.929951191210363619e-03
4.179890193286827525e+03 3.435854327879614534e+00 3.341179699379580835e-03
4.184070083480115500e+03 3.425701638462530507e+00 3.032942301706842078e-03
4.188254153563597356e+03 3.415209725170233135e+00 2.970852100633746082e-03
4.192442407717161586e+03 3.404784748239476855e+00 2.998554793791954540e-03
4.196634850124880359e+03 3.393523294538742352e+00 2.999132212256903299e-03
4.200831484975006788e+03 3.380846503033647643e+00 3.031557035551892855e-03
4.205032316459983122e+03 3.367574498508580927e+00 3.044805658649781671e-03
4.209237348776444378e+03 3.353427257181501808e+00 3.138933748982590359e-03
4.213446586125221984e+03 3.338793240498323822e+00 3.199771276099650213e-03
4.217660032711349231e+03 3.324862947643934863e+00 3.175909759638791737e-03
4.221877692744061278e+03 3.310096728369849917e+00 3.034321367658271429e-03
4.226099570436806971e+03 3.295154545206761210e+00 2.851886404547035285e-03
4.230325670007245208e+03 3.281507870144795280e+00 2.757696145258351373e-03
4.234555995677254032e+03 3.269544126070593748e+00 2.775152741467651080e-03
4.238790551672932452e+03 3.258387508396060728e+00 2.809694505512694805e-03
4.243029342224606808e+03 3.249635225195794952e+00 2.739133399615100491e-03
4.247272371566832589e+03 3.242465908257847307e+00 2.441811560178216208e-03
4.251519643938400804e+03 3.235195630508450826e+00 2.250997190195076943e-03
4.255771163582340705e+03 3.227690007271177830e+00 2.181143238233085573e-03
4.260026934745924336e+03 3.219950226028778673e+00 2.110344662410210126e-03
4.264286961680671993e+03 3.212487039620826934e+00 2.067155560937469425e-03
4.268551248642354039e+03 3.205818856813008377e+00 2.113271136772211078e-03
4.272819799890998183e+03 3.201316979759254000e+00 2.128608722735889514e-03
4.277092619690890388e+03 3.196419016939752389e+00 2.217525817616387927e-03
4.281369712310583054e+03 3.193751329395905891e+00 2.466239316876393892e-03
4.285651082022895025e+03 3.192671891514478943e+00 3.267074222319773288e-03
4.289936733104918858e+03 3.179655675679459392e+00 9.303765010796960847e-03
4.294226669838025373e+03 3.173371335946371996e+00 1.181238829713834003e-02
4.298520896507864563e+03 3.177823626244878685e+00 1.198071909316204310e-02
4.302819417404373780e+03 3.193761953003536380e+00 1.167536071510743428e-02
4.307122236821779552e+03 3.218650065333781729e+00 1.236613719452949074e-02
4.311429359058603040e+03 3.249649932903796223e+00 1.402822974344766944e-02
4.315740788417662770e+03 3.281244787771641747e+00 1.471248392528475002e-02
4.320056529206081905e+03 3.312126057947594848e+00 1.514190135771501487e-02
4.324376585735290064e+03 3.342788937681273165e+00 1.539130278913466293e-02
4.328700962321026054e+03 3.366405648616231261e+00 1.482070953652671677e-02
4.333029663283348782e+03 3.380161386226592235e+00 1.428247137374835662e-02
4.337362692946633615e+03 3.386198550574487154e+00 1.382667782866360204e-02
4.341700055639581478e+03 3.375941449721280740e+00 1.415623925465862680e-02
4.346041755695222491e+03 3.354951491697263144e+00 1.468353123114020213e-02
4.350387797450919606e+03 3.322519737903339543e+00 1.538228709258906632e-02
4.354738185248371337e+03 3.280791496670310892e+00 1.544333284166047975e-02
4.359092923433621763e+03 3.235173016226765785e+00 1.471450592936404678e-02
4.363452016357056891e+03 3.184979832779548659e+00 1.324858731296429774e-02
4.367815468373414660e+03 3.140098109875665511e+00 1.230675983414551179e-02
4.372183283841789489e+03 3.102030533938140433e+00 1.217033393058695491e-02
4.376555467125633186e+03 3.076218710854779825e+00 1.230696517513800610e-02
4.380932022592760404e+03 3.061071470740647005e+00 1.060811704957440732e-02
4.385312954615354101e+03 3.054388132050511295e+00 7.644298958029457740e-03
4.389698267569970994e+03 3.038134378068310326e+00 4.217613209331237505e-03
4.394087965837542470e+03 3.020544623606125079e+00 3.158659159325911264e-03
4.398482053803381859e+03 3.008432219019975040e+00 3.312003746483253245e-03
4.402880535857186260e+03 2.996260058193154219e+00 3.163127416530526169e-03
4.407283416393044718e+03 2.985148875564645810e+00 2.620341515540065922e-03
4.411690699809440048e+03 2.970844316974190935e+00 2.530252266980180780e-03
4.416102390509250654e+03 2.956008042581823592e+00 2.633211816721936060e-03
4.420518492899761441e+03 2.942422746040932235e+00 2.703973796761091272e-03
4.424939011392662906e+03 2.929731489771360220e+00 2.718647795574703589e-03
4.429363950404056595e+03 2.919846639792893939e+00 3.109905227627559211e-03
4.433793314354462382e+03 2.906311702342707193e+00 3.381800327589711344e-03
4.438227107668818462e+03 2.896557308459213331e+00 3.417616029604521582e-03
4.442665334776488635e+03 2.890306466567713617e+00 3.367971302857920152e-03
4.447108000111265937e+03 2.884610148698067533e+00 3.333715126726389914e-03
4.451555108111379013e+03 2.882687072096792757e+00 3.281285161674859369e-03
4.456006663219492111e+03 2.883715914079575171e+00 3.163565788946550144e-03
4.460462669882713271e+03 2.884482162487813195e+00 3.156440961060772137e-03
4.464923132552597053e+03 2.881800714873111069e+00 3.115325948233251419e-03
4.469388055685150903e+03 2.879200578091334783e+00 3.124987676318224591e-03
4.473857443740837880e+03 2.874576155236917341e+00 3.159342963714182988e-03
4.478331301184580298e+03 2.871621465676138740e+00 3.176606580867139765e-03
4.482809632485766087e+03 2.868419519599753276e+00 3.170260052462833822e-03
4.487292442118253348e+03 2.865877436826825608e+00 3.173640960149781438e-03
4.491779734560373072e+03 2.861908464485129144e+00 3.125147004429059544e-03
4.496271514294934605e+03 2.858363341183842277e+00 3.111318354606085884e-03
4.500767785809231100e+03 2.854629837621790234e+00 3.066665644064054796e-03
4.505268553595042249e+03 2.852203769203759620e+00 2.993497719204775073e-03
4.509773822148638828e+03 2.853756542814019692e+00 2.829319287504142733e-03
4.514283595970789065e+03 2.856986352737959312e+00 2.475904452834562074e-03
4.518797879566761367e+03 2.858302689910961369e+00 2.134865853845416793e-03
4.523316677446328868e+03 2.863022415179600877e+00 2.595078912471256768e-03
4.527839994123776705e+03 2.865539286838052480e+00 2.583426917938529219e-03
4.532367834117902021e+03 2.865988194442611992e+00 2.547345998294579719e-03
4.536900201952022144e+03 2.864643891746048165e+00 2.534808374342232933e-03
4.541437102153975502e+03 2.862405802508955155e+00 2.517797162083854155e-03
4.545978539256130716e+03 2.859730849988179280e+00 2.477075684829155647e-03
4.550524517795388419e+03 2.854745801992823573e+00 2.444113088669099768e-03
4.555075042313184895e+03 2.850099409959689023e+00 2.400541973112894478e-03
4.559630117355500261e+03 2.844179095776718125e+00 2.030472259377638904e-03
4.564189747472856652e+03 2.840095121240102660e+00 2.002852738111610739e-03
4.568753937220330954e+03 2.838955082771234206e+00 1.950281175276155675e-03
4.573322691157552981e+03 2.840785801046093795e+00 1.972484445333300227e-03
4.577896013848711846e+03 2.845595133609190697e+00 1.945287208139833465e-03
4.582473909862562323e+03 2.857120045948120080e+00 2.825233566836686874e-03
4.587056383772426670e+03 2.872082920288346219e+00 4.286566997135911501e-03
4.591643440156200086e+03 2.881220398766003665e+00 4.804106049088372951e-03
4.596235083596357981e+03 2.880686096703695132e+00 1.343972046453327171e-02
4.600831318679955984e+03 2.889807390147903998e+00 1.777462135469351501e-02
4.605432149998637215e+03 2.928036954383652635e+00 1.729975119739532788e-02
4.610037582148637739e+03 2.997778464280552946e+00 1.703728735096208396e-02
4.614647619730787483e+03 3.090966201356132537e+00 2.110594614457898116e-02
4.619262267350520233e+03 3.196802122353752829e+00 2.526368485387636351e-02
4.623881529617872729e+03 3.307795018227364103e+00 2.786961027517485465e-02
4.628505411147491941e+03 3.393833321721887231e+00 2.722219688884186875e-02
4.633133916558640522e+03 3.465447113662792678e+00 2.446718319601168951e-02
4.637767050475200449e+03 3.493932219884304580e+00 2.301140690694562091e-02
4.642404817525677572e+03 3.476384289878941658e+00 3.224723238414566040e-02
4.647047222343205249e+03 3.435292566326995090e+00 4.005730305115562384e-02
4.651694269565549803e+03 3.394374775470644146e+00 3.907858965788362643e-02
4.656345963835116891e+03 3.370565786515737905e+00 3.558205282655804019e-02
4.661002309798953320e+03 3.346369306352868112e+00 3.317193909303083055e-02
4.665663312108753416e+03 3.356912173729597271e+00 3.707582741479489852e-02
4.670328975420864481e+03 3.364589026070881506e+00 3.933040270348434064e-02
4.674999304396286789e+03 3.395382464065303196e+00 3.516644478881919555e-02
4.679674303700684504e+03 3.403366630491230005e+00 2.833719320993925359e-02
4.684353978004386590e+03 3.384388774287319546e+00 2.448875280108217881e-02
4.689038331982392265e+03 3.318214284894671628e+00 2.670653456133621068e-02
4.693727370314376458e+03 3.230380812557563708e+00 2.806293649564464351e-02
4.698421097684692540e+03 3.117970568926123232e+00 2.703372284469081691e-02
4.703119518782378691e+03 2.996409520105673074e+00 2.422180447246113227e-02
4.707822638301162442e+03 2.871666451050034929e+00 1.989801388642963020e-02
4.712530460939465229e+03 2.767055331433184495e+00 1.831734733700197959e-02
4.717242991400406027e+03 2.691106791749347416e+00 1.905842044580957628e-02
4.721960234391808626e+03 2.640855984402628032e+00 1.662162157130455536e-02
4.726682194626201635e+03 2.609478017015738338e+00 9.213106460031119521e-03
4.731408876820829391e+03 2.572663920101473156e+00 4.647594645116068755e-03
4.736140285697651962e+03 2.529723842119688371e+00 1.915000683632859992e-03
4.740876425983350600e+03 2.496480208770892606e+00 1.736223752559792324e-03
4.745617302409335934e+03 2.467531785636135844e+00 1.708540968963673549e-03
4.750362919711747054e+03 2.443216417643315541e+00 1.649668062176259985e-03
4.755113282631459697e+03 2.423814022922515576e+00 1.667058656830932651e-03
4.759868395914093526e+03 2.406870515581519765e+00 1.443825377074712743e-03
4.764628264310008490e+03 2.392380167474377650e+00 1.345329367072497975e-03
4.769392892574320285e+03 2.380938057030758337e+00 1.387959638418865540e-03
4.774162285466896719e+03 2.371176911418722888e+00 1.362618706644788159e-03
4.778936447752364984e+03 2.364853344696236537e+00 1.209067958496730854e-03
4.783715384200118933e+03 2.359539035085376213e+00 1.230568177509368559e-03
4.788499099584319993e+03 2.355513655104580995e+00 1.214768021338266191e-03
4.793287598683906253e+03 2.353648411183782763e+00 1.204616109351457727e-03
4.798080886282591564e+03 2.354451317182352899e+00 1.164131771907201459e-03
4.802878967168876443e+03 2.357476420267840655e+00 1.212878188751867784e-03
4.807681846136046261e+03 2.366086066703066315e+00 2.487229862836378824e-03
4.812489527982183972e+03 2.385637711856080756e+00 8.324602405885200840e-03
4.817302017510168298e+03 2.361356442505301523e+00 2.350364128962032992e-02
4.822119319527679181e+03 2.365830208017837055e+00 2.625509395414390643e-02
4.826941438847208701e+03 2.430249340130582247e+00 1.364478648171519627e-03
4.831768380286057436e+03 2.463043470116701883e+00 2.254787813749126960e-03
4.836600148666345376e+03 2.504881109247599102e+00 7.858046554173377801e-03
4.841436748815013743e+03 2.507599762268281296e+00 3.307377774181775171e-02
4.846278185563829538e+03 2.625481070178456555e+00 3.644027008898850090e-02
4.851124463749395545e+03 2.785996572986916942e+00 4.527532641835432109e-02
4.855975588213146693e+03 2.904742122734805587e+00 4.289475725797588235e-02
4.860831563801360971e+03 2.893681078806038975e+00 4.282642869437273264e-02
4.865692395365163975e+03 2.768338210619336159e+00 4.593450229908850602e-02
4.870558087760530725e+03 2.581693450386095989e+00 3.978138948442736661e-02
4.875428645848292945e+03 2.437100548005141309e+00 3.486257266371983743e-02
4.880304074494142696e+03 2.398861500044668027e+00 2.172598422369271046e-02
4.885184378568638749e+03 2.373110430250839009e+00 1.224027793506731257e-02
4.890069562947209306e+03 2.323786579619752324e+00 2.086307719742937477e-03
4.894959632510157462e+03 2.291668715662756650e+00 2.295625771703217310e-03
4.899854592142669389e+03 2.261589755518179867e+00 2.469786645178138635e-03
4.904754446734813428e+03 2.236364665274619856e+00 2.380713500356953366e-03
4.909659201181550088e+03 2.211931884317065222e+00 2.054338438011370400e-03
4.914568860382732964e+03 2.189748575425288557e+00 2.140798156791781995e-03
4.919483429243117826e+03 2.171006072430062162e+00 1.914947749785664722e-03
4.924402912672362618e+03 2.148564377300103523e+00 1.792605421304045103e-03
4.929327315585036558e+03 2.129933179402548227e+00 1.634576072440700138e-03
4.934256642900622865e+03 2.112803460621450302e+00 1.485451047486308551e-03
4.939190899543525120e+03 2.096798211652133315e+00 1.515974710920702743e-03
4.944130090443070912e+03 2.083430300862372242e+00 1.489154324439485606e-03
4.949074220533515472e+03 2.070367230955381554e+00 1.516120752525017268e-03
4.954023294754050767e+03 2.059540463232623075e+00 1.669282663455905029e-03
4.958977318048806410e+03 2.049380177339417131e+00 1.706981049744784673e-03
4.963936295366856939e+03 2.038812484486686838e+00 2.412218828827769265e-03
4.968900231662225451e+03 2.032739990103996419e+00 2.438148829045453606e-03
4.973869131893889062e+03 2.027324557618416012e+00 2.287672954169448890e-03
4.978843001025784361e+03 2.024819869936444583e+00 2.288573729218616390e-03
4.983821844026811959e+03 2.024425508375670812e+00 2.554023433297049599e-03
4.988805665870840130e+03 2.024707907785754823e+00 2.743124161323446785e-03
4.993794471536712990e+03 2.025102862778567214e+00 2.818899891171382927e-03
4.998788266008251412e+03 2.023024782352018658e+00 2.759685167338363221e-03
5.003787054274261209e+03 2.020279235266483564e+00 2.432555016097137385e-03
5.008790841328536771e+03 2.014593082474398056e+00 2.501202527800919836e-03
5.013799632169867436e+03 2.005932571623590288e+00 2.612753221626965688e-03
5.018813431802038394e+03 1.996228381316076161e+00 2.512638777125667834e-03
5.023832245233842514e+03 1.985288113329152004e+00 2.482655363098978246e-03
5.028856077479077612e+03 1.973399441948007427e+00 2.379296959017825151e-03
5.033884933556558281e+03 1.960910937004377574e+00 2.206159794841566768e-03
5.038918818490116792e+03 1.951273979644967405e+00 2.261315237510793438e-03
5.043957737308608557e+03 1.942308007162891981e+00 2.330982777095804911e-03
5.049001695045918495e+03 1.934611064348029208e+00 2.077492873291649726e-03
5.054050696740966487e+03 1.927628597924963216e+00 1.564258468375823814e-03
5.059104747437709193e+03 1.917440402393658205e+00 1.420783627479406223e-03
5.064163852185148244e+03 1.908248595381456747e+00 1.397156400532845698e-03
5.069228016037335692e+03 1.898133920726430057e+00 1.335542210309303935e-03
5.074297244053374015e+03 1.888579371368514837e+00 1.238100684392610951e-03
5.079371541297429758e+03 1.880437159513020262e+00 1.247743929402222876e-03
5.084450912838728073e+03 1.872502920264426551e+00 1.188735487811768635e-03
5.089535363751569093e+03 1.866120817575315227e+00 1.219418910033742047e-03
5.094624899115322478e+03 1.860058090913095041e+00 1.243044942450066779e-03
5.099719524014439230e+03 1.853880896278122137e+00 1.203941856899767545e-03
5.104819243538455339e+03 1.848298016195350835e+00 1.217776324017636564e-03
5.109924062781995417e+03 1.843809859293719100e+00 1.179739040513040800e-03
5.115033986844779065e+03 1.839420868558975020e+00 1.115871746096923659e-03
5.120149020831625421e+03 1.834612855925287445e+00 1.140129796157596806e-03
5.125269169852458617e+03 1.829608283001886271e+00 1.130745686145367360e-03
5.130394439022313236e+03 1.824289697369048113e+00 9.959548964291356325e-04
