# starting wavelength: 3687.915
# ending wavelength: 7475.463
# wav flux eflux
3.688970548591293209e+03 1.614560936110469580e+00 2.368776763931137730e-01
3.692659519139885560e+03 1.657134233988321492e+00 1.752479757036569386e-01
3.696352178659026777e+03 1.678188563662279087e+00 1.309786091934663776e-01
3.700048530837686940e+03 1.688640868550455254e+00 1.025135858321200438e-01
3.703748579368525952e+03 1.668053401865050578e+00 8.116554574547255041e-02
3.707452327947895355e+03 1.639443031005283213e+00 6.633703252272367401e-02
3.711159780275844696e+03 1.610912330599233444e+00 5.823827457134781588e-02
3.714870940056121526e+03 1.587412020413752511e+00 4.803097312257403190e-02
3.718585810996179134e+03 1.559490631679686157e+00 4.030011826338677355e-02
3.722304396807176545e+03 1.532529206901575902e+00 3.456515094139545746e-02
3.726026701203984885e+03 1.503201355065647116e+00 3.073398311760985185e-02
3.729752727905190113e+03 1.471609530913172481e+00 2.774288662271784042e-02
3.733482480633096657e+03 1.445563510593576240e+00 2.541664932888958520e-02
3.737215963113731050e+03 1.430035258832680789e+00 2.395723952857513675e-02
3.740953179076846027e+03 1.414767800772838369e+00 2.274071318519127818e-02
3.744694132255923705e+03 1.399224681408702597e+00 2.172905126522638175e-02
3.748438826388181042e+03 1.386278802017641976e+00 2.098471121742097670e-02
3.752187265214570289e+03 1.381511258804829501e+00 2.060629206994072510e-02
3.755939452479786269e+03 1.383613129323841173e+00 2.107805392788097976e-02
3.759695391932267285e+03 1.382340369575883576e+00 2.118380727622213439e-02
3.763455087324201031e+03 1.391630595861769626e+00 2.077892359354900284e-02
3.767218542411526414e+03 1.406888513720694345e+00 2.007569391908610446e-02
3.770985760953939007e+03 1.399784903957755455e+00 2.038105550001320654e-02
3.774756746714894234e+03 1.411371896674637583e+00 2.079192252636058794e-02
3.778531503461610555e+03 1.437294985122787416e+00 2.124676918914052137e-02
3.782310034965073100e+03 1.451817961218044184e+00 1.991435556953382452e-02
3.786092345000039586e+03 1.476981431942514966e+00 1.999122869265062413e-02
3.789878437345040766e+03 1.502083393245212894e+00 2.025543529682635735e-02
3.793668315782387253e+03 1.522126318681063184e+00 2.010982247351853283e-02
3.797461984098170888e+03 1.554829364696318272e+00 2.106344530008188651e-02
3.801259446082270188e+03 1.599129817865710956e+00 2.243742682407554381e-02
3.805060705528353537e+03 1.631307443587195261e+00 2.368064244428423615e-02
3.808865766233883278e+03 1.652435755400430750e+00 2.309154585576644533e-02
3.812674632000118436e+03 1.656037063306228907e+00 2.480565112118550755e-02
3.816487306632119726e+03 1.654144894837711099e+00 2.670053573732066726e-02
3.820303793938753188e+03 1.664792565255047041e+00 2.709495648736366322e-02
3.824124097732693372e+03 1.669980012637306332e+00 2.800065603935851175e-02
3.827948221830427428e+03 1.673020739343106245e+00 2.695191413466645203e-02
3.831776170052258749e+03 1.678489806277851715e+00 2.642696969753736622e-02
3.835607946222312421e+03 1.693952162533758798e+00 2.636025579396274882e-02
3.839443554168536139e+03 1.708956445790824841e+00 2.614860152623639175e-02
3.843282997722705659e+03 1.716544966999083321e+00 2.605257333755607932e-02
3.847126280720429804e+03 1.722702989762481707e+00 2.588211287815656361e-02
3.850973407001151372e+03 1.744570389398106824e+00 2.717600223742776613e-02
3.854824380408153957e+03 1.745415433355444357e+00 2.686100462331913324e-02
3.858679204788563311e+03 1.747613836061628900e+00 2.678150169545966824e-02
3.862537883993353262e+03 1.761340383051865466e+00 2.656865566891692537e-02
3.866400421877347981e+03 1.763118667694673736e+00 2.702889746710378238e-02
3.870266822299226533e+03 1.773852921767551161e+00 2.680787431936391962e-02
3.874137089121526969e+03 1.771179228670764383e+00 2.785740832906709319e-02
3.878011226210649966e+03 1.789178055145408841e+00 2.689386785280612618e-02
3.881889237436861549e+03 1.793340714536001190e+00 2.665721460448891231e-02
3.885771126674299921e+03 1.802372343425670431e+00 2.706761153465903763e-02
3.889656897800975457e+03 1.800088523412016084e+00 2.632127506914819573e-02
3.893546554698777527e+03 1.792020006375560914e+00 2.586388468239492200e-02
3.897440101253477678e+03 1.785290548471219374e+00 2.584672643599337377e-02
3.901337541354732366e+03 1.775255384730485719e+00 2.551968490090292599e-02
3.905238878896088409e+03 1.766697001690823887e+00 2.497322775270907971e-02
3.909144117774985716e+03 1.770744282163659200e+00 2.540328447573808948e-02
3.913053261892762293e+03 1.782531823901720713e+00 2.491133129787197198e-02
3.916966315154656058e+03 1.813348037534923352e+00 1.996456522536592046e-02
3.920883281469812118e+03 1.826737779277397555e+00 1.946768609550728057e-02
3.924804164751283224e+03 1.826755687658352167e+00 1.824754288486852075e-02
3.928728968916035683e+03 1.823928056330820002e+00 1.780165281398554331e-02
3.932657697884953450e+03 1.814642353877416570e+00 1.789630218516992735e-02
3.936590355582839493e+03 1.810760539294132165e+00 1.830981152385200220e-02
3.940526945938423523e+03 1.807596211540091868e+00 1.773666301547873608e-02
3.944467472884363360e+03 1.790509888025060725e+00 1.831618277074787901e-02
3.948411940357249023e+03 1.774501189578512328e+00 1.830777606299172425e-02
3.952360352297607733e+03 1.748519979874390007e+00 1.847986946803629668e-02
3.956312712649906643e+03 1.731898075536948856e+00 1.795753521830091570e-02
3.960269025362557841e+03 1.706704524906778264e+00 1.692525587306900961e-02
3.964229294387921527e+03 1.674074142803371634e+00 1.686268578780506996e-02
3.968193523682310570e+03 1.630487871021142121e+00 1.844832546456829162e-02
3.972161717205994591e+03 1.597241275345897327e+00 1.794822365549942830e-02
3.976133878923201792e+03 1.568801951652063709e+00 1.805276220352800345e-02
3.980110012802126221e+03 1.526081053782559760e+00 1.598848004602907574e-02
3.984090122814929600e+03 1.500190668672126026e+00 1.584845533339781024e-02
3.988074212937745870e+03 1.479807843505047460e+00 1.457324666363477884e-02
3.992062287150684824e+03 1.459155028915741559e+00 1.460662740480728888e-02
3.996054349437837118e+03 1.429317721051121426e+00 1.454607302845923808e-02
4.000050403787276082e+03 1.402665648131175447e+00 1.447764228797276259e-02
4.004050454191064546e+03 1.377965997654418073e+00 1.494987388865256714e-02
4.008054504645257111e+03 1.357475839696419717e+00 1.479399808718799558e-02
4.012062559149903791e+03 1.336417305637598751e+00 1.477053694846136925e-02
4.016074621709055009e+03 1.325982146614243185e+00 1.463199754567565992e-02
4.020090696330765240e+03 1.317423481115172823e+00 1.444985640081838073e-02
4.024110787027097558e+03 1.309249956014881144e+00 1.443278330942593390e-02
4.028134897814125907e+03 1.292428763802403457e+00 1.417759162281695927e-02
4.032163032711941469e+03 1.281045505999613754e+00 1.409414872118370556e-02
4.036195195744654484e+03 1.261889391576432873e+00 1.507085537135573541e-02
4.040231390940400615e+03 1.261978327480608897e+00 1.433706394678400248e-02
4.044271622331342314e+03 1.263916419243863443e+00 1.412873349600970996e-02
4.048315893953675186e+03 1.272235568859551247e+00 1.451861488258519850e-02
4.052364209847629809e+03 1.283290115877746107e+00 1.411707252356380823e-02
4.056416574057479011e+03 1.284767462926715398e+00 1.308956495193330793e-02
4.060472990631537868e+03 1.299524596193219139e+00 1.288911151038049305e-02
4.064533463622170530e+03 1.330564824298803295e+00 1.347675158241837083e-02
4.068597997085794304e+03 1.362520990493838458e+00 1.339166125156343243e-02
4.072666595082881486e+03 1.411766721509194911e+00 1.406837885080920378e-02
4.076739261677965715e+03 1.450225601536315079e+00 1.346875770925787252e-02
4.080816000939644709e+03 1.483234373506805870e+00 1.298273297876253660e-02
4.084896816940585722e+03 1.512464082655731401e+00 1.272556693512520362e-02
4.088981713757527814e+03 1.521786657031541923e+00 1.251986059803830535e-02
4.093070695471286854e+03 1.531222793700519169e+00 1.253835348942204664e-02
4.097163766166759160e+03 1.529195658248089895e+00 1.300601121590688573e-02
4.101260929932927866e+03 1.511657898815584877e+00 1.290370038209483552e-02
4.105362190862862008e+03 1.484519338059678839e+00 1.329895221473731924e-02
4.109467553053726078e+03 1.440849370158712395e+00 1.404017050624019845e-02
4.113577020606780934e+03 1.399219560433647480e+00 1.385142531550882274e-02
4.117690597627389252e+03 1.333001226771601155e+00 1.424736722680590602e-02
4.121808288225018259e+03 1.295357191949943587e+00 1.441560232626166484e-02
4.125930096513244280e+03 1.263242110065178503e+00 1.409597695933576325e-02
4.130056026609759101e+03 1.239719327341322064e+00 1.408640464686025662e-02
4.134186082636369974e+03 1.223404693675376631e+00 1.400761528367342433e-02
4.138320268719007800e+03 1.200886992998950520e+00 1.371279708184099978e-02
4.142458588987728035e+03 1.187138643044014508e+00 1.346550820367511253e-02
4.146601047576717065e+03 1.192310692994168475e+00 1.423131638225893711e-02
4.150747648624294925e+03 1.200957187512563973e+00 1.348907217290676482e-02
4.154898396272920763e+03 1.204961659517114425e+00 1.364386808305308695e-02
4.159053294669195566e+03 1.208345790872702885e+00 1.344568468985289297e-02
4.163212347963865795e+03 1.208222668748887729e+00 1.360801248406319497e-02
4.167375560311830668e+03 1.197056278893717574e+00 1.316106646619476933e-02
4.171542935872143971e+03 1.200799935728326329e+00 1.345286178566870022e-02
4.175714478808017702e+03 1.202869818359853848e+00 1.338207277989808021e-02
4.179890193286827525e+03 1.206699385216364107e+00 1.316422403856986646e-02
4.184070083480115500e+03 1.209524440972880699e+00 1.379812761453733279e-02
4.188254153563597356e+03 1.211104241340849486e+00 1.327373367107900597e-02
4.192442407717161586e+03 1.209853714112923528e+00 1.303267145450705614e-02
4.196634850124880359e+03 1.204965196469702571e+00 1.152917672943033767e-02
4.200831484975006788e+03 1.206314614109017302e+00 1.151232083835099750e-02
4.205032316459983122e+03 1.212042531056070960e+00 1.133540353914364723e-02
4.209237348776444378e+03 1.219031653223989986e+00 1.150253942016470250e-02
4.213446586125221984e+03 1.227671178510298500e+00 1.123316524259980118e-02
4.217660032711349231e+03 1.232613921770216114e+00 1.095757891200299823e-02
4.221877692744061278e+03 1.232918855291382565e+00 1.055086099755936715e-02
4.226099570436806971e+03 1.237901536095541433e+00 1.077055584869841993e-02
4.230325670007245208e+03 1.244645525343924142e+00 9.645627569570628876e-03
4.234555995677254032e+03 1.246670860880093823e+00 9.513721929233703162e-03
4.238790551672932452e+03 1.248303490901749191e+00 9.564726188822848807e-03
4.243029342224606808e+03 1.248715387367816732e+00 9.264309741149404087e-03
4.247272371566832589e+03 1.240971975924555437e+00 9.040435115401286928e-03
4.251519643938400804e+03 1.229127876662434726e+00 9.647580488369224619e-03
4.255771163582340705e+03 1.225022023724410714e+00 9.301690040253789496e-03
4.260026934745924336e+03 1.234357393916731604e+00 9.850099729643119542e-03
4.264286961680671993e+03 1.241567077461180002e+00 1.005857542669318962e-02
4.268551248642354039e+03 1.252670492525403079e+00 9.046037814740101601e-03
4.272819799890998183e+03 1.271112583094761161e+00 9.818346393548409504e-03
4.277092619690890388e+03 1.292577845876554443e+00 1.013791811494301441e-02
4.281369712310583054e+03 1.315888021922465345e+00 9.992122455383821780e-03
4.285651082022895025e+03 1.336496624944667255e+00 1.034542852708314475e-02
4.289936733104918858e+03 1.354091548590099725e+00 1.193800458003703956e-02
4.294226669838025373e+03 1.382457368539865561e+00 1.225460879923476881e-02
4.298520896507864563e+03 1.415133881567811391e+00 1.217520923232553315e-02
4.302819417404373780e+03 1.467242722562446477e+00 1.258791670501589917e-02
4.307122236821779552e+03 1.522067731208458286e+00 1.251488947059535561e-02
4.311429359058603040e+03 1.583985515144658240e+00 1.277464981532526640e-02
4.315740788417662770e+03 1.657885203981644962e+00 1.643663658685316775e-02
4.320056529206081905e+03 1.732530464798836212e+00 1.794827029973325438e-02
4.324376585735290064e+03 1.771984162165967103e+00 1.831396340795757305e-02
4.328700962321026054e+03 1.817610592814854709e+00 1.702514584291471220e-02
4.333029663283348782e+03 1.833762504761947243e+00 1.717775154722501682e-02
4.337362692946633615e+03 1.825490149479707558e+00 1.767017820641997305e-02
4.341700055639581478e+03 1.804303106428799985e+00 1.789488447817553021e-02
4.346041755695222491e+03 1.749578700586911673e+00 1.723728321221330156e-02
4.350387797450919606e+03 1.674972742090489408e+00 1.600151320564274435e-02
4.354738185248371337e+03 1.603872581955715582e+00 1.588973354474629632e-02
4.359092923433621763e+03 1.539235193427773929e+00 1.603014852667416709e-02
4.363452016357056891e+03 1.475819640596221838e+00 1.576716657817377534e-02
4.367815468373414660e+03 1.410863546132384849e+00 1.593753652792944883e-02
4.372183283841789489e+03 1.350292492953261148e+00 1.613813451546880842e-02
4.376555467125633186e+03 1.301259893051661676e+00 1.649442651798659065e-02
4.380932022592760404e+03 1.254436969665331247e+00 1.672786299010555963e-02
4.385312954615354101e+03 1.225383838159243233e+00 1.726510553544902821e-02
4.389698267569970994e+03 1.208631702009643760e+00 1.774518429153480042e-02
4.394087965837542470e+03 1.193247909572523247e+00 1.826200581606463383e-02
4.398482053803381859e+03 1.208123774041408360e+00 1.808709637901650263e-02
4.402880535857186260e+03 1.229761726763413554e+00 1.395998894854712236e-02
4.407283416393044718e+03 1.213844051427713344e+00 1.175848512785130154e-02
4.411690699809440048e+03 1.209332053655884698e+00 1.155291141429770282e-02
4.416102390509250654e+03 1.201009521427449878e+00 1.184089181319576863e-02
4.420518492899761441e+03 1.185147365228489402e+00 1.236936006711130374e-02
4.424939011392662906e+03 1.180629335681696590e+00 1.231923003964352850e-02
4.429363950404056595e+03 1.173649227892675784e+00 1.234685991969924554e-02
4.433793314354462382e+03 1.158391385660371808e+00 1.126665513826712040e-02
4.438227107668818462e+03 1.160572089976431132e+00 1.170036021190778812e-02
4.442665334776488635e+03 1.169420266762531968e+00 1.256475657260044607e-02
4.447108000111265937e+03 1.178543606269483179e+00 1.290377575132948748e-02
4.451555108111379013e+03 1.196754036317126957e+00 1.246681747412594840e-02
4.456006663219492111e+03 1.214096869732995687e+00 1.239354513193207871e-02
4.460462669882713271e+03 1.233307555126152533e+00 1.207239981556354480e-02
4.464923132552597053e+03 1.244319518058264462e+00 1.214270972733362715e-02
4.469388055685150903e+03 1.257645146594640995e+00 1.192220718605324636e-02
4.473857443740837880e+03 1.259635991079824491e+00 1.144316096467552779e-02
4.478331301184580298e+03 1.248242590757641768e+00 1.011705697394680789e-02
4.482809632485766087e+03 1.260725092505395217e+00 1.004784156096245017e-02
4.487292442118253348e+03 1.274111690664841312e+00 9.998398176360686826e-03
4.491779734560373072e+03 1.284097488892840255e+00 9.982800231550454165e-03
4.496271514294934605e+03 1.299522309416089705e+00 1.041184526243615037e-02
4.500767785809231100e+03 1.309910548069312952e+00 1.034003476273765744e-02
4.505268553595042249e+03 1.312470114120370512e+00 1.037497626862283334e-02
4.509773822148638828e+03 1.318703388233611218e+00 1.058950455250167073e-02
4.514283595970789065e+03 1.312578514447219957e+00 1.094244012030992814e-02
4.518797879566761367e+03 1.303708350350003098e+00 1.123027307296257417e-02
4.523316677446328868e+03 1.290328532804627670e+00 1.139863598381415238e-02
4.527839994123776705e+03 1.288713245013113795e+00 1.124145011324591270e-02
4.532367834117902021e+03 1.274577179202070587e+00 1.100147722357461624e-02
4.536900201952022144e+03 1.261382533452054755e+00 1.060017809400223485e-02
4.541437102153975502e+03 1.251615126401339984e+00 1.085510027878809104e-02
4.545978539256130716e+03 1.240628694820773648e+00 1.092661899309652768e-02
4.550524517795388419e+03 1.240916684739352238e+00 1.041837034468752476e-02
4.555075042313184895e+03 1.233086945125885903e+00 1.058237315719905668e-02
4.559630117355500261e+03 1.226866028555266830e+00 1.062624583789591876e-02
4.564189747472856652e+03 1.213245009750957948e+00 1.026624635764392980e-02
4.568753937220330954e+03 1.206585530035589882e+00 1.047286730368271294e-02
4.573322691157552981e+03 1.190719823725064019e+00 1.055638601909677718e-02
4.577896013848711846e+03 1.169169153660901017e+00 1.002405802586360355e-02
4.582473909862562323e+03 1.164449154932576613e+00 1.023118970618621532e-02
4.587056383772426670e+03 1.149783116281179129e+00 1.036278399912593344e-02
4.591643440156200086e+03 1.138207064492644305e+00 1.061015915803137019e-02
4.596235083596357981e+03 1.137935981796994733e+00 1.040463411372368960e-02
4.600831318679955984e+03 1.126663044677467251e+00 1.007375934161031453e-02
4.605432149998637215e+03 1.131286210758664312e+00 1.072042828304011104e-02
4.610037582148637739e+03 1.115794975874050854e+00 1.071550521238681490e-02
4.614647619730787483e+03 1.103444682356443440e+00 1.101219315126586787e-02
4.619262267350520233e+03 1.088473084534633539e+00 1.111662718426910217e-02
4.623881529617872729e+03 1.083883842842362499e+00 1.126579926780257347e-02
4.628505411147491941e+03 1.078392775826562788e+00 1.131693175195741703e-02
4.633133916558640522e+03 1.072524450902316628e+00 1.161561228334775757e-02
4.637767050475200449e+03 1.071451687802938535e+00 1.178783515878837826e-02
4.642404817525677572e+03 1.053711847112013489e+00 1.154505097971252232e-02
4.647047222343205249e+03 1.037020158805566528e+00 1.173511624672933344e-02
4.651694269565549803e+03 1.028065526748695113e+00 1.180037749961005550e-02
4.656345963835116891e+03 1.019641606503494335e+00 1.174616453431980359e-02
4.661002309798953320e+03 1.006104527918343816e+00 1.132405318204879330e-02
4.665663312108753416e+03 9.932139292805026720e-01 1.195622534571889883e-02
4.670328975420864481e+03 9.808061687720011079e-01 1.184957232751646279e-02
4.674999304396286789e+03 9.665540611906437984e-01 1.170382867963266731e-02
4.679674303700684504e+03 9.503804386577412444e-01 1.113705194010172067e-02
4.684353978004386590e+03 9.369078880127673647e-01 1.111307272817118122e-02
4.689038331982392265e+03 9.279444849064520939e-01 1.114123777226024709e-02
4.693727370314376458e+03 9.262224174161848289e-01 1.069837042498889695e-02
4.698421097684692540e+03 9.320522590717790212e-01 1.022796714866873631e-02
4.703119518782378691e+03 9.253563324341345098e-01 9.992619075873159645e-03
4.707822638301162442e+03 9.300969588054123216e-01 1.074864247120225179e-02
4.712530460939465229e+03 9.270240036616651524e-01 1.045196521018361586e-02
4.717242991400406027e+03 9.212074476681968438e-01 1.054643992913182476e-02
4.721960234391808626e+03 9.196390606070551366e-01 1.031149783965618072e-02
4.726682194626201635e+03 9.195627209534105173e-01 1.024894530453853390e-02
4.731408876820829391e+03 9.209416894924823405e-01 1.019174883935345700e-02
4.736140285697651962e+03 9.161769412126729017e-01 9.405618054458048452e-03
4.740876425983350600e+03 9.267358503111364776e-01 9.750168542043963563e-03
4.745617302409335934e+03 9.406172901554722410e-01 9.561883387595971132e-03
4.750362919711747054e+03 9.565365347479019009e-01 9.739919172117481386e-03
4.755113282631459697e+03 9.813562477016988250e-01 9.913565590222744861e-03
4.759868395914093526e+03 1.007491769425800987e+00 9.224104833184955388e-03
4.764628264310008490e+03 1.042874316451813721e+00 8.800414801820378649e-03
4.769392892574320285e+03 1.080564926207924437e+00 8.213112964117951983e-03
4.774162285466896719e+03 1.117806477286863664e+00 8.211836292365925008e-03
4.778936447752364984e+03 1.160617848523002316e+00 8.539443820293873486e-03
4.783715384200118933e+03 1.195388292533355434e+00 8.415201459063249845e-03
4.788499099584319993e+03 1.224449734606801066e+00 8.680824588066115080e-03
4.793287598683906253e+03 1.261388533388786204e+00 8.915451231876599103e-03
4.798080886282591564e+03 1.309943700066694028e+00 8.811730617108909369e-03
4.802878967168876443e+03 1.350333152346257615e+00 1.286882213760773275e-02
