# starting wavelength: 3650.280
# ending wavelength: 6758.250
# wav flux eflux
3.652282927542266862e+03 1.499430392474746299e+00 2.221457061306587821e+00
3.655935210469810499e+03 1.175767637569383517e+00 1.677633503415390637e+00
3.659591145680281443e+03 9.610916833386853320e-01 1.233610422642861471e+00
3.663250736825963031e+03 7.644458564561369407e-01 9.493223319603445454e-01
3.666913987562790226e+03 6.255271228810105333e-01 7.337855703391527040e-01
3.670580901550354156e+03 5.233243611404370110e-01 5.777507658541513047e-01
3.674251482451905758e+03 4.700509496171485502e-01 4.700402773859065353e-01
3.677925733934358959e+03 4.604414090142247007e-01 3.824360911888340375e-01
3.681603659668294313e+03 5.347827650764598317e-01 3.366008517867247751e-01
3.685285263327964003e+03 6.365254058894650457e-01 2.875634903684666788e-01
3.688970548591293209e+03 8.554441970359063507e-01 2.742537082028534412e-01
3.692659519139885560e+03 1.033912024123046614e+00 2.480342612966551508e-01
3.696352178659026777e+03 1.319003775505727560e+00 2.443034349967527219e-01
3.700048530837686940e+03 1.514562960436497185e+00 2.318557567108083528e-01
3.703748579368525952e+03 1.761169037997534215e+00 2.245010804164313534e-01
3.707452327947895355e+03 1.954187032529517420e+00 2.135743900328655187e-01
3.711159780275844696e+03 2.078800891744079227e+00 2.104954513733484356e-01
3.714870940056121526e+03 2.133725689393735969e+00 2.038715648351715481e-01
3.718585810996179134e+03 2.291040727874735339e+00 1.916042558209720970e-01
3.722304396807176545e+03 2.295205179539909324e+00 1.876055129356337114e-01
3.726026701203984885e+03 2.208883628516186803e+00 1.746380496824940787e-01
3.729752727905190113e+03 2.203220684751622915e+00 1.657870965446265055e-01
3.733482480633096657e+03 2.155583653420666490e+00 1.663304589480624485e-01
3.737215963113731050e+03 2.016583452606734994e+00 1.850853600949579070e-01
3.740953179076846027e+03 1.861922285350536832e+00 1.828979818833127435e-01
3.744694132255923705e+03 1.710348803854587985e+00 1.817058014814566802e-01
3.748438826388181042e+03 1.524000779114544013e+00 1.761254495374768581e-01
3.752187265214570289e+03 1.342961433312713115e+00 1.611527762243410156e-01
3.755939452479786269e+03 1.233437474458187744e+00 1.526103052555396189e-01
3.759695391932267285e+03 1.067322735529561362e+00 1.484972684285234823e-01
3.763455087324201031e+03 9.187363491934595894e-01 1.255608533678240490e-01
3.767218542411526414e+03 8.338127408861421008e-01 1.257522195899322126e-01
3.770985760953939007e+03 8.219629315856503693e-01 1.174064240999934949e-01
3.774756746714894234e+03 8.577588422389914591e-01 1.155515031012849664e-01
3.778531503461610555e+03 9.609892118277905126e-01 1.082334936846217482e-01
3.782310034965073100e+03 1.006624322163925056e+00 1.081455197826650810e-01
3.786092345000039586e+03 1.169222879643497803e+00 1.144800946507670697e-01
3.789878437345040766e+03 1.253198510301129387e+00 1.151354207644906813e-01
3.793668315782387253e+03 1.291267308661756541e+00 1.082292860485196961e-01
3.797461984098170888e+03 1.275416460862731860e+00 1.100437695280570977e-01
3.801259446082270188e+03 1.286681559350890680e+00 1.165701246387083057e-01
3.805060705528353537e+03 1.285305363242450705e+00 1.104674213609629224e-01
3.808865766233883278e+03 1.282160698103715246e+00 1.171302465251488067e-01
3.812674632000118436e+03 1.277587002930255178e+00 1.183084907024781612e-01
3.816487306632119726e+03 1.283061446262489413e+00 1.182322455037513736e-01
3.820303793938753188e+03 1.259699712423740126e+00 1.272055602523088080e-01
3.824124097732693372e+03 1.281548401117028835e+00 1.363864928863032788e-01
3.827948221830427428e+03 1.291947707315774130e+00 1.302964333610106828e-01
3.831776170052258749e+03 1.317463846706228292e+00 1.259489229601286342e-01
3.835607946222312421e+03 1.356327134325405748e+00 1.346691914074022445e-01
3.839443554168536139e+03 1.405035547529420725e+00 1.258719728455718612e-01
3.843282997722705659e+03 1.439816486731402723e+00 1.344998641830627562e-01
3.847126280720429804e+03 1.546406100409073225e+00 1.581745352536989280e-01
3.850973407001151372e+03 1.570267784420021684e+00 1.584769474042415638e-01
3.854824380408153957e+03 1.610728702940183110e+00 1.553411406516363724e-01
3.858679204788563311e+03 1.703528204236353982e+00 1.468745247361397666e-01
3.862537883993353262e+03 1.732748692320116968e+00 1.455582584735584106e-01
3.866400421877347981e+03 1.751125953270843638e+00 1.457629849538109867e-01
3.870266822299226533e+03 1.720752863117750664e+00 1.505334327630547253e-01
3.874137089121526969e+03 1.617409496693953841e+00 1.079276734990281261e-01
3.878011226210649966e+03 1.569093181246108637e+00 1.073339565356719594e-01
3.881889237436861549e+03 1.514063278257820722e+00 1.071546070297658138e-01
3.885771126674299921e+03 1.490912749847367991e+00 1.100530219110106289e-01
3.889656897800975457e+03 1.428739418155569041e+00 1.051399705622065167e-01
3.893546554698777527e+03 1.380603948848275309e+00 1.121400645276778157e-01
3.897440101253477678e+03 1.352247440818290958e+00 1.114757076984895928e-01
3.901337541354732366e+03 1.343659385030125275e+00 1.125491721050341370e-01
3.905238878896088409e+03 1.376163700495287356e+00 1.080773902900457051e-01
3.909144117774985716e+03 1.480797447560988411e+00 1.186630705064643937e-01
3.913053261892762293e+03 1.480397232068211277e+00 1.291921235633902709e-01
3.916966315154656058e+03 1.451954802844388492e+00 1.215808589374419019e-01
3.920883281469812118e+03 1.428257945513590865e+00 1.311103652473650516e-01
3.924804164751283224e+03 1.429224723528545793e+00 1.307887237455813423e-01
3.928728968916035683e+03 1.436839808923665363e+00 1.314312070807543698e-01
3.932657697884953450e+03 1.381801594940916367e+00 1.281608228450494824e-01
3.936590355582839493e+03 1.476777825809723943e+00 1.282527172542756999e-01
3.940526945938423523e+03 1.449160393417457504e+00 1.279616530156113263e-01
3.944467472884363360e+03 1.624731055842997707e+00 1.540082335400753399e-01
3.948411940357249023e+03 1.681655383860059416e+00 1.683805063796175450e-01
3.952360352297607733e+03 1.801349328468885735e+00 1.789464088769552597e-01
3.956312712649906643e+03 1.847133879456321459e+00 1.791393789930242897e-01
3.960269025362557841e+03 1.971281851372276073e+00 1.690910261737700870e-01
3.964229294387921527e+03 2.050620009640173880e+00 1.427627203738183470e-01
3.968193523682310570e+03 1.937162119458218479e+00 1.479207201426978313e-01
3.972161717205994591e+03 1.758609486074017347e+00 1.776548921074319609e-01
3.976133878923201792e+03 1.580410327152728112e+00 1.835765198482021687e-01
3.980110012802126221e+03 1.415193528033827475e+00 1.687869262924705238e-01
3.984090122814929600e+03 1.202901124503998442e+00 1.201002843959507460e-01
3.988074212937745870e+03 1.095180770345641541e+00 1.331265940840057338e-01
3.992062287150684824e+03 1.061294006014900981e+00 1.297611767093788671e-01
3.996054349437837118e+03 1.027500904355919120e+00 1.303239470748083217e-01
4.000050403787276082e+03 1.017047093514396927e+00 1.309879000002982241e-01
4.004050454191064546e+03 1.107426337527576354e+00 1.042795299801262260e-01
4.008054504645257111e+03 1.222709965845628854e+00 1.070480327411861554e-01
4.012062559149903791e+03 1.268775734355007456e+00 1.070028915200955527e-01
4.016074621709055009e+03 1.221972640776833652e+00 9.318727006780698485e-02
4.020090696330765240e+03 1.286193926402730003e+00 9.242420079644271536e-02
4.024110787027097558e+03 1.301731234268500792e+00 9.192160159253578988e-02
4.028134897814125907e+03 1.266333846533058027e+00 8.724057807544442766e-02
4.032163032711941469e+03 1.275233263333518607e+00 8.336044062300598800e-02
4.036195195744654484e+03 1.271590769589882486e+00 8.252775861639831401e-02
4.040231390940400615e+03 1.284096372734987224e+00 8.687076698459847424e-02
4.044271622331342314e+03 1.238238946135329588e+00 7.908189709337253015e-02
4.048315893953675186e+03 1.172556457454101864e+00 8.609688386810232519e-02
4.052364209847629809e+03 1.076106774724412851e+00 8.941927602187040025e-02
4.056416574057479011e+03 1.008865634610186302e+00 8.425925616154966713e-02
4.060472990631537868e+03 9.758740473474153410e-01 9.226447506045649949e-02
4.064533463622170530e+03 9.780936262683648241e-01 9.247048031888376041e-02
4.068597997085794304e+03 1.012150993633579077e+00 9.330866149658163800e-02
4.072666595082881486e+03 1.042642029670292292e+00 8.672111729800603686e-02
4.076739261677965715e+03 1.107794792776631843e+00 8.023499716732182541e-02
4.080816000939644709e+03 1.203313446565225764e+00 8.074296779754014386e-02
4.084896816940585722e+03 1.404993370430002164e+00 7.555715919367375633e-02
4.088981713757527814e+03 1.534882370649246042e+00 7.941830715347415748e-02
4.093070695471286854e+03 1.599233639262944706e+00 7.974480785013877970e-02
4.097163766166759160e+03 1.696792251685292907e+00 3.674228355255385742e-02
4.101260929932927866e+03 1.672294684486930194e+00 3.963780414297669169e-02
4.105362190862862008e+03 1.604773936047509064e+00 3.973322381477764620e-02
4.109467553053726078e+03 1.395122652386489914e+00 9.780487340257484896e-02
4.113577020606780934e+03 1.244035556791632580e+00 9.947255279249694881e-02
4.117690597627389252e+03 1.179829822331639466e+00 9.959247558160813640e-02
4.121808288225018259e+03 1.119041776244913855e+00 9.206984698752897212e-02
4.125930096513244280e+03 1.147813363259019059e+00 1.207559906068352146e-01
4.130056026609759101e+03 1.132616557133169000e+00 1.208204263708302639e-01
4.134186082636369974e+03 1.169044354461855839e+00 1.159095365979054826e-01
4.138320268719007800e+03 1.214048756125896800e+00 1.087581668749076774e-01
4.142458588987728035e+03 1.296850843429099287e+00 9.358205060214846993e-02
4.146601047576717065e+03 1.345429241170386092e+00 9.476615479354197347e-02
4.150747648624294925e+03 1.335650549018678079e+00 8.669258271084173684e-02
4.154898396272920763e+03 1.286380828922102371e+00 8.816348279301958191e-02
4.159053294669195566e+03 1.221373146175588120e+00 9.422897480343785104e-02
4.163212347963865795e+03 1.115115110023523259e+00 1.147567753573565663e-01
4.167375560311830668e+03 1.000595894583153900e+00 9.993588044735393638e-02
4.171542935872143971e+03 9.830979883835252453e-01 1.013742204645508571e-01
4.175714478808017702e+03 1.097045847664404272e+00 1.339971145055786628e-01
4.179890193286827525e+03 1.234376535580045342e+00 1.303437954315791736e-01
4.184070083480115500e+03 1.285329408705467857e+00 1.432566977914799533e-01
4.188254153563597356e+03 1.326015302829574471e+00 1.305557809758115251e-01
4.192442407717161586e+03 1.352975214401628712e+00 1.287941271270075239e-01
4.196634850124880359e+03 1.384732631880766673e+00 1.371324943922399564e-01
4.200831484975006788e+03 1.353957822348866857e+00 1.266458808771052102e-01
4.205032316459983122e+03 1.323528403370478612e+00 1.316745652170999148e-01
4.209237348776444378e+03 1.236073517944562550e+00 1.265174048908300208e-01
4.213446586125221984e+03 1.179464547624486936e+00 1.178198099272813049e-01
4.217660032711349231e+03 1.117096406460271529e+00 1.044292911795129813e-01
4.221877692744061278e+03 1.063468526556892835e+00 1.083862183450403638e-01
4.226099570436806971e+03 1.109379766157735148e+00 1.082697402260599101e-01
4.230325670007245208e+03 1.154259029498297062e+00 1.012081972352811554e-01
4.234555995677254032e+03 1.294665150956014088e+00 6.641093287580375482e-02
4.238790551672932452e+03 1.336440424773380764e+00 6.961699479871827356e-02
4.243029342224606808e+03 1.312471372058406249e+00 7.215829721646647987e-02
4.247272371566832589e+03 1.212938210521993021e+00 7.726880750798829911e-02
4.251519643938400804e+03 1.208389292428597495e+00 8.452520776644699418e-02
4.255771163582340705e+03 1.207191909493116055e+00 7.660512128979031499e-02
4.260026934745924336e+03 1.177394400375671335e+00 7.472662064362282919e-02
4.264286961680671993e+03 1.164833082319397528e+00 7.474780375725384451e-02
4.268551248642354039e+03 1.199725263217084725e+00 6.834269718735837273e-02
4.272819799890998183e+03 1.271998347802807405e+00 8.191245465345405041e-02
4.277092619690890388e+03 1.345448426268578190e+00 8.331218462481659870e-02
4.281369712310583054e+03 1.418865737137954053e+00 8.344433339041519571e-02
4.285651082022895025e+03 1.465762184458764716e+00 7.825603334452310711e-02
4.289936733104918858e+03 1.504084501371562910e+00 7.654334462621797952e-02
4.294226669838025373e+03 1.508535164317482913e+00 7.628547664987518628e-02
4.298520896507864563e+03 1.493123753407408216e+00 7.772747094124823897e-02
4.302819417404373780e+03 1.398094477957637860e+00 8.104694300930967432e-02
4.307122236821779552e+03 1.383880209393694161e+00 8.126833412246756150e-02
4.311429359058603040e+03 1.302672210071600389e+00 7.143800421535005662e-02
4.315740788417662770e+03 1.368971071772646431e+00 7.399401838035893353e-02
4.320056529206081905e+03 1.444613783443580601e+00 7.854677270112138399e-02
4.324376585735290064e+03 1.610925654872187751e+00 9.342918300891103756e-02
4.328700962321026054e+03 1.765254786270508802e+00 1.013881247289063897e-01
4.333029663283348782e+03 1.954963268578850499e+00 7.653829965763307708e-02
4.337362692946633615e+03 2.072226537946281422e+00 7.597513862108852545e-02
4.341700055639581478e+03 2.191930968764979504e+00 6.791474409739355067e-02
4.346041755695222491e+03 2.227907171681235088e+00 6.778444023121600603e-02
4.350387797450919606e+03 2.208057648190115074e+00 6.781403776845799924e-02
4.354738185248371337e+03 2.123452667292142326e+00 7.208065259180553019e-02
4.359092923433621763e+03 1.954861705426169438e+00 8.597387487406579765e-02
4.363452016357056891e+03 1.821901294487000111e+00 8.673541410468867119e-02
4.367815468373414660e+03 1.600295543787207730e+00 4.853407658508221423e-02
4.372183283841789489e+03 1.428001299209304964e+00 4.602325812407653816e-02
4.376555467125633186e+03 1.343746603246387616e+00 5.934466662560657774e-02
4.380932022592760404e+03 1.228530825663851633e+00 5.899688115107269010e-02
4.385312954615354101e+03 1.150640835786516991e+00 5.491149767217087807e-02
4.389698267569970994e+03 1.074458241119148783e+00 5.402766502427282930e-02
4.394087965837542470e+03 1.016375723547342069e+00 5.422967209421952761e-02
4.398482053803381859e+03 9.783571614991783960e-01 5.725724905460867487e-02
4.402880535857186260e+03 9.800720490779010197e-01 5.736370659039240205e-02
4.407283416393044718e+03 1.029117873339171041e+00 5.848149891687455526e-02
4.411690699809440048e+03 1.057002751235768478e+00 6.377004068360912770e-02
4.416102390509250654e+03 1.099970412271818798e+00 6.695966230221070403e-02
4.420518492899761441e+03 1.146947464363562208e+00 6.640251441021678691e-02
4.424939011392662906e+03 1.169879099898987418e+00 6.101714882578569005e-02
4.429363950404056595e+03 1.217298442034172590e+00 6.367206202003232451e-02
4.433793314354462382e+03 1.250856138862624034e+00 6.313614690990856926e-02
4.438227107668818462e+03 1.247222512904778480e+00 7.300930921920029126e-02
4.442665334776488635e+03 1.261901544306760048e+00 7.346785008110001680e-02
4.447108000111265937e+03 1.299278510190739588e+00 7.438838481604528874e-02
4.451555108111379013e+03 1.350699429639377058e+00 7.501058567313237391e-02
4.456006663219492111e+03 1.348428761271972753e+00 7.145593362426816419e-02
4.460462669882713271e+03 1.381197936961854111e+00 7.084694973652956584e-02
4.464923132552597053e+03 1.402730926567419489e+00 6.856525635286526976e-02
4.469388055685150903e+03 1.392280468477130828e+00 6.337987775963628556e-02
4.473857443740837880e+03 1.415205388375445850e+00 5.949832087658770557e-02
4.478331301184580298e+03 1.360954917155603239e+00 6.554372720443706057e-02
4.482809632485766087e+03 1.338885300500399778e+00 6.066895979576821668e-02
4.487292442118253348e+03 1.289358042982253760e+00 4.559192269026749594e-02
4.491779734560373072e+03 1.263321834766373053e+00 4.892377370131052033e-02
4.496271514294934605e+03 1.273737996504029857e+00 5.627296160102516348e-02
4.500767785809231100e+03 1.267977560669764747e+00 5.218295547172993598e-02
4.505268553595042249e+03 1.266154825954545871e+00 4.979838710475496810e-02
4.509773822148638828e+03 1.280255269648669314e+00 5.063073346335619784e-02
4.514283595970789065e+03 1.275314207849332249e+00 4.705993621060797216e-02
4.518797879566761367e+03 1.277402480529415740e+00 4.763304715355490271e-02
4.523316677446328868e+03 1.240259294468477824e+00 2.491147417196550376e-02
4.527839994123776705e+03 1.232033811553898461e+00 2.599984933094378475e-02
4.532367834117902021e+03 1.256926613237674628e+00 4.143317450756270337e-02
4.536900201952022144e+03 1.270460259552782079e+00 4.038831644880849780e-02
4.541437102153975502e+03 1.259516617252878001e+00 4.378062772449532736e-02
4.545978539256130716e+03 1.238259889185705065e+00 4.892562270631123367e-02
4.550524517795388419e+03 1.215700920776013216e+00 4.954442151218790141e-02
4.555075042313184895e+03 1.215430567323405375e+00 4.942647916913083667e-02
4.559630117355500261e+03 1.200599044279393457e+00 4.976485453102480472e-02
4.564189747472856652e+03 1.217740697120104576e+00 5.368566383675987819e-02
4.568753937220330954e+03 1.198869155996332259e+00 5.310865437014281737e-02
4.573322691157552981e+03 1.178652124821256253e+00 5.272649963873218132e-02
4.577896013848711846e+03 1.182930834721923619e+00 5.556258421362895300e-02
4.582473909862562323e+03 1.186381947652618951e+00 5.239654425387330755e-02
4.587056383772426670e+03 1.197700008878353595e+00 5.176383003624613482e-02
4.591643440156200086e+03 1.141970256994726540e+00 6.831206877609347083e-02
4.596235083596357981e+03 1.123608080593156089e+00 7.410443701311777986e-02
4.600831318679955984e+03 1.104026082060449498e+00 6.814996718771255957e-02
4.605432149998637215e+03 1.089126123377145428e+00 6.991118463351925216e-02
4.610037582148637739e+03 1.052503926004074941e+00 6.783548221201532447e-02
4.614647619730787483e+03 1.047100965414853091e+00 6.843409580672517312e-02
4.619262267350520233e+03 1.028799572883913882e+00 6.260751768277203477e-02
4.623881529617872729e+03 1.014676331612467175e+00 6.548005307121611274e-02
4.628505411147491941e+03 9.950487184779110983e-01 6.495224055145057407e-02
4.633133916558640522e+03 1.004727181425313809e+00 6.524506312663784502e-02
4.637767050475200449e+03 1.009732249176700458e+00 6.360493090397896510e-02
4.642404817525677572e+03 1.056715728980654356e+00 8.242145733605785174e-02
4.647047222343205249e+03 1.054881511329480714e+00 7.909165944870771847e-02
4.651694269565549803e+03 1.050242800688119926e+00 7.939329072262087117e-02
4.656345963835116891e+03 1.029795840051548339e+00 7.861059075419361830e-02
4.661002309798953320e+03 9.812847868780513183e-01 8.255027291390183708e-02
4.665663312108753416e+03 9.792999472756430679e-01 8.234539348563695016e-02
4.670328975420864481e+03 9.758551314943766375e-01 8.267529513305223177e-02
4.674999304396286789e+03 9.813498832211559053e-01 8.199560273858254311e-02
4.679674303700684504e+03 9.582631636127687536e-01 6.799550253600505911e-02
4.684353978004386590e+03 9.715269190431939927e-01 7.190173413817399495e-02
4.689038331982392265e+03 9.572760635762075365e-01 6.824089908848469943e-02
4.693727370314376458e+03 9.942181822998843455e-01 7.085401865042728620e-02
4.698421097684692540e+03 1.066481132169579737e+00 7.880483558446778336e-02
4.703119518782378691e+03 1.092086385994450737e+00 7.341119612191551735e-02
4.707822638301162442e+03 1.087973834379320159e+00 6.813398819246017923e-02
4.712530460939465229e+03 1.066555405950238899e+00 7.287960847347688120e-02
4.717242991400406027e+03 9.898925959306466016e-01 7.583987285301989345e-02
4.721960234391808626e+03 9.627280183294785187e-01 7.378471483137670484e-02
4.726682194626201635e+03 9.591017574735574147e-01 7.149790286326029864e-02
4.731408876820829391e+03 9.640424279696067078e-01 7.152866383499816016e-02
4.736140285697651962e+03 9.364276712084587118e-01 6.976172183167979324e-02
4.740876425983350600e+03 9.209343774526072002e-01 6.963824034623228298e-02
4.745617302409335934e+03 9.231096065103197024e-01 6.468746020235863203e-02
4.750362919711747054e+03 9.058898748167675263e-01 6.963434032605388124e-02
4.755113282631459697e+03 9.104027373723422301e-01 6.785871658967623787e-02
