# starting wavelength: 3684.896
# ending wavelength: 6831.820
# wav flux eflux
3.685285263327964003e+03 1.732247047681648722e-01 3.176033719412315048e-01
3.688970548591293209e+03 1.413059428131716588e-01 2.247394210591180386e-01
3.692659519139885560e+03 1.271936848735580328e-01 1.690704867100396303e-01
3.696352178659026777e+03 1.388843385947431397e-01 1.334706766489504037e-01
3.700048530837686940e+03 1.466284943261249585e-01 1.024649394626627463e-01
3.703748579368525952e+03 1.587674130009564533e-01 8.109958970986000382e-02
3.707452327947895355e+03 1.726653096548525779e-01 8.400321803613933214e-02
3.711159780275844696e+03 1.744394342818981480e-01 6.753020581626632823e-02
3.714870940056121526e+03 1.680718043217008795e-01 6.262779110806232508e-02
3.718585810996179134e+03 1.643630152091835328e-01 5.243111786469045049e-02
3.722304396807176545e+03 1.598158255756938206e-01 4.682456057664090981e-02
3.726026701203984885e+03 1.588669476426344818e-01 4.136463236884378725e-02
3.729752727905190113e+03 1.626798831417808344e-01 3.827386517764655438e-02
3.733482480633096657e+03 1.671234866672874630e-01 3.563365815032905337e-02
3.737215963113731050e+03 1.754538273632874068e-01 3.369984890099947394e-02
3.740953179076846027e+03 1.857012958753571918e-01 3.263757156307176693e-02
3.744694132255923705e+03 1.980702511226437035e-01 3.128986100281715838e-02
3.748438826388181042e+03 2.145416346575909350e-01 3.114339938845255354e-02
3.752187265214570289e+03 2.300146696813772651e-01 3.250575473000156396e-02
3.755939452479786269e+03 2.542519504935968899e-01 3.268145845228558055e-02
3.759695391932267285e+03 2.713302231306442547e-01 3.507232644218759993e-02
3.763455087324201031e+03 3.031414061679456595e-01 3.589295836212104407e-02
3.767218542411526414e+03 3.229218513618689612e-01 3.573205298087321624e-02
3.770985760953939007e+03 3.455053906257392060e-01 3.775039943316785274e-02
3.774756746714894234e+03 3.681276301402394147e-01 4.015270892213086695e-02
3.778531503461610555e+03 3.865045503758588463e-01 3.919245895856647566e-02
3.782310034965073100e+03 4.217697860606148264e-01 3.569423767079727555e-02
3.786092345000039586e+03 4.470922289873172639e-01 3.233339873328082426e-02
3.789878437345040766e+03 4.517563690682244171e-01 3.230877079834183069e-02
3.793668315782387253e+03 4.542167955051315542e-01 3.408544921284495377e-02
3.797461984098170888e+03 4.235481793011290907e-01 2.824097083584743012e-02
3.801259446082270188e+03 4.104202676878584977e-01 2.703618806154120188e-02
3.805060705528353537e+03 3.699137875466515513e-01 2.232694934841644024e-02
3.808865766233883278e+03 3.547410265094981807e-01 2.399445200809904519e-02
3.812674632000118436e+03 3.319978132788406477e-01 2.939383292250139640e-02
3.816487306632119726e+03 3.204166115355181477e-01 3.064099526566710710e-02
3.820303793938753188e+03 3.077322014883721035e-01 3.058873712703242750e-02
3.824124097732693372e+03 3.162081353993407840e-01 3.052986187012377353e-02
3.827948221830427428e+03 3.477247765721575568e-01 3.311805726417785950e-02
3.831776170052258749e+03 3.469380371274498054e-01 3.090438849939907209e-02
3.835607946222312421e+03 3.785150966219478219e-01 3.543446022606699247e-02
3.839443554168536139e+03 3.945708076696201605e-01 3.820546922175056814e-02
3.843282997722705659e+03 4.376371115809001289e-01 3.933922098795472611e-02
3.847126280720429804e+03 4.642843310688595238e-01 3.839760514565833394e-02
3.850973407001151372e+03 5.024661854827356944e-01 3.595495449045842812e-02
3.854824380408153957e+03 5.270797896573690133e-01 3.523287350798198075e-02
3.858679204788563311e+03 5.419004022768184603e-01 3.518743964172540983e-02
3.862537883993353262e+03 5.432763138973425443e-01 3.982985802613585313e-02
3.866400421877347981e+03 5.595780593366882494e-01 4.262709628693021197e-02
3.870266822299226533e+03 5.622877038658353754e-01 4.056277262686754093e-02
3.874137089121526969e+03 5.611553207845478841e-01 4.378969644597656419e-02
3.878011226210649966e+03 5.386603334278790012e-01 4.027798409910274269e-02
3.881889237436861549e+03 5.366144870646881726e-01 3.802248629896868432e-02
3.885771126674299921e+03 5.184103371184133335e-01 3.921130560595090242e-02
3.889656897800975457e+03 5.079404582303047588e-01 3.949886460219251966e-02
3.893546554698777527e+03 4.968539435465167409e-01 4.241933974995666656e-02
3.897440101253477678e+03 4.904578681412789520e-01 4.012312839912998697e-02
3.901337541354732366e+03 5.019007467508898035e-01 4.317608582387526261e-02
3.905238878896088409e+03 5.354827481809737444e-01 3.591835451610198016e-02
3.909144117774985716e+03 5.544641517857054058e-01 3.597911266294669119e-02
3.913053261892762293e+03 5.857077929437286556e-01 3.596712732363777781e-02
3.916966315154656058e+03 5.797439526161483059e-01 3.452750321724516042e-02
3.920883281469812118e+03 5.964005862347202536e-01 3.895428556797415204e-02
3.924804164751283224e+03 5.848158985051192804e-01 3.927552042542109545e-02
3.928728968916035683e+03 5.814051555717177910e-01 4.078092356006084163e-02
3.932657697884953450e+03 5.550342610010047251e-01 4.003641403750872463e-02
3.936590355582839493e+03 5.453597228751660975e-01 4.308089549222322845e-02
3.940526945938423523e+03 5.117827315944695199e-01 5.131437307367098244e-02
3.944467472884363360e+03 5.038985669468341033e-01 5.638924549226365796e-02
3.948411940357249023e+03 4.948485466032153113e-01 5.223761866715740526e-02
3.952360352297607733e+03 4.802953285428968044e-01 5.062036665226665733e-02
3.956312712649906643e+03 4.556178427370227157e-01 4.634810615173443754e-02
3.960269025362557841e+03 4.723552416990476899e-01 4.576137321540638125e-02
3.964229294387921527e+03 4.817142912746342764e-01 5.034986344920756168e-02
3.968193523682310570e+03 5.187170831906956492e-01 5.285203624318031423e-02
3.972161717205994591e+03 5.720758816844585537e-01 4.706048699912613459e-02
3.976133878923201792e+03 5.982476540513846919e-01 4.333564637673133213e-02
3.980110012802126221e+03 6.564857047639141019e-01 3.609302290468383023e-02
3.984090122814929600e+03 6.638506018141323572e-01 3.815442635885766404e-02
3.988074212937745870e+03 6.744776737109499098e-01 3.557194536119988315e-02
3.992062287150684824e+03 6.588620386775217996e-01 2.738892438494625742e-02
3.996054349437837118e+03 6.497559794775742414e-01 2.264816086174815946e-02
4.000050403787276082e+03 6.480116333155280239e-01 2.275254915248288087e-02
4.004050454191064546e+03 6.621525044721240372e-01 1.977336396562873536e-02
4.008054504645257111e+03 6.776970493682802354e-01 1.700575574047060237e-02
4.012062559149903791e+03 6.884290684095002444e-01 1.696782099846657135e-02
4.016074621709055009e+03 7.017308560007846641e-01 1.659639011296784594e-02
4.020090696330765240e+03 6.960346348486111667e-01 8.945095569802618413e-03
4.024110787027097558e+03 7.039183092415227661e-01 8.868203139092539419e-03
4.028134897814125907e+03 7.273740604299171464e-01 1.973691036792197748e-02
4.032163032711941469e+03 7.333639676827310439e-01 2.155539123026002646e-02
4.036195195744654484e+03 7.287288512067212620e-01 2.063698399449239232e-02
4.040231390940400615e+03 7.340624231932365573e-01 2.010651690778709338e-02
4.044271622331342314e+03 7.308069657507137995e-01 2.031251754918006122e-02
4.048315893953675186e+03 7.184130097874354970e-01 2.893272426358372770e-02
4.052364209847629809e+03 7.156385362446558984e-01 2.788468370654330689e-02
4.056416574057479011e+03 7.147156406311694354e-01 2.802700960835106947e-02
4.060472990631537868e+03 7.244202904317348368e-01 3.866021515337786374e-02
4.064533463622170530e+03 7.122539670733626371e-01 3.928691975850244489e-02
4.068597997085794304e+03 7.013507987799317833e-01 3.930583516304712866e-02
4.072666595082881486e+03 6.852975635224285433e-01 4.541872657662603119e-02
4.076739261677965715e+03 6.788396685927310381e-01 4.607115785471122688e-02
4.080816000939644709e+03 6.891925501480345995e-01 4.590323156754748390e-02
4.084896816940585722e+03 7.044766116477947371e-01 4.612381528237199935e-02
4.088981713757527814e+03 7.288230430782569602e-01 4.810316092016266726e-02
4.093070695471286854e+03 7.490635529580463858e-01 4.775266144581620520e-02
4.097163766166759160e+03 7.678711296802955832e-01 4.751917684698683114e-02
4.101260929932927866e+03 7.954226686584585648e-01 4.387476770421908784e-02
4.105362190862862008e+03 8.393396216294165546e-01 4.200825673714241731e-02
4.109467553053726078e+03 8.620154054641036012e-01 4.249794977517220435e-02
4.113577020606780934e+03 8.819906592434350046e-01 3.870137626607735026e-02
4.117690597627389252e+03 9.021174082735526900e-01 4.073714405548833212e-02
4.121808288225018259e+03 8.738252259589150972e-01 2.997841070259782761e-02
4.125930096513244280e+03 8.600530425131461820e-01 2.756048544041158829e-02
4.130056026609759101e+03 8.274761156413222851e-01 2.903772654636662884e-02
4.134186082636369974e+03 8.251325581606450132e-01 1.611238989274267966e-02
4.138320268719007800e+03 7.882708307100061429e-01 1.856657638515794156e-02
4.142458588987728035e+03 7.645843867269566108e-01 2.002396809445925255e-02
4.146601047576717065e+03 7.088909624373721519e-01 2.493009051150776520e-02
4.150747648624294925e+03 6.837861796251144542e-01 2.601731800606700909e-02
4.154898396272920763e+03 6.668932787807831941e-01 1.942621193057669435e-02
4.159053294669195566e+03 6.826771119682037980e-01 2.252361589513468890e-02
4.163212347963865795e+03 7.289396169018255156e-01 3.556039995028319883e-02
4.167375560311830668e+03 7.681007469931735443e-01 3.653723036999633605e-02
4.171542935872143971e+03 8.310154202222009845e-01 3.685199184824788227e-02
4.175714478808017702e+03 8.505916584712930328e-01 3.402399149900248165e-02
4.179890193286827525e+03 8.880016583912421213e-01 3.036944561026438255e-02
4.184070083480115500e+03 8.781713751268216406e-01 4.187342458294889685e-02
4.188254153563597356e+03 8.814114091083112834e-01 3.875776793029370171e-02
4.192442407717161586e+03 8.774976466144526199e-01 4.163111102815827969e-02
4.196634850124880359e+03 8.620519041967824592e-01 3.657767263218724557e-02
4.200831484975006788e+03 8.559750326315054281e-01 3.319549672603105961e-02
4.205032316459983122e+03 8.383032600724164007e-01 3.386844195000388719e-02
4.209237348776444378e+03 8.455352313069708359e-01 3.307045574925485121e-02
4.213446586125221984e+03 8.560818998647682365e-01 3.002822202098493279e-02
4.217660032711349231e+03 8.864242620532218897e-01 2.865544664904377467e-02
4.221877692744061278e+03 9.124599100019142872e-01 2.792916266762077160e-02
4.226099570436806971e+03 9.370550960711264699e-01 2.570169913671775663e-02
4.230325670007245208e+03 9.452442344159155407e-01 2.739542330899619876e-02
4.234555995677254032e+03 9.442853142680607270e-01 2.552213774708705571e-02
4.238790551672932452e+03 9.559750001209692538e-01 2.522573642412133388e-02
4.243029342224606808e+03 9.590316525955686622e-01 2.728631239957394691e-02
4.247272371566832589e+03 9.597514609294858223e-01 2.607126066401636508e-02
4.251519643938400804e+03 9.580514192751105051e-01 2.406053560455632609e-02
4.255771163582340705e+03 9.459262243791166647e-01 2.402441906984937800e-02
4.260026934745924336e+03 9.087711361288840495e-01 2.225398219480894182e-02
4.264286961680671993e+03 8.761473095036822478e-01 2.126278411962823772e-02
4.268551248642354039e+03 8.286959709556480647e-01 2.150504767670902498e-02
4.272819799890998183e+03 7.884862186615899660e-01 2.174138875588715880e-02
4.277092619690890388e+03 7.329558665116825411e-01 2.340860065167756077e-02
4.281369712310583054e+03 6.766183459233288122e-01 3.027773859127634928e-02
4.285651082022895025e+03 6.368216599588023552e-01 2.998879034626478896e-02
4.289936733104918858e+03 6.203461884565091289e-01 2.738434050287670563e-02
4.294226669838025373e+03 6.231031024168003363e-01 3.736013146515204664e-02
4.298520896507864563e+03 6.183515369424235075e-01 4.121707006539563484e-02
4.302819417404373780e+03 6.262987058189795064e-01 3.833143945900284455e-02
4.307122236821779552e+03 6.447167064429578653e-01 3.628142150548981787e-02
4.311429359058603040e+03 6.606697475014041698e-01 3.845822073145657716e-02
4.315740788417662770e+03 6.936068287164876001e-01 3.842476093327536202e-02
4.320056529206081905e+03 7.359418479824613168e-01 3.815131126071724665e-02
4.324376585735290064e+03 7.654240645170128365e-01 3.244889911847246428e-02
4.328700962321026054e+03 8.084672501888374718e-01 3.260016019482016997e-02
4.333029663283348782e+03 8.563641149509758632e-01 3.564930735359017611e-02
4.337362692946633615e+03 9.065702964262492003e-01 4.089021047575159412e-02
4.341700055639581478e+03 9.473468180822022244e-01 3.956036179151538323e-02
4.346041755695222491e+03 9.625273672680640935e-01 3.599757968759295657e-02
4.350387797450919606e+03 9.758317928396594843e-01 2.905565956008639844e-02
4.354738185248371337e+03 9.475062901890192180e-01 3.668007052217878844e-02
4.359092923433621763e+03 9.223785588588664375e-01 3.643384619272733299e-02
4.363452016357056891e+03 8.501129935316636965e-01 2.907272912702427853e-02
4.367815468373414660e+03 7.824542530835153498e-01 9.129999494361615633e-03
4.372183283841789489e+03 7.386180210689879955e-01 9.134360469475247962e-03
4.376555467125633186e+03 7.092161602417349497e-01 9.449019594735943994e-03
4.380932022592760404e+03 6.939876167862600864e-01 9.681872521504965301e-03
4.385312954615354101e+03 6.919301777287084620e-01 9.762000534303458960e-03
4.389698267569970994e+03 7.097929057858446411e-01 9.575051641596638019e-03
4.394087965837542470e+03 7.389601642764563882e-01 8.375215209913794770e-03
4.398482053803381859e+03 7.902676155899690524e-01 1.511082402678448795e-02
4.402880535857186260e+03 8.279234697382438224e-01 1.500286039362178948e-02
4.407283416393044718e+03 8.811721437961135273e-01 2.508202671472474152e-02
4.411690699809440048e+03 9.003596264285459450e-01 2.645464797569514054e-02
4.416102390509250654e+03 9.159184665741829656e-01 2.650229293027761557e-02
4.420518492899761441e+03 9.228390676811392135e-01 2.659572301969079580e-02
4.424939011392662906e+03 9.237296095191236400e-01 2.721317667595488446e-02
4.429363950404056595e+03 8.956797494622019684e-01 3.057877088994366901e-02
4.433793314354462382e+03 8.770239991101125288e-01 3.317565054112059375e-02
4.438227107668818462e+03 8.273100616974666810e-01 3.733591395455906209e-02
4.442665334776488635e+03 8.120239483282222226e-01 3.300037169762107259e-02
4.447108000111265937e+03 8.195364040673045469e-01 3.293639813179177755e-02
4.451555108111379013e+03 8.545466978413154280e-01 4.404399055174346850e-02
4.456006663219492111e+03 8.984362234077524212e-01 4.581326607257971834e-02
4.460462669882713271e+03 9.208690424175534073e-01 4.190104954255965963e-02
4.464923132552597053e+03 9.557186628446748822e-01 4.123058161151584022e-02
4.469388055685150903e+03 9.825944109220435818e-01 3.840539773115130007e-02
4.473857443740837880e+03 9.764516670479984617e-01 3.771212876371085598e-02
4.478331301184580298e+03 9.650820908778900975e-01 4.068793493479919837e-02
4.482809632485766087e+03 9.404985357345301278e-01 4.152829161411410869e-02
4.487292442118253348e+03 9.196827355287139349e-01 4.209880131326532160e-02
4.491779734560373072e+03 8.957158693490098189e-01 4.019889880847637292e-02
4.496271514294934605e+03 8.582227593870787041e-01 3.081152236974058975e-02
4.500767785809231100e+03 8.508279193591697931e-01 3.288428222222872926e-02
4.505268553595042249e+03 8.582844551099542141e-01 3.555498421887040572e-02
4.509773822148638828e+03 8.936598293210114008e-01 2.739180844545273039e-02
4.514283595970789065e+03 9.052891874920182547e-01 2.044557182302299964e-02
4.518797879566761367e+03 8.790512319264738306e-01 2.805909069990750876e-02
4.523316677446328868e+03 8.586697226727141308e-01 2.825406248565445408e-02
4.527839994123776705e+03 8.399500636185960323e-01 2.930714430676055124e-02
4.532367834117902021e+03 8.264603869140009218e-01 3.005637869649810737e-02
4.536900201952022144e+03 8.259570627067940318e-01 2.772386412162223049e-02
4.541437102153975502e+03 8.270565547405905882e-01 2.873248705880336942e-02
4.545978539256130716e+03 8.201662116969127281e-01 3.037975438571421244e-02
4.550524517795388419e+03 8.284080969786289383e-01 3.016979369995302640e-02
4.555075042313184895e+03 8.444860828255849050e-01 2.771446808832214725e-02
4.559630117355500261e+03 8.668827651229167319e-01 2.870299982384440229e-02
4.564189747472856652e+03 9.092404078031353087e-01 3.108351124952877728e-02
4.568753937220330954e+03 9.556566025496604500e-01 2.853416618186846096e-02
4.573322691157552981e+03 1.021552715431655267e+00 3.338117741759780849e-02
4.577896013848711846e+03 1.077800581764666088e+00 4.155843164292687131e-02
4.582473909862562323e+03 1.108069643644991498e+00 4.432260516025803704e-02
4.587056383772426670e+03 1.117929100263821418e+00 4.071822089247350424e-02
4.591643440156200086e+03 1.117552959746845431e+00 4.230981793190482371e-02
4.596235083596357981e+03 1.110228815259217683e+00 4.590659848821312949e-02
4.600831318679955984e+03 1.097180183963037958e+00 4.727419944519923450e-02
4.605432149998637215e+03 1.080544162526269947e+00 4.483348801764753394e-02
4.610037582148637739e+03 1.058903936861094186e+00 3.989320164554074899e-02
4.614647619730787483e+03 1.032481590167947383e+00 3.516771627553972462e-02
4.619262267350520233e+03 1.047497778220461528e+00 4.127222745679988425e-02
4.623881529617872729e+03 1.056917899801739003e+00 4.356649620542651924e-02
4.628505411147491941e+03 1.076383336121668810e+00 3.678229010793888226e-02
4.633133916558640522e+03 1.096507312566829428e+00 3.631515910870553032e-02
4.637767050475200449e+03 1.096595530989234124e+00 3.427522927772421596e-02
4.642404817525677572e+03 1.106862390763706738e+00 3.270337837008756299e-02
4.647047222343205249e+03 1.089362255922657674e+00 3.216595847771330785e-02
4.651694269565549803e+03 1.063560711291753336e+00 2.123828168730705970e-02
4.656345963835116891e+03 1.060747858501305041e+00 2.012974109898395605e-02
4.661002309798953320e+03 1.055503992610203667e+00 2.071420751097042406e-02
4.665663312108753416e+03 1.072171562046704718e+00 1.827201099990921965e-02
4.670328975420864481e+03 1.079539482213250023e+00 1.672835912495373653e-02
4.674999304396286789e+03 1.078981459029780821e+00 1.563192737721659162e-02
4.679674303700684504e+03 1.076178820817376591e+00 1.350028445567540668e-02
4.684353978004386590e+03 1.058814510960948585e+00 1.609114854722842186e-02
4.689038331982392265e+03 1.038947576157044805e+00 1.487372579583418584e-02
4.693727370314376458e+03 1.018175981360397664e+00 1.619886963476017613e-02
4.698421097684692540e+03 9.972385964937849900e-01 1.006445394879979839e-02
4.703119518782378691e+03 9.961109009855559915e-01 1.164514574320107097e-02
4.707822638301162442e+03 9.966399394940360645e-01 1.201070319092962385e-02
4.712530460939465229e+03 9.967828417145621067e-01 1.282998319240546622e-02
4.717242991400406027e+03 1.000645204285092404e+00 1.358184372889136710e-02
4.721960234391808626e+03 1.006025055841000437e+00 1.160682821299700157e-02
4.726682194626201635e+03 1.011311120332210267e+00 1.259867220253855710e-02
4.731408876820829391e+03 1.015031312310229916e+00 9.340670060615402157e-03
4.736140285697651962e+03 1.003141325182340449e+00 1.126455638917333614e-02
4.740876425983350600e+03 9.809578851433898850e-01 1.468448899457433857e-02
4.745617302409335934e+03 9.656722985400179038e-01 1.554987304551963198e-02
4.750362919711747054e+03 9.510509038979283458e-01 1.323942824122751119e-02
4.755113282631459697e+03 9.414799858194971005e-01 1.088828063967793580e-02
4.759868395914093526e+03 9.524008755378725599e-01 1.543993802594783617e-02
4.764628264310008490e+03 9.697158670505353628e-01 2.244488173579824511e-02
4.769392892574320285e+03 9.765732367364285960e-01 2.301848834118645076e-02
4.774162285466896719e+03 9.857648242535768102e-01 2.021608910716436031e-02
4.778936447752364984e+03 9.778463262243609622e-01 2.281938221275748441e-02
4.783715384200118933e+03 9.743461015767710398e-01 2.115353286305783273e-02
4.788499099584319993e+03 9.597669115773950210e-01 2.713178553254794526e-02
4.793287598683906253e+03 9.589835533841694071e-01 2.862607240833427158e-02
4.798080886282591564e+03 9.468630483352992178e-01 2.888313360882951639e-02
