# starting wavelength: 3973.501
# ending wavelength: 9089.623
# wav flux eflux
3.976133878923201792e+03 2.788652681974950753e-01 2.814161514135832265e-02
3.980110012802126221e+03 2.865473384547260194e-01 2.063586466136173997e-02
3.984090122814929600e+03 2.937403691499433367e-01 1.600319894081878372e-02
3.988074212937745870e+03 2.982681020571230079e-01 1.230426651118073957e-02
3.992062287150684824e+03 3.016001000345571170e-01 9.952176452884549385e-03
3.996054349437837118e+03 3.028379731179486334e-01 8.100897712287134789e-03
4.000050403787276082e+03 3.024239320754478211e-01 6.715012976766251453e-03
4.004050454191064546e+03 3.008833919025104553e-01 5.696142622218725721e-03
4.008054504645257111e+03 2.992096256989310032e-01 4.794693601743824952e-03
4.012062559149903791e+03 2.984502906042112436e-01 4.288731613992969802e-03
4.016074621709055009e+03 2.989485037990094463e-01 4.048216856181663208e-03
4.020090696330765240e+03 3.000720037736817614e-01 3.747516900541961096e-03
4.024110787027097558e+03 3.026163302567931312e-01 3.619511963799300520e-03
4.028134897814125907e+03 3.057426498127610026e-01 3.593947767244147235e-03
4.032163032711941469e+03 3.091315173014350659e-01 3.543977225204541451e-03
4.036195195744654484e+03 3.123585622027896247e-01 3.440477944210334864e-03
4.040231390940400615e+03 3.161418946692856058e-01 3.368829054438256688e-03
4.044271622331342314e+03 3.195110213933288756e-01 3.345382781536602405e-03
4.048315893953675186e+03 3.227001299931635536e-01 3.357570333483436871e-03
4.052364209847629809e+03 3.264387112264519053e-01 3.417362257010101746e-03
4.056416574057479011e+03 3.304894951134489944e-01 3.266697612079796833e-03
4.060472990631537868e+03 3.340733561619046998e-01 3.349252340029492889e-03
4.064533463622170530e+03 3.368684100335004317e-01 3.374884889464639399e-03
4.068597997085794304e+03 3.394901389464158870e-01 3.221744704333332019e-03
4.072666595082881486e+03 3.430509320208502411e-01 2.704024047996359675e-03
4.076739261677965715e+03 3.431953609595181920e-01 2.787382147703465485e-03
4.080816000939644709e+03 3.416026216212562638e-01 3.099957927853601650e-03
4.084896816940585722e+03 3.381080663786226181e-01 3.327486234544880205e-03
4.088981713757527814e+03 3.339469591126715819e-01 3.563817058107791955e-03
4.093070695471286854e+03 3.287846683280992721e-01 3.589307310390486231e-03
4.097163766166759160e+03 3.257369762412372638e-01 3.571740778481112804e-03
4.101260929932927866e+03 3.225852247533836370e-01 3.696806440808557588e-03
4.105362190862862008e+03 3.208816403619281221e-01 3.736956310677229214e-03
4.109467553053726078e+03 3.191955905477512623e-01 3.696712487835674202e-03
4.113577020606780934e+03 3.149739847440989338e-01 3.240693992863810918e-03
4.117690597627389252e+03 3.153278453042355212e-01 3.318355572258285292e-03
4.121808288225018259e+03 3.186815506816798593e-01 3.298305937886968683e-03
4.125930096513244280e+03 3.217545027717815809e-01 3.371310856780272355e-03
4.130056026609759101e+03 3.268063252714314970e-01 3.157679506014493369e-03
4.134186082636369974e+03 3.301556545596615599e-01 3.132535807728514376e-03
4.138320268719007800e+03 3.323605132214814684e-01 3.183632331388397234e-03
4.142458588987728035e+03 3.344484281745072063e-01 3.273697083807540660e-03
4.146601047576717065e+03 3.368765589889217704e-01 3.326309784130520447e-03
4.150747648624294925e+03 3.400773294796899937e-01 3.459538587695498452e-03
4.154898396272920763e+03 3.439911656296981146e-01 3.366423374746438640e-03
4.159053294669195566e+03 3.468909660104914083e-01 3.398973267812009126e-03
4.163212347963865795e+03 3.493246291088810129e-01 3.435463820169024421e-03
4.167375560311830668e+03 3.526653503291157232e-01 3.387841759979915313e-03
4.171542935872143971e+03 3.544946051801421416e-01 3.403015071805125767e-03
4.175714478808017702e+03 3.550157467896553620e-01 3.283640382574911417e-03
4.179890193286827525e+03 3.551041950713330064e-01 3.341696319431351498e-03
4.184070083480115500e+03 3.553105193844303678e-01 3.349256782949598492e-03
4.188254153563597356e+03 3.541366848451569238e-01 3.203513413693216683e-03
4.192442407717161586e+03 3.543626997710661031e-01 3.238451772954105065e-03
4.196634850124880359e+03 3.567582787215511919e-01 3.068876851227543643e-03
4.200831484975006788e+03 3.588709827154638599e-01 2.774132918225966516e-03
4.205032316459983122e+03 3.607912242541808645e-01 2.628291504240592470e-03
4.209237348776444378e+03 3.620915275893505370e-01 2.705321174406808554e-03
4.213446586125221984e+03 3.623382404062212570e-01 2.758492467668297293e-03
4.217660032711349231e+03 3.605375113256724107e-01 2.465317482010439664e-03
4.221877692744061278e+03 3.591410219862187780e-01 2.240401831840329629e-03
4.226099570436806971e+03 3.596913798193874245e-01 2.426873917383416158e-03
4.230325670007245208e+03 3.591811091251703725e-01 2.629065214157012744e-03
4.234555995677254032e+03 3.587775294125049586e-01 2.538413873429795284e-03
4.238790551672932452e+03 3.578637353656015097e-01 2.559892059249770264e-03
4.243029342224606808e+03 3.548275750284585750e-01 2.711518481372232441e-03
4.247272371566832589e+03 3.535019284741833800e-01 2.777158992986474353e-03
4.251519643938400804e+03 3.542276945153985390e-01 2.751600351615759825e-03
4.255771163582340705e+03 3.551060123447584149e-01 2.783948919514663261e-03
4.260026934745924336e+03 3.562476614891498250e-01 2.855170646214383410e-03
4.264286961680671993e+03 3.573366728587925589e-01 2.843042400262688930e-03
4.268551248642354039e+03 3.593900121992807950e-01 2.883097776502430327e-03
4.272819799890998183e+03 3.617447447462897037e-01 2.725544893757600364e-03
4.277092619690890388e+03 3.662413143918686886e-01 2.629057310292472888e-03
4.281369712310583054e+03 3.720584283706346307e-01 2.602995481364402206e-03
4.285651082022895025e+03 3.800625502173666792e-01 2.926901053514641051e-03
4.289936733104918858e+03 3.891670712288525791e-01 3.255288622523403331e-03
4.294226669838025373e+03 3.989775653532826594e-01 3.496639023012800603e-03
4.298520896507864563e+03 4.090057961088132688e-01 3.224105079379500482e-03
4.302819417404373780e+03 4.173132163495826275e-01 2.984849301947366338e-03
4.307122236821779552e+03 4.247186481973614924e-01 2.741444580252450254e-03
4.311429359058603040e+03 4.299155638901304144e-01 2.553398369035773854e-03
4.315740788417662770e+03 4.324233470222904607e-01 2.618091071752979768e-03
4.320056529206081905e+03 4.332501715933178010e-01 2.647325756205168648e-03
4.324376585735290064e+03 4.309640973156362853e-01 2.858386490621018725e-03
4.328700962321026054e+03 4.262731433695309824e-01 2.876151635602565773e-03
4.333029663283348782e+03 4.206841163519861038e-01 3.038373652967372041e-03
4.337362692946633615e+03 4.137578159486308138e-01 2.976478510417743077e-03
4.341700055639581478e+03 4.086709531704509901e-01 3.016498925377346634e-03
4.346041755695222491e+03 4.033180648181533545e-01 3.192129850375960334e-03
4.350387797450919606e+03 3.974677913569257814e-01 2.709316034445513957e-03
4.354738185248371337e+03 3.924323816540703502e-01 2.351309584573010869e-03
4.359092923433621763e+03 3.890699136968147065e-01 2.277380041192376622e-03
4.363452016357056891e+03 3.891719241942456775e-01 2.365742859816473333e-03
4.367815468373414660e+03 3.921171499814439243e-01 2.644380513020467682e-03
4.372183283841789489e+03 3.953325571570628361e-01 2.727711749402882482e-03
4.376555467125633186e+03 3.985698036813284939e-01 2.877227093341777012e-03
4.380932022592760404e+03 3.997042216853530228e-01 2.957954498635383036e-03
4.385312954615354101e+03 4.000688456920202807e-01 3.333827239143291685e-03
4.389698267569970994e+03 4.009186729772086233e-01 3.629865820722804302e-03
4.394087965837542470e+03 4.042927168115954539e-01 3.495930143389240543e-03
4.398482053803381859e+03 4.065995555562090802e-01 3.619982145371793917e-03
4.402880535857186260e+03 4.086720625337366686e-01 3.648194648541220730e-03
4.407283416393044718e+03 4.085428278002016245e-01 3.591331338761637789e-03
4.411690699809440048e+03 4.091342840376027690e-01 3.590247239014595845e-03
4.416102390509250654e+03 4.106425925795630372e-01 3.645434740110761653e-03
4.420518492899761441e+03 4.142274200414843843e-01 3.480649502947266889e-03
4.424939011392662906e+03 4.191400155728315924e-01 3.605945608672711349e-03
4.429363950404056595e+03 4.237961212344709683e-01 3.740551729481730609e-03
4.433793314354462382e+03 4.288499974112017776e-01 3.748162857222926518e-03
4.438227107668818462e+03 4.321032374766954343e-01 3.801890959950727459e-03
4.442665334776488635e+03 4.357391958486559469e-01 4.018638758330052123e-03
4.447108000111265937e+03 4.398574354932526242e-01 4.046258155129081949e-03
4.451555108111379013e+03 4.435629225539804432e-01 4.040517598714771751e-03
4.456006663219492111e+03 4.443512775810568582e-01 3.877390967865864801e-03
4.460462669882713271e+03 4.472865097342383911e-01 3.754046294611582991e-03
4.464923132552597053e+03 4.516708974025610557e-01 3.783118425851645424e-03
4.469388055685150903e+03 4.557367932698558888e-01 3.487044225557860058e-03
4.473857443740837880e+03 4.561013194250487235e-01 3.491226751301836333e-03
4.478331301184580298e+03 4.548742219538813858e-01 3.365657982330239918e-03
4.482809632485766087e+03 4.531750169064377998e-01 3.151602479489887774e-03
4.487292442118253348e+03 4.551112466686053071e-01 3.151003062149546237e-03
4.491779734560373072e+03 4.580362718532793309e-01 3.280992338858972936e-03
4.496271514294934605e+03 4.603477256790170502e-01 3.085175119613683872e-03
4.500767785809231100e+03 4.601359943299964117e-01 3.166788126312092971e-03
4.505268553595042249e+03 4.596381755075815700e-01 3.023661350173330407e-03
4.509773822148638828e+03 4.592793119593219231e-01 3.112958231312532367e-03
4.514283595970789065e+03 4.598126907591100765e-01 3.172450417935981232e-03
4.518797879566761367e+03 4.627869012569084672e-01 3.087593983089192105e-03
4.523316677446328868e+03 4.667507381370624708e-01 3.088359517229570094e-03
4.527839994123776705e+03 4.705022299827874566e-01 2.998035361075794721e-03
4.532367834117902021e+03 4.740555025238114562e-01 2.893592200529023026e-03
4.536900201952022144e+03 4.789461488244995957e-01 2.800875525874054785e-03
4.541437102153975502e+03 4.845899952711655856e-01 2.859282064043463991e-03
4.545978539256130716e+03 4.899629261544922731e-01 2.724956065030928291e-03
4.550524517795388419e+03 4.981197032777747724e-01 2.764794888598562459e-03
4.555075042313184895e+03 5.074464410248520352e-01 2.461059961471179398e-03
4.559630117355500261e+03 5.167140812577171172e-01 2.465141924433149941e-03
4.564189747472856652e+03 5.250588730584133668e-01 2.513315517847877333e-03
4.568753937220330954e+03 5.299104244487650162e-01 2.599448389234816550e-03
4.573322691157552981e+03 5.363878639255611480e-01 2.766922185818415560e-03
4.577896013848711846e+03 5.419489540148824114e-01 2.495794348353457155e-03
4.582473909862562323e+03 5.437839242675486240e-01 2.848470128892969296e-03
4.587056383772426670e+03 5.456549934588920125e-01 3.346277439331530722e-03
4.591643440156200086e+03 5.478758169147958101e-01 3.257706371004306673e-03
4.596235083596357981e+03 5.499490094241730187e-01 3.157961603640093134e-03
4.600831318679955984e+03 5.532515649282434556e-01 2.953713611526459851e-03
4.605432149998637215e+03 5.558414738297110524e-01 3.001591319947026406e-03
4.610037582148637739e+03 5.610744693290150575e-01 3.734642873115651216e-03
4.614647619730787483e+03 5.629233720939104124e-01 3.605340752467515227e-03
4.619262267350520233e+03 5.641009570805517459e-01 3.351894555168351188e-03
4.623881529617872729e+03 5.644548654439409674e-01 3.397819378477820972e-03
4.628505411147491941e+03 5.633807119196455604e-01 3.441019077612281207e-03
4.633133916558640522e+03 5.620010729466081711e-01 3.494935854285216147e-03
4.637767050475200449e+03 5.594522992074683065e-01 3.251713197023740030e-03
4.642404817525677572e+03 5.574947587278759054e-01 3.018921959576733108e-03
4.647047222343205249e+03 5.562825574191184730e-01 2.842650747739567264e-03
4.651694269565549803e+03 5.590239799079903538e-01 3.224873509762224682e-03
4.656345963835116891e+03 5.596764198281439784e-01 3.320133073720115367e-03
4.661002309798953320e+03 5.627576472140661812e-01 2.767870840866693081e-03
4.665663312108753416e+03 5.672996322869746644e-01 2.257436286234172033e-03
4.670328975420864481e+03 5.697306780484336919e-01 2.141815275555734085e-03
4.674999304396286789e+03 5.694079597786687597e-01 2.351343568820533306e-03
4.679674303700684504e+03 5.690635573640342448e-01 2.271188333933019630e-03
4.684353978004386590e+03 5.670694680240454533e-01 2.151913088784784302e-03
4.689038331982392265e+03 5.656663950300961918e-01 2.101294966215705180e-03
4.693727370314376458e+03 5.634985597257075041e-01 2.106898975434627012e-03
4.698421097684692540e+03 5.626900787270273652e-01 1.907931042818827123e-03
4.703119518782378691e+03 5.617445848017349475e-01 1.924737528413006859e-03
4.707822638301162442e+03 5.622383804379362804e-01 2.272873072222632296e-03
4.712530460939465229e+03 5.614482623647187864e-01 2.383303423976230670e-03
4.717242991400406027e+03 5.589435990436750767e-01 2.569230809343529733e-03
4.721960234391808626e+03 5.587465833967847351e-01 2.552187254463665015e-03
4.726682194626201635e+03 5.586119125946691355e-01 2.547477652080383861e-03
4.731408876820829391e+03 5.577590688926900020e-01 2.603701960719826975e-03
4.736140285697651962e+03 5.583994058474136546e-01 2.651910591754698138e-03
4.740876425983350600e+03 5.619503384647203115e-01 2.632596307120824500e-03
4.745617302409335934e+03 5.670093125349320307e-01 2.568264784342273645e-03
4.750362919711747054e+03 5.752582456090508112e-01 3.290501784569719885e-03
4.755113282631459697e+03 5.836020615123234112e-01 3.268533093566816736e-03
4.759868395914093526e+03 5.917989360957596201e-01 3.045514935652900677e-03
4.764628264310008490e+03 6.006634016452851998e-01 3.122091537716377950e-03
4.769392892574320285e+03 6.095289598097437533e-01 3.013104211879255416e-03
4.774162285466896719e+03 6.203886900659879577e-01 2.979016349784780696e-03
4.778936447752364984e+03 6.302680080365236082e-01 2.968598703007255517e-03
4.783715384200118933e+03 6.388806650591133396e-01 2.839733353233542777e-03
4.788499099584319993e+03 6.490041144967827469e-01 2.825750498508990301e-03
4.793287598683906253e+03 6.584683707593755875e-01 2.749124020832648466e-03
4.798080886282591564e+03 6.695507843853705232e-01 3.048743031868252421e-03
4.802878967168876443e+03 6.829078014123440843e-01 3.017964956457464161e-03
4.807681846136046261e+03 6.964744300089195095e-01 3.133477466129660442e-03
4.812489527982183972e+03 7.142803926505393308e-01 3.568815977706678993e-03
4.817302017510168298e+03 7.354353592397125938e-01 3.766730859630507220e-03
4.822119319527679181e+03 7.626140530447622634e-01 4.034498895383554704e-03
4.826941438847208701e+03 7.848266200864812969e-01 3.381057857514663690e-03
4.831768380286057436e+03 8.144306245107030273e-01 3.614647413066434268e-03
4.836600148666345376e+03 8.436043823398193808e-01 3.687846614883209719e-03
4.841436748815013743e+03 8.751936838152262199e-01 3.493302236399900302e-03
4.846278185563829538e+03 8.990358440767354242e-01 5.312815837248792243e-03
4.851124463749395545e+03 9.014620890502874628e-01 5.345260495405594267e-03
4.855975588213146693e+03 8.819881787966556974e-01 5.780249861983258533e-03
4.860831563801360971e+03 8.453906327882886318e-01 7.180860804337552139e-03
4.865692395365163975e+03 8.003264808342143155e-01 3.993872946800760063e-03
4.870558087760530725e+03 7.658901958726193060e-01 4.407222030359102954e-03
4.875428645848292945e+03 7.446992505846987687e-01 3.741450063620824652e-03
4.880304074494142696e+03 7.296814050611274416e-01 3.357850833722141569e-03
4.885184378568638749e+03 7.169713001824676857e-01 3.444782410730351171e-03
4.890069562947209306e+03 7.045347008426939839e-01 3.580486592070807224e-03
4.894959632510157462e+03 6.916517590118961278e-01 3.981648445687976066e-03
4.899854592142669389e+03 6.809187676771607522e-01 4.633414400066475369e-03
4.904754446734813428e+03 6.789675878197745096e-01 3.242580818754964116e-03
4.909659201181550088e+03 6.929252106998065042e-01 5.160472911081907116e-03
4.914568860382732964e+03 7.095862712938663108e-01 4.500270296822161259e-03
4.919483429243117826e+03 7.145021219290051961e-01 4.787321257097115063e-03
4.924402912672362618e+03 7.028333584516407440e-01 3.680224709578185441e-03
4.929327315585036558e+03 6.995354591338468486e-01 3.709987401798062797e-03
4.934256642900622865e+03 6.932287132719120448e-01 3.750764047475428718e-03
4.939190899543525120e+03 6.833001358322465801e-01 3.878251422052519763e-03
4.944130090443070912e+03 6.721988508844248811e-01 3.624134610090398983e-03
4.949074220533515472e+03 6.576565078124854136e-01 2.908227099536007249e-03
4.954023294754050767e+03 6.482126941641257467e-01 2.396518575906040564e-03
4.958977318048806410e+03 6.457506020770023003e-01 2.854571421250828682e-03
4.963936295366856939e+03 6.493765871053251981e-01 4.080117781169293606e-03
4.968900231662225451e+03 6.506293151570644584e-01 4.097081136854087771e-03
4.973869131893889062e+03 6.516828167544691519e-01 4.177406654060997031e-03
4.978843001025784361e+03 6.559537047227874673e-01 4.046143457351309911e-03
4.983821844026811959e+03 6.637671732526816415e-01 4.180678240475351609e-03
4.988805665870840130e+03 6.719650620969750410e-01 4.259812481539647540e-03
4.993794471536712990e+03 6.837253182908474836e-01 4.033918542904420257e-03
4.998788266008251412e+03 6.960424135787847133e-01 4.033632885131261357e-03
5.003787054274261209e+03 7.119430483903045337e-01 4.108659165142875686e-03
5.008790841328536771e+03 7.271858794917127611e-01 4.284698233800450333e-03
5.013799632169867436e+03 7.427000664418363929e-01 4.555237999482588881e-03
5.018813431802038394e+03 7.571833461309718238e-01 4.815895077163842748e-03
5.023832245233842514e+03 7.680746952699810670e-01 4.619494117277901830e-03
5.028856077479077612e+03 7.748681847366188924e-01 4.109519538507193544e-03
5.033884933556558281e+03 7.776467238252010583e-01 3.749013036538718490e-03
5.038918818490116792e+03 7.737098340701892285e-01 4.165946423755059920e-03
5.043957737308608557e+03 7.631344082510767013e-01 4.247560555520873277e-03
5.049001695045918495e+03 7.478292943507707236e-01 2.562201384668627742e-03
5.054050696740966487e+03 7.353978751908997191e-01 2.350813370098320688e-03
5.059104747437709193e+03 7.252393505453678113e-01 2.259357837326851984e-03
5.064163852185148244e+03 7.151600751940404566e-01 2.245230468204162042e-03
5.069228016037335692e+03 7.083427708740102080e-01 2.103162704531898533e-03
5.074297244053374015e+03 7.054967728918406511e-01 2.533592438678838356e-03
5.079371541297429758e+03 7.064658789783847537e-01 3.429817049991804034e-03
5.084450912838728073e+03 7.060567167304642178e-01 3.390227897429415500e-03
5.089535363751569093e+03 7.073034809622568142e-01 2.851307500000480229e-03
5.094624899115322478e+03 7.077007532650457788e-01 2.796828294402732562e-03
5.099719524014439230e+03 7.082433590092421793e-01 2.795274495887549709e-03
5.104819243538455339e+03 7.059224563286139453e-01 3.157962355392961423e-03
5.109924062781995417e+03 7.047201848103974431e-01 3.211856355822192803e-03
5.115033986844779065e+03 7.070870890847362755e-01 3.512469369890440160e-03
5.120149020831625421e+03 7.078775696981934873e-01 3.438949823539218329e-03
5.125269169852458617e+03 7.086686322246231740e-01 3.502614279053217847e-03
5.130394439022313236e+03 7.121271473651009654e-01 3.661184920780901665e-03
5.135524833461337039e+03 7.183656006472679545e-01 3.893802849301660277e-03
5.140660358294800062e+03 7.257726861216136083e-01 3.851636298069059314e-03
5.145801018653096435e+03 7.338861856856953025e-01 3.878425152780025191e-03
5.150946819671751655e+03 7.419782078806098635e-01 3.803941343525630171e-03
5.156097766491425318e+03 7.493310458339897950e-01 3.744677148283221280e-03
5.161253864257918394e+03 7.557052538234473316e-01 3.773662664393976577e-03
5.166415118122177773e+03 7.606163542698564095e-01 3.636893733871349090e-03
5.171581533240301724e+03 7.677507465040444012e-01 3.553103277258993706e-03
5.176753114773543530e+03 7.765172018959677347e-01 3.564051235622946439e-03
