# starting wavelength: 5185.040
# ending wavelength: 9113.400
# wav flux eflux
5.187111797756208944e+03 1.006843118009729698e+00 1.003400537251225855e-01
5.192298909553966951e+03 1.030997210514390305e+00 7.700084822050554112e-02
5.197491208463522526e+03 1.060222366522278081e+00 6.036617664187065441e-02
5.202688699671987706e+03 1.082118445638402315e+00 4.587070254571141981e-02
5.207891388371661378e+03 1.101186604000568225e+00 3.540134498071390717e-02
5.213099279760034733e+03 1.116545183321514312e+00 2.813124214194100137e-02
5.218312379039796724e+03 1.127816339182736716e+00 2.260552218772111932e-02
5.223530691418837705e+03 1.135354431977269707e+00 1.854508470713840326e-02
5.228754222110258524e+03 1.138820280322086820e+00 1.576050913217892646e-02
5.233982976332370527e+03 1.138099350664582010e+00 1.395107337598421558e-02
5.239216959308704645e+03 1.136576218179952358e+00 1.223819948549811042e-02
5.244456176268015042e+03 1.136530545708426487e+00 1.119374465705156099e-02
5.249700632444284565e+03 1.133785441769363800e+00 1.023403950652186124e-02
5.254950333076731113e+03 1.131370021180004182e+00 9.539457875467021244e-03
5.260205283409809454e+03 1.128152777480111668e+00 9.050439080924226054e-03
5.265465488693221232e+03 1.127736859184778506e+00 8.833388085721111810e-03
5.270730954181915877e+03 1.126599266965032209e+00 8.568068715693634430e-03
5.276001685136099695e+03 1.123532508551365439e+00 8.495663997218832336e-03
5.281277686821237694e+03 1.121236134446514043e+00 8.450167121359880226e-03
5.286558964508059944e+03 1.123675222244983507e+00 8.975110461119031532e-03
5.291845523472569766e+03 1.127489241061914171e+00 9.579321282930767373e-03
5.297137368996044643e+03 1.130093211299480371e+00 9.640294647164187464e-03
5.302434506365042580e+03 1.132158880731247041e+00 9.774336678020568298e-03
5.307736940871409388e+03 1.136726962519399198e+00 1.067553182859684417e-02
5.313044677812282316e+03 1.139565337782369792e+00 1.050853127722980833e-02
5.318357722490096421e+03 1.138868042676635772e+00 1.051679658717413583e-02
5.323676080212588204e+03 1.136181740854715461e+00 1.055950251038604085e-02
5.328999756292802886e+03 1.134771011416007003e+00 1.069539274394927346e-02
5.334328756049097137e+03 1.133203789792942340e+00 1.083181622891807132e-02
5.339663084805148173e+03 1.132026241792111865e+00 1.086877928369475374e-02
5.345002747889954662e+03 1.127508246794734159e+00 1.148766197899036071e-02
5.350347750637846730e+03 1.120856645422968256e+00 1.082057369240881778e-02
5.355698098388485960e+03 1.110894319041228595e+00 1.033936535112309901e-02
5.361053796486876308e+03 1.104147731643073893e+00 1.040024564500585842e-02
5.366414850283365013e+03 1.102763982981150859e+00 1.046519221815242311e-02
5.371781265133649867e+03 1.102437638567661526e+00 1.060443344773168151e-02
5.377153046398785591e+03 1.091803140831086871e+00 1.041040212044969104e-02
5.382530199445186554e+03 1.088583379234619564e+00 1.066413550187657669e-02
5.387912729644633146e+03 1.087129447676555616e+00 1.064484050530313530e-02
5.393300642374279960e+03 1.087387603936096570e+00 1.103368087299752207e-02
5.398693943016655794e+03 1.085964671179728391e+00 1.096288999774258123e-02
5.404092636959673655e+03 1.082770506612580785e+00 1.129702052912586949e-02
5.409496729596635305e+03 1.084754248598716275e+00 1.118393459478522235e-02
5.414906226326233991e+03 1.087585726164898459e+00 1.135953655109719213e-02
5.420321132552561721e+03 1.092689658176632328e+00 1.179440755232084859e-02
5.425741453685116539e+03 1.095044731517205827e+00 1.181176242882649510e-02
5.431167195138803436e+03 1.099964804746772717e+00 1.227614282858271490e-02
5.436598362333943442e+03 1.098107615018762306e+00 1.182690560917414209e-02
5.442034960696279086e+03 1.096857188816159567e+00 1.201493807547329880e-02
5.447476995656978033e+03 1.097521539298166093e+00 1.141542224083350043e-02
5.452924472652636723e+03 1.093367750050754594e+00 1.201656473249183149e-02
5.458377397125291282e+03 1.096561427541691724e+00 1.169872075706020718e-02
5.463835774522417523e+03 1.102700588028213691e+00 1.155860684147477606e-02
5.469299610296941864e+03 1.099882315557962453e+00 1.153179162047128503e-02
5.474768909907241323e+03 1.095302465634105049e+00 1.078302697890634078e-02
5.480243678817149885e+03 1.093338334494464714e+00 1.085075414991244769e-02
5.485723922495968509e+03 1.095335373418548253e+00 1.065910968491885942e-02
5.491209646418466946e+03 1.087982779039487813e+00 1.044405221943675750e-02
5.496700856064887375e+03 1.086800829042007477e+00 1.033558731260036424e-02
5.502197556920953502e+03 1.082141445130699653e+00 1.026571028225071493e-02
5.507699754477876013e+03 1.080013554883465066e+00 1.022710064832226678e-02
5.513207454232356213e+03 1.080661727711402120e+00 9.690646719377336155e-03
5.518720661686590574e+03 1.076942910066971626e+00 9.596345259090191190e-03
5.524239382348278923e+03 1.070209263959967405e+00 9.853182515268068056e-03
5.529763621730628984e+03 1.069542143008246571e+00 9.692289369662328291e-03
5.535293385352360929e+03 1.058729554314484345e+00 9.117037516371507763e-03
5.540828678737715563e+03 1.050600479674555388e+00 8.712127335821764559e-03
5.546369507416455235e+03 1.044323607537452014e+00 8.560192384167506288e-03
5.551915876923872929e+03 1.042125445312168663e+00 8.278169116567365288e-03
5.557467792800798634e+03 1.043600137701980346e+00 8.371639497909949545e-03
5.563025260593602070e+03 1.053130256057987602e+00 7.892077534402833563e-03
5.568588285854197238e+03 1.059864616446689611e+00 8.081287728187953878e-03
5.574156874140053333e+03 1.058904955555659333e+00 8.234687934891163699e-03
5.579731031014194741e+03 1.059556896547699578e+00 7.920385660661043506e-03
5.585310762045211050e+03 1.055723727218066621e+00 7.858870085454803395e-03
5.590896072807257951e+03 1.050826276011854521e+00 8.264473751680469216e-03
5.596486968880067252e+03 1.044604704738882450e+00 8.417419615237358224e-03
5.602083455848949598e+03 1.044039921033673490e+00 8.318503897654974319e-03
5.607685539304799931e+03 1.042251940505710683e+00 8.532172739439089146e-03
5.613293224844106589e+03 1.040212444564395433e+00 8.180564946707160126e-03
5.618906518068952209e+03 1.037254710369324373e+00 8.387471248545115554e-03
5.624525424587023736e+03 1.037038795439648942e+00 8.335526872551774977e-03
5.630149950011612418e+03 1.042025774849119069e+00 9.532010636993179173e-03
5.635780099961625638e+03 1.038726152314505935e+00 1.005094287034156986e-02
5.641415880061589633e+03 1.032718448888367835e+00 1.122820629258973468e-02
5.647057295941652228e+03 1.037207596200031556e+00 1.165997615142373191e-02
5.652704353237596479e+03 1.034479081105902143e+00 1.164992150195418019e-02
5.658357057590835211e+03 1.021119997874406327e+00 1.189023523487709420e-02
5.664015414648428305e+03 1.018773833894636605e+00 1.156885480542153496e-02
5.669679430063079053e+03 1.021887204671087179e+00 1.175138885658389733e-02
5.675349109493143260e+03 1.025001768922925827e+00 1.200187479083121567e-02
5.681024458602638333e+03 1.026897707715312080e+00 1.220196042710201649e-02
5.686705483061243285e+03 1.033233353362693618e+00 1.196776731680369334e-02
5.692392188544306009e+03 1.027016503056932706e+00 1.191844116364197334e-02
5.698084580732852373e+03 1.015886669498829775e+00 1.192763466403416739e-02
5.703782665313587131e+03 1.000556246998404841e+00 1.204801025519171287e-02
5.709486447978903016e+03 9.776582930588544329e-01 1.218548419457439122e-02
5.715195934426883468e+03 9.473166234722349976e-01 1.258817180042584929e-02
5.720911130361312644e+03 9.079597120893069251e-01 1.281807179671726714e-02
5.726632041491675409e+03 8.766117351596266483e-01 1.303409637438191111e-02
5.732358673533169167e+03 8.483770720735718252e-01 1.276659666005503131e-02
5.738091032206703858e+03 8.354339255912135442e-01 1.321926159141589667e-02
5.743829123238912871e+03 8.229104450696154149e-01 1.207527780805414327e-02
5.749572952362153046e+03 8.143295283390912243e-01 1.143618041039388099e-02
5.755322525314517407e+03 8.237526452052661430e-01 9.441432184976526754e-03
5.761077847839834249e+03 8.393914510132827189e-01 8.854896382173215938e-03
5.766838925687675328e+03 8.571780828940699370e-01 8.295521047414005159e-03
5.772605764613364954e+03 8.845948929329749966e-01 8.086080866756925611e-03
5.778378370377980900e+03 9.135583373334283941e-01 7.927039278685776152e-03
5.784156748748360769e+03 9.409786154141221992e-01 8.313157097895724351e-03
5.789940905497111089e+03 9.776116246355258665e-01 9.077516228619580615e-03
5.795730846402610041e+03 1.006930946921973824e+00 9.034751281391029121e-03
5.801526577249013826e+03 1.026783148166084070e+00 8.922364781374482814e-03
5.807328103826264851e+03 1.041885362619376476e+00 9.134074954860170806e-03
5.813135431930093546e+03 1.056055192007844257e+00 9.408655752071922243e-03
5.818948567362025642e+03 1.069613341050099642e+00 9.692855058943322666e-03
5.824767515929389447e+03 1.075307579037828587e+00 9.853072157577564757e-03
5.830592283445320390e+03 1.080384391649869213e+00 9.785592810973790800e-03
5.836422875728768304e+03 1.083546580316049779e+00 9.277579007230326788e-03
5.842259298604498326e+03 1.096114493732290196e+00 8.706393884284914161e-03
5.848101557903105459e+03 1.126029561584668270e+00 1.576618010258191288e-02
5.853949659461010015e+03 1.140170329858817277e+00 1.762405644469612620e-02
5.859803609120473084e+03 1.149857764464487175e+00 1.627226183652178554e-02
5.865663412729595620e+03 1.137945163443864205e+00 1.693979250609286419e-02
5.871529076142326630e+03 1.115526024426042540e+00 1.991268897521851836e-02
5.877400605218471355e+03 1.097102372766693534e+00 2.070269649343771737e-02
5.883278005823691274e+03 1.066990480307475453e+00 2.079106947518891829e-02
5.889161283829516833e+03 1.045939172999535094e+00 1.918078869662233343e-02
5.895050445113348360e+03 1.026482099786768964e+00 1.682720263145387821e-02
5.900945495558464245e+03 1.029805992920488134e+00 1.742716009624990445e-02
5.906846441054024581e+03 1.038275512170325099e+00 1.900384179678974578e-02
5.912753287495080258e+03 1.056570825256790025e+00 1.878353132721126070e-02
5.918666040782577511e+03 1.078449012192699508e+00 1.838290223173634844e-02
5.924584706823361557e+03 1.094986794106499683e+00 1.665862802303696641e-02
5.930509291530187511e+03 1.111047576466789977e+00 1.586123148242333733e-02
5.936439800821719473e+03 1.120010447781295770e+00 1.490875845818566935e-02
5.942376240622543264e+03 1.109001589698847878e+00 1.469817271355825308e-02
5.948318616863167335e+03 1.086725535548841437e+00 1.351859667494944260e-02
5.954266935480032771e+03 1.064743510810157057e+00 8.686154425473392379e-03
5.960221202415515108e+03 1.058686927138618783e+00 8.465412057490373857e-03
5.966181423617932523e+03 1.059980534467254154e+00 8.724201349802397989e-03
5.972147605041552197e+03 1.065956716607056709e+00 9.495485242799943035e-03
5.978119752646595771e+03 1.062557393417876916e+00 9.595828473797533148e-03
5.984097872399243897e+03 1.060480164870821529e+00 9.556263640773368997e-03
5.990081970271645332e+03 1.059873649444698529e+00 9.325856278398676064e-03
5.996072052241918755e+03 1.060360501132061151e+00 9.670095508781513527e-03
6.002068124294162772e+03 1.054458232560948616e+00 1.003660458747366799e-02
6.008070192418459555e+03 1.047464070855764540e+00 9.796861876698443466e-03
6.014078262610879392e+03 1.039925238910092808e+00 9.887365617249793334e-03
6.020092340873492503e+03 1.034671551533225209e+00 1.026837274248734375e-02
6.026112433214368139e+03 1.035962732240750084e+00 9.939795355457376608e-03
6.032138545647584579e+03 1.042438558028671247e+00 1.071247445404788917e-02
6.038170684193233683e+03 1.046490416890564434e+00 1.095850102537405078e-02
6.044208854877429076e+03 1.047999084560110372e+00 1.104397345130115823e-02
6.050253063732308874e+03 1.053613633724938659e+00 9.324076500201594273e-03
6.056303316796042964e+03 1.056031569784714685e+00 8.878373132508806179e-03
6.062359620112841185e+03 1.056756920103984587e+00 8.576070918025436793e-03
6.068421979732956061e+03 1.052560541115838300e+00 8.720115171213422417e-03
6.074490401712690982e+03 1.052641804551427862e+00 8.223513925693610310e-03
6.080564892114405666e+03 1.055103216043990821e+00 8.549306568934768660e-03
6.086645457006521610e+03 1.057858850548150764e+00 8.285566083781038815e-03
6.092732102463530282e+03 1.052086010798501503e+00 8.449346862159690802e-03
6.098824834565995843e+03 1.049379035538804406e+00 8.661583695941485472e-03
6.104923659400564247e+03 1.050930854152938299e+00 8.809898664605258015e-03
6.111028583059966877e+03 1.060114813336495487e+00 7.615624732161751891e-03
6.117139611643028729e+03 1.061365674595359687e+00 7.558815282987808512e-03
6.123256751254673873e+03 1.060636057781634500e+00 8.126686772751984950e-03
6.129380008005929994e+03 1.058942137360209479e+00 7.941604318731429815e-03
6.135509388013938405e+03 1.052973418409423045e+00 6.930481197390121230e-03
6.141644897401954040e+03 1.058117340267482609e+00 7.624845753512789377e-03
6.147786542299358189e+03 1.055711251458613553e+00 8.637565657783259979e-03
6.153934328841659408e+03 1.063489222092669939e+00 8.778662301210897814e-03
6.160088263170503524e+03 1.073243975015693463e+00 8.807131485613729077e-03
6.166248351433675452e+03 1.077340205266341888e+00 9.044848685876797495e-03
6.172414599785111022e+03 1.089120876098486290e+00 1.036265764940264185e-02
6.178587014384898794e+03 1.094576116372151242e+00 1.100211771412404164e-02
6.184765601399285515e+03 1.088056883941033837e+00 1.156913109389623787e-02
6.190950367000687038e+03 1.084361413393644336e+00 1.139829404408507392e-02
6.197141317367689226e+03 1.078396758504624797e+00 1.196574589262736250e-02
6.203338458685059777e+03 1.069472164966487782e+00 1.167546220761691254e-02
6.209541797143746408e+03 1.052108939528246578e+00 1.084763922415598984e-02
6.215751338940892310e+03 1.034978680319951216e+00 1.066633879111857780e-02
6.221967090279835247e+03 1.024247514708298556e+00 1.083526610208219824e-02
6.228189057370116643e+03 1.014864662827128061e+00 1.082990913920292911e-02
6.234417246427488863e+03 1.009680201794722176e+00 1.113881942011043027e-02
6.240651663673918847e+03 1.008880160049335117e+00 1.147492616527269124e-02
6.246892315337594482e+03 1.009815240496725330e+00 1.128125492354144221e-02
6.253139207652934601e+03 1.014234893270515414e+00 1.105627520024566983e-02
6.259392346860589896e+03 1.023282919435694938e+00 9.958213545480629897e-03
6.265651739207452010e+03 1.025072406463768626e+00 9.473330985647220384e-03
6.271917390946661726e+03 1.026609112529019763e+00 9.463765608273801838e-03
6.278189308337610782e+03 1.026695501625236595e+00 9.762556749752043794e-03
6.284467497645950061e+03 1.024399935771930892e+00 9.460228308619570217e-03
6.290751965143597772e+03 1.030592984555315672e+00 9.072902075700002567e-03
6.297042717108744000e+03 1.038844384928135245e+00 8.898233588427223797e-03
6.303339759825854344e+03 1.042348953659547828e+00 8.580476441986494354e-03
6.309643099585682648e+03 1.041310295825683907e+00 8.982371697294037893e-03
6.315952742685270096e+03 1.044738408397369644e+00 9.244704157081860829e-03
6.322268695427957937e+03 1.051524442833879025e+00 8.747350849771214423e-03
6.328590964123387494e+03 1.056873805666122212e+00 8.991061859624621330e-03
6.334919555087512890e+03 1.060175813412212342e+00 8.909276962599799177e-03
6.341254474642602872e+03 1.062044435261586539e+00 8.726989223489963615e-03
6.347595729117247174e+03 1.063756957615499266e+00 8.693395238495100000e-03
6.353943324846366522e+03 1.068028310621479626e+00 9.588879676040487285e-03
6.360297268171215364e+03 1.070506070630508511e+00 8.817867136596610825e-03
6.366657565439388236e+03 1.063652843177773200e+00 9.161898228771617886e-03
6.373024223004829764e+03 1.054906028243661309e+00 9.015258735220211053e-03
6.379397247227837397e+03 1.043995640581727447e+00 9.494882657288023983e-03
6.385776644475066860e+03 1.040878170248130674e+00 9.888064244320147675e-03
6.392162421119543978e+03 1.037882143907525645e+00 9.759160597828598488e-03
6.398554583540665590e+03 1.037117097282414191e+00 8.540467413567244190e-03
6.404953138124208635e+03 1.049278839671104135e+00 8.142936261370685436e-03
6.411358091262334710e+03 1.077491120858826701e+00 8.738121701128137922e-03
6.417769449353599157e+03 1.115073827222664127e+00 8.504244244691330779e-03
6.424187218802954703e+03 1.165228359281368808e+00 8.410817117418842997e-03
6.430611406021760558e+03 1.218363111099873608e+00 8.303637639071886553e-03
6.437042017427784231e+03 1.276959605807918674e+00 6.851348155050911506e-03
6.443479059445214261e+03 1.339735866644691464e+00 6.620291038246972799e-03
6.449922538504661134e+03 1.402994860359868978e+00 6.865076996404655303e-03
6.456372461043168187e+03 1.462082175386492322e+00 9.375930497183864593e-03
6.462828833504213435e+03 1.514849810513538841e+00 9.411665121291629132e-03
6.469291662337719572e+03 1.562530878529464262e+00 8.938207298224861569e-03
6.475760954000059428e+03 1.615728852023079698e+00 8.698194989210763020e-03
6.482236714954061426e+03 1.660203660943514903e+00 8.955222691571004118e-03
6.488718951669017770e+03 1.701995878890559144e+00 9.344345099684540565e-03
6.495207670620688987e+03 1.735751942973178252e+00 9.291872455145150367e-03
6.501702878291312118e+03 1.758290298866982404e+00 9.960859883512012541e-03
6.508204581169605262e+03 1.773261715040983288e+00 1.027001913838337076e-02
6.514712785750777584e+03 1.784643145389772867e+00 1.027446515459328434e-02
6.521227498536530220e+03 1.792383064111425783e+00 1.640210824225957209e-02
6.527748726035069012e+03 1.769066769383560667e+00 1.644661846469081673e-02
6.534276474761106329e+03 1.735292131345390843e+00 1.722996474072495746e-02
6.540810751235869247e+03 1.722775305864138407e+00 1.760013425216574307e-02
6.547351561987107743e+03 1.727509270056976076e+00 1.424234417181134693e-02
6.553898913549096505e+03 1.697709297654855787e+00 1.328926768952679374e-02
6.560452812462647671e+03 1.669157647949529144e+00 1.416904747156910380e-02
6.567013265275112644e+03 1.640824723839713339e+00 1.318252010288057698e-02
6.573580278540390282e+03 1.619696751856484207e+00 1.427917604697770751e-02
6.580153858818932349e+03 1.594053676043102330e+00 1.375001682342811768e-02
6.586734012677753526e+03 1.573257618122499757e+00 1.271495722982916160e-02
6.593320746690433225e+03 1.538455029168211752e+00 1.044095853656015066e-02
6.599914067437126505e+03 1.494561964086269290e+00 1.015565021309686351e-02
6.606513981504565891e+03 1.456295625828160301e+00 9.578622035450059732e-03
6.613120495486072286e+03 1.421884862691439544e+00 9.658641935458393835e-03
6.619733615981560433e+03 1.387830926402793041e+00 1.001632313011967604e-02
6.626353349597544366e+03 1.348979979436588428e+00 1.030220343714364183e-02
6.632979702947143778e+03 1.316754013883160157e+00 6.233092593387667101e-03
6.639612682650093120e+03 1.293978751260701499e+00 5.475141004590275418e-03
6.646252295332745234e+03 1.272507278461795233e+00 6.131705689376802486e-03
6.652898547628080451e+03 1.254260894418671723e+00 6.663613436323733742e-03
6.659551446175711135e+03 1.232861323959135946e+00 6.911904182080977864e-03
6.666210997621888964e+03 1.217607038517046769e+00 6.536421824415746332e-03
6.672877208619513112e+03 1.201626180863529791e+00 6.414134018809037815e-03
6.679550085828134797e+03 1.183652849359514647e+00 6.117472828072581525e-03
6.686229635913964557e+03 1.168474146440976691e+00 6.098075802905899429e-03
6.692915865549881346e+03 1.153628292332989025e+00 5.953189575471967178e-03
6.699608781415433441e+03 1.132403505537718180e+00 6.173682628283183940e-03
6.706308390196851178e+03 1.116908288528772220e+00 6.101174217442202272e-03
6.713014698587049679e+03 1.100719074249534968e+00 6.151687510186247716e-03
6.719727713285638856e+03 1.092694556643693415e+00 6.157985240566318103e-03
6.726447440998927050e+03 1.086471763405818303e+00 6.078358331520800246e-03
6.733173888439928305e+03 1.081540593487086532e+00 6.157381285090813769e-03
6.739907062328370557e+03 1.077596392487369714e+00 6.161263866215059039e-03
6.746646969390701088e+03 1.075919918575672263e+00 5.991716271283756105e-03
6.753393616360093802e+03 1.075239799797095275e+00 6.083226273312498239e-03
