# starting wavelength: 3414.441
# ending wavelength: 8470.343
# wav flux eflux
3.415711815966390986e+03 1.372646476844918695e+00 6.429918813638636488e-01
3.419127527782358356e+03 1.314957100954696312e+00 4.650263213117130645e-01
3.422546655310141887e+03 1.263683477121708254e+00 3.526063982684238263e-01
3.425969201965453522e+03 1.217137503112418528e+00 2.648084786111937206e-01
3.429395171167419903e+03 1.177897150725837783e+00 2.060888437593484113e-01
3.432824566338588284e+03 1.166110673563993450e+00 1.632728008626262717e-01
3.436257390904928343e+03 1.155460415053896073e+00 1.316673152970155025e-01
3.439693648295834464e+03 1.146482303703612482e+00 1.096563111053042994e-01
3.443133341944131189e+03 1.137317432496808056e+00 9.051963758962845719e-02
3.446576475286076402e+03 1.124518211851152749e+00 7.862952949784467183e-02
3.450023051761363604e+03 1.115949795477138906e+00 6.882118792492009085e-02
3.453473074813126004e+03 1.116339168594017384e+00 6.160438541959914471e-02
3.456926547887940615e+03 1.120425013966448002e+00 5.609380816353814331e-02
3.460383474435829612e+03 1.120986179824275730e+00 5.220208603996866897e-02
3.463843857910266706e+03 1.147659828716449892e+00 5.350093112019976838e-02
3.467307701768178049e+03 1.150884068284291795e+00 5.058051812674241310e-02
3.470775009469947236e+03 1.132555251450950706e+00 4.959563649839053567e-02
3.474245784479418489e+03 1.110174618139762037e+00 4.970600088125261273e-02
3.477720030263898934e+03 1.108019627147895703e+00 4.781276627294118314e-02
3.481197750294164052e+03 1.097230549465201488e+00 4.910403275731309997e-02
3.484678948044459503e+03 1.087925995433076887e+00 4.866500522614380930e-02
3.488163626992504760e+03 1.077664076936235560e+00 4.823407022579819653e-02
3.491651790619498570e+03 1.061087823547789188e+00 4.795577573950818989e-02
3.495143442410119405e+03 1.042151864300969288e+00 4.601615679618246968e-02
3.498638585852530468e+03 1.025857654507716710e+00 4.605698810287432027e-02
3.502137224438384237e+03 1.011090696053082549e+00 4.563918205930569266e-02
3.505639361662823831e+03 9.944346408464124210e-01 4.555760780827209505e-02
3.509145001024487556e+03 9.874857962939945777e-01 4.434963193266172610e-02
3.512654146025513455e+03 9.801681256509486850e-01 4.421921757423011995e-02
3.516166800171540217e+03 9.540324043660232123e-01 3.843633373168420242e-02
3.519682966971712631e+03 9.431998574385995759e-01 3.941003292403563729e-02
3.523202649938685681e+03 9.332697511330795281e-01 3.905333484761160795e-02
3.526725852588625457e+03 9.322356821997571652e-01 3.661005417284651092e-02
3.530252578441215064e+03 9.239950653869760666e-01 3.675189359110122428e-02
3.533782831019657806e+03 9.007706849114129888e-01 3.264626085036624603e-02
3.537316613850678550e+03 9.049049936434172547e-01 3.332058359860389646e-02
3.540853930464530094e+03 9.083889543651345599e-01 3.409614984040020003e-02
3.544394784394995895e+03 9.167798987777899811e-01 3.319111701643684409e-02
3.547939179179392340e+03 9.198261663653359843e-01 3.351410888370937730e-02
3.551487118358572843e+03 9.261606952891441313e-01 3.429203801361453002e-02
3.555038605476932389e+03 9.520863564068381413e-01 3.394807179193112812e-02
3.558593644082410719e+03 9.671050072321598634e-01 3.344508482127920429e-02
3.562152237726494150e+03 9.846198420910086124e-01 3.447611763189917938e-02
3.565714389964221937e+03 9.964358042469065868e-01 3.297161155564416746e-02
3.569280104354187188e+03 1.016132137863165363e+00 3.236220527295299854e-02
3.572849384458542772e+03 1.039546720828014914e+00 3.243898951360876803e-02
3.576422233843002232e+03 1.075931709987704155e+00 3.414444726789694212e-02
3.579998656076846601e+03 1.109780510623942451e+00 3.294302710025315967e-02
3.583578654732924406e+03 1.151155623497742919e+00 2.726422089645726132e-02
3.587162233387658489e+03 1.167047368768932003e+00 2.812590456417673676e-02
3.590749395621047370e+03 1.170861086607517976e+00 2.753182624780965357e-02
3.594340145016669794e+03 1.166577068847273413e+00 2.794746261549830788e-02
3.597934485161687462e+03 1.165006024108176108e+00 2.664873944921036450e-02
3.601532419646850485e+03 1.153417422216397314e+00 2.626525040231270092e-02
3.605133952066498296e+03 1.140823096203900988e+00 2.588905844336919504e-02
3.608739086018566013e+03 1.128396424844297918e+00 2.665970573947075428e-02
3.612347825104585809e+03 1.095571588871479873e+00 2.894212743427311205e-02
3.615960172929691907e+03 1.067167777796376393e+00 2.991208179330728106e-02
3.619576133102622407e+03 1.037438492564259684e+00 2.760686671717648213e-02
3.623195709235726554e+03 1.002742598016063358e+00 2.380543128830225202e-02
3.626818904944963379e+03 9.844871073641000558e-01 2.398346399361183517e-02
3.630445723849909427e+03 9.812493731426503718e-01 2.621281808345117537e-02
3.634076169573760581e+03 9.626249343509380996e-01 2.713879921968250647e-02
3.637710245743335690e+03 9.452175547758716601e-01 2.686174113234750249e-02
3.641347955989080219e+03 9.306238467680931770e-01 2.662384231464154025e-02
3.644989303945070333e+03 9.219472562767780932e-01 2.642691376184421945e-02
3.648634293249016537e+03 9.207955232235954801e-01 2.593705747281910973e-02
3.652282927542266862e+03 9.317255499870285007e-01 2.166564142696800546e-02
3.655935210469810499e+03 9.346921496496610748e-01 2.174866925963623437e-02
3.659591145680281443e+03 9.373551691916831574e-01 2.176532441188363740e-02
3.663250736825963031e+03 9.472578968602753946e-01 2.182882902632701794e-02
3.666913987562790226e+03 9.687963016160054952e-01 2.148301545499190987e-02
3.670580901550354156e+03 9.744027858039406853e-01 2.100650664123806730e-02
3.674251482451905758e+03 9.893436848986442156e-01 2.381166034113658611e-02
3.677925733934358959e+03 9.888490224970156728e-01 2.392104628077812434e-02
3.681603659668294313e+03 9.628405439226133122e-01 3.529395656392409625e-02
3.685285263327964003e+03 9.733146814114355116e-01 3.657487137257667276e-02
3.688970548591293209e+03 9.745854864201476397e-01 3.767873630285457215e-02
3.692659519139885560e+03 9.914787056289868783e-01 3.633307069542114631e-02
3.696352178659026777e+03 1.022908155942946484e+00 3.633138355690905541e-02
3.700048530837686940e+03 1.059348919782684639e+00 3.763573658651714338e-02
3.703748579368525952e+03 1.099242857646834937e+00 3.989626674028879522e-02
3.707452327947895355e+03 1.133818346327154059e+00 3.989042087553684029e-02
3.711159780275844696e+03 1.169261756264535546e+00 3.936227663754929273e-02
3.714870940056121526e+03 1.202219782113500557e+00 4.034380086981501773e-02
3.718585810996179134e+03 1.228139842912902235e+00 4.050422441727082740e-02
3.722304396807176545e+03 1.250800903119470231e+00 4.000197187097076501e-02
3.726026701203984885e+03 1.262856942286848083e+00 4.005918044330020883e-02
3.729752727905190113e+03 1.265507580073507166e+00 4.152781646144772243e-02
3.733482480633096657e+03 1.277394548590534029e+00 4.113777982574848974e-02
3.737215963113731050e+03 1.294636455118920448e+00 4.033161872210705434e-02
3.740953179076846027e+03 1.294376462328684863e+00 4.155568323839301664e-02
3.744694132255923705e+03 1.291655086649737605e+00 4.105152453102648563e-02
3.748438826388181042e+03 1.281291973607527224e+00 4.035110699465069284e-02
3.752187265214570289e+03 1.257430085317937429e+00 3.949085278016652156e-02
3.755939452479786269e+03 1.234930741873120796e+00 3.776513748638040541e-02
3.759695391932267285e+03 1.225812008705008394e+00 3.941125749836820596e-02
3.763455087324201031e+03 1.215048634809543282e+00 3.901458867098114153e-02
3.767218542411526414e+03 1.207933142669492366e+00 3.730859391144543402e-02
3.770985760953939007e+03 1.209355324278843291e+00 3.499771928422124728e-02
3.774756746714894234e+03 1.221883485201718411e+00 2.885667151169042308e-02
3.778531503461610555e+03 1.205614735685673899e+00 3.101399097725724210e-02
3.782310034965073100e+03 1.168983360230116730e+00 2.782960844298145928e-02
3.786092345000039586e+03 1.157744768611979946e+00 2.647969056014973926e-02
3.789878437345040766e+03 1.161786554976401487e+00 2.923486170522758554e-02
3.793668315782387253e+03 1.169005788955669090e+00 3.147134336388573289e-02
3.797461984098170888e+03 1.172103259910639794e+00 3.092630561660914684e-02
3.801259446082270188e+03 1.177414194504577738e+00 3.033322644694337947e-02
3.805060705528353537e+03 1.182803138976044277e+00 3.181257021419652692e-02
3.808865766233883278e+03 1.191035409912732934e+00 3.193897039525225162e-02
3.812674632000118436e+03 1.213390408481884508e+00 3.000022342679031437e-02
3.816487306632119726e+03 1.234598187496070087e+00 2.974182445515210702e-02
3.820303793938753188e+03 1.245354012772657448e+00 2.892247859565959256e-02
3.824124097732693372e+03 1.250987102729465672e+00 2.780961551803468393e-02
3.827948221830427428e+03 1.258532326933982759e+00 2.819530403299023644e-02
3.831776170052258749e+03 1.278299921139656625e+00 2.796169594036028438e-02
3.835607946222312421e+03 1.299950226079612081e+00 2.777112292773903021e-02
3.839443554168536139e+03 1.320318366568795199e+00 2.731054252565054755e-02
3.843282997722705659e+03 1.337604440266477512e+00 2.678702317241335104e-02
3.847126280720429804e+03 1.367713850783382590e+00 2.673543280266758165e-02
3.850973407001151372e+03 1.419177771914922781e+00 2.616577740650165643e-02
3.854824380408153957e+03 1.457874375019668545e+00 2.877144078790021264e-02
3.858679204788563311e+03 1.476972181311253740e+00 2.824583958939782397e-02
3.862537883993353262e+03 1.492731146023998923e+00 2.745314095206975030e-02
3.866400421877347981e+03 1.492118071102196186e+00 2.671596587700191677e-02
3.870266822299226533e+03 1.476250612572622023e+00 2.543570620313114969e-02
3.874137089121526969e+03 1.475738387590823208e+00 2.295273915863510136e-02
3.878011226210649966e+03 1.470394144983515838e+00 2.399650557667446990e-02
3.881889237436861549e+03 1.446115210803534445e+00 2.454240845915827210e-02
3.885771126674299921e+03 1.432495065240883880e+00 2.389347855306434357e-02
3.889656897800975457e+03 1.412926929729663605e+00 2.196899335998786854e-02
3.893546554698777527e+03 1.393760730201431652e+00 2.204300441771918709e-02
3.897440101253477678e+03 1.390982492886335908e+00 2.131595274631083517e-02
3.901337541354732366e+03 1.393205914222269026e+00 2.045044190715970475e-02
3.905238878896088409e+03 1.395895703018600553e+00 2.012272601479493661e-02
3.909144117774985716e+03 1.400686029706796454e+00 2.001304309039644500e-02
3.913053261892762293e+03 1.414205422665930190e+00 2.021721422665902906e-02
3.916966315154656058e+03 1.417884192914729002e+00 2.013821569906250331e-02
3.920883281469812118e+03 1.416415369748028397e+00 2.036372888734574657e-02
3.924804164751283224e+03 1.410000055881889036e+00 2.050969318113417955e-02
3.928728968916035683e+03 1.426346536866427428e+00 1.948923880351503476e-02
3.932657697884953450e+03 1.445704469351090315e+00 1.774430509710430912e-02
3.936590355582839493e+03 1.452146417762899100e+00 1.636909946161552859e-02
3.940526945938423523e+03 1.463371671441085597e+00 1.654310320553955063e-02
3.944467472884363360e+03 1.468737930390535240e+00 1.739248004925240260e-02
3.948411940357249023e+03 1.475959877495078176e+00 1.715107057217007611e-02
3.952360352297607733e+03 1.478914104525949735e+00 1.777725831348291041e-02
3.956312712649906643e+03 1.483426252533958101e+00 1.596858617226151744e-02
3.960269025362557841e+03 1.509603717636176734e+00 1.722444534490655960e-02
3.964229294387921527e+03 1.526031175071176138e+00 1.677195476700682128e-02
3.968193523682310570e+03 1.530313967303947864e+00 1.650152783024505174e-02
3.972161717205994591e+03 1.533362894270413168e+00 1.601825876319514300e-02
3.976133878923201792e+03 1.529017071127421135e+00 1.589543224566468752e-02
3.980110012802126221e+03 1.516243896414467995e+00 1.582202853588449143e-02
3.984090122814929600e+03 1.497927739388130286e+00 1.634968306508171459e-02
3.988074212937745870e+03 1.481097829450306769e+00 1.630797068262665461e-02
3.992062287150684824e+03 1.450349142973001104e+00 1.941121117211974667e-02
3.996054349437837118e+03 1.440032949015634722e+00 1.843121791406838322e-02
4.000050403787276082e+03 1.422712503348745106e+00 1.609038618929055017e-02
4.004050454191064546e+03 1.412557095142243924e+00 1.604029922020013335e-02
4.008054504645257111e+03 1.409786173414963262e+00 1.668053530215278871e-02
4.012062559149903791e+03 1.413050194915262514e+00 1.578242064808596870e-02
4.016074621709055009e+03 1.422092304060376566e+00 1.409665125559616226e-02
4.020090696330765240e+03 1.422193669416585537e+00 1.388520432209839478e-02
4.024110787027097558e+03 1.422596522411188280e+00 1.331867440100666274e-02
4.028134897814125907e+03 1.410446609885857905e+00 1.376136849253567149e-02
4.032163032711941469e+03 1.404642166136711445e+00 1.317228155836867864e-02
4.036195195744654484e+03 1.405497351700113029e+00 1.328389858824826318e-02
4.040231390940400615e+03 1.404909116502341071e+00 1.502146395138732535e-02
4.044271622331342314e+03 1.396339664794348900e+00 1.496576812144829322e-02
4.048315893953675186e+03 1.385841242788441452e+00 1.493582884118717369e-02
4.052364209847629809e+03 1.375704101809807733e+00 1.502795036092729151e-02
4.056416574057479011e+03 1.365467282245327985e+00 1.609048649294236508e-02
4.060472990631537868e+03 1.362994923610039377e+00 1.628854653969413063e-02
4.064533463622170530e+03 1.357360871063325147e+00 1.618355628718307418e-02
4.068597997085794304e+03 1.340226997809131904e+00 1.469355989326638114e-02
4.072666595082881486e+03 1.340707464065258536e+00 1.463400385624432157e-02
4.076739261677965715e+03 1.346347509543379228e+00 1.458959868173324674e-02
4.080816000939644709e+03 1.354132851816551852e+00 1.412468951702416237e-02
4.084896816940585722e+03 1.369300298357697843e+00 1.426159985778108034e-02
4.088981713757527814e+03 1.387192486791101631e+00 1.434167016735785234e-02
4.093070695471286854e+03 1.416250030206291921e+00 1.512425927940312144e-02
4.097163766166759160e+03 1.436370160667919116e+00 1.426908385191536129e-02
4.101260929932927866e+03 1.446088893660680830e+00 1.371200166293021390e-02
4.105362190862862008e+03 1.438041821045860980e+00 1.495099622346151777e-02
4.109467553053726078e+03 1.424410131838749205e+00 1.653693508529283443e-02
4.113577020606780934e+03 1.401588837355172368e+00 1.654283659833841874e-02
4.117690597627389252e+03 1.386779819221122922e+00 1.681593513895123654e-02
4.121808288225018259e+03 1.372819620919216943e+00 1.692577534459201172e-02
4.125930096513244280e+03 1.362655803959609946e+00 1.762004155378492712e-02
4.130056026609759101e+03 1.343741789570994438e+00 1.695406953033234965e-02
4.134186082636369974e+03 1.332674722100840148e+00 1.692389129061989614e-02
4.138320268719007800e+03 1.338034505049755962e+00 1.553964468950509888e-02
4.142458588987728035e+03 1.336577474526370768e+00 1.418237205437989853e-02
4.146601047576717065e+03 1.330505941178664164e+00 1.413552339238007167e-02
4.150747648624294925e+03 1.320316930515754716e+00 1.562057973567567565e-02
4.154898396272920763e+03 1.316810652923835923e+00 1.615872614702492521e-02
4.159053294669195566e+03 1.306051183993786946e+00 1.630494765273418634e-02
4.163212347963865795e+03 1.283077095211592411e+00 1.565322621842123868e-02
4.167375560311830668e+03 1.256893942888703375e+00 1.470572223026640757e-02
4.171542935872143971e+03 1.247881259060763304e+00 1.476856241753823212e-02
4.175714478808017702e+03 1.235109892503595930e+00 1.568566684485495077e-02
4.179890193286827525e+03 1.235822647467851310e+00 1.549050109785350682e-02
4.184070083480115500e+03 1.237325428700830843e+00 1.526664031454963953e-02
4.188254153563597356e+03 1.241491107703180052e+00 1.507045885798992575e-02
4.192442407717161586e+03 1.262358898970199705e+00 2.110945847442024376e-02
4.196634850124880359e+03 1.277429471994433019e+00 2.200110339830972303e-02
4.200831484975006788e+03 1.281035108959120761e+00 2.301148219971397429e-02
4.205032316459983122e+03 1.294358634068757397e+00 2.222498105188630210e-02
4.209237348776444378e+03 1.297901868722637797e+00 2.208357533335360626e-02
4.213446586125221984e+03 1.297400049094284746e+00 2.239423805704406426e-02
4.217660032711349231e+03 1.295641774954912284e+00 2.285877281434731470e-02
4.221877692744061278e+03 1.287287080878942946e+00 2.257777788980479261e-02
4.226099570436806971e+03 1.282798598504762966e+00 2.213141081554432024e-02
4.230325670007245208e+03 1.274541374097786672e+00 2.139187664895619845e-02
4.234555995677254032e+03 1.274641777254569730e+00 2.064295942612094648e-02
4.238790551672932452e+03 1.275199040591242561e+00 1.937686514572010618e-02
4.243029342224606808e+03 1.276055248857444591e+00 1.948143084042810655e-02
4.247272371566832589e+03 1.273693868354731196e+00 1.946748936469780769e-02
4.251519643938400804e+03 1.281205458407535858e+00 1.934292668957440092e-02
4.255771163582340705e+03 1.274195679929369218e+00 1.894450979681892855e-02
4.260026934745924336e+03 1.270798495943801232e+00 1.890220813736234046e-02
4.264286961680671993e+03 1.263060225498813693e+00 1.795446984599675597e-02
4.268551248642354039e+03 1.261330957359167781e+00 1.725835257986246471e-02
4.272819799890998183e+03 1.273612692274184832e+00 1.433186471581080097e-02
4.277092619690890388e+03 1.286568309290528012e+00 1.442420970269570751e-02
4.281369712310583054e+03 1.296526264816149965e+00 1.367172564558296992e-02
4.285651082022895025e+03 1.319319364801364802e+00 1.327139445617084822e-02
4.289936733104918858e+03 1.335922131378016076e+00 1.161307194091898420e-02
4.294226669838025373e+03 1.340515121385065456e+00 1.264734596743257583e-02
4.298520896507864563e+03 1.340943595585076142e+00 1.304452326632839394e-02
4.302819417404373780e+03 1.339396558365148815e+00 1.710304714937159812e-02
4.307122236821779552e+03 1.351128304297650518e+00 1.867041637051682426e-02
4.311429359058603040e+03 1.376925326278362061e+00 1.845225739735733769e-02
4.315740788417662770e+03 1.405851636995758991e+00 1.704159752599495106e-02
4.320056529206081905e+03 1.442231010640594668e+00 1.818216887876916710e-02
4.324376585735290064e+03 1.487857874055118934e+00 2.146742642226641407e-02
4.328700962321026054e+03 1.534546675399190319e+00 2.176917694044182630e-02
4.333029663283348782e+03 1.577047997017436032e+00 1.960645657195637589e-02
4.337362692946633615e+03 1.603093563453737991e+00 1.772621102858879319e-02
4.341700055639581478e+03 1.614735962786133072e+00 1.715392591859217844e-02
4.346041755695222491e+03 1.610312395468516122e+00 1.732531762709926468e-02
4.350387797450919606e+03 1.583997423366865664e+00 1.698897010126640753e-02
4.354738185248371337e+03 1.535914041911373040e+00 1.493868481075423006e-02
4.359092923433621763e+03 1.482433068548258959e+00 1.403047447787000857e-02
4.363452016357056891e+03 1.433815660672762560e+00 1.276824830407825503e-02
4.367815468373414660e+03 1.391391811577366466e+00 1.247986848240727892e-02
4.372183283841789489e+03 1.355489547948024232e+00 1.264572689198645294e-02
4.376555467125633186e+03 1.327147139152273114e+00 1.291280722103368625e-02
4.380932022592760404e+03 1.309763413760371087e+00 1.158811060561914727e-02
4.385312954615354101e+03 1.293620737250642527e+00 1.014833590722883337e-02
4.389698267569970994e+03 1.281306540615941403e+00 1.012372314906990686e-02
4.394087965837542470e+03 1.282443312922075140e+00 1.091569314158626069e-02
4.398482053803381859e+03 1.276900078859467547e+00 1.062769240030019512e-02
4.402880535857186260e+03 1.276021011277176154e+00 1.019010569353894467e-02
4.407283416393044718e+03 1.273987383027619380e+00 9.695973700648405705e-03
4.411690699809440048e+03 1.266674941935653997e+00 9.990199927805294353e-03
4.416102390509250654e+03 1.263888762431534474e+00 1.000888219523865010e-02
4.420518492899761441e+03 1.254226049959485279e+00 8.743552947370246409e-03
4.424939011392662906e+03 1.243720969042454660e+00 7.912676111107477817e-03
4.429363950404056595e+03 1.239255572187981880e+00 7.710767784554758281e-03
4.433793314354462382e+03 1.237191540426874958e+00 6.993554278277000318e-03
4.438227107668818462e+03 1.229688617684126850e+00 7.883695690754271082e-03
4.442665334776488635e+03 1.229318613559903905e+00 7.571464785927998001e-03
4.447108000111265937e+03 1.232302996517936178e+00 7.591848916122008982e-03
