# starting wavelength: 3462.946
# ending wavelength: 9496.099
# wav flux eflux
3.463843857910266706e+03 1.473496311704739936e+00 1.165364317586988080e-01
3.467307701768178049e+03 1.442674060612346709e+00 1.064627513578537826e-01
3.470775009469947236e+03 1.434279012274421117e+00 7.945832796815151255e-02
3.474245784479418489e+03 1.427393188025702919e+00 5.971103876351317036e-02
3.477720030263898934e+03 1.422403728138025958e+00 4.588438395355583926e-02
3.481197750294164052e+03 1.422204498731402866e+00 3.713078734446979140e-02
3.484678948044459503e+03 1.415376417066066095e+00 2.970573794447509824e-02
3.488163626992504760e+03 1.407539763179596504e+00 2.421590339308566514e-02
3.491651790619498570e+03 1.396860497412706348e+00 2.033024094548940494e-02
3.495143442410119405e+03 1.382389091247039126e+00 1.776533255813361051e-02
3.498638585852530468e+03 1.367508565402300480e+00 1.549056886023595855e-02
3.502137224438384237e+03 1.353803830563616861e+00 1.373849605135461956e-02
3.505639361662823831e+03 1.337603641678223321e+00 1.244905963126831556e-02
3.509145001024487556e+03 1.322638507363188776e+00 1.144492462766079875e-02
3.512654146025513455e+03 1.308230839350593477e+00 1.074410028156828380e-02
3.516166800171540217e+03 1.297529634967166556e+00 1.026188515120307100e-02
3.519682966971712631e+03 1.287696595117401088e+00 9.780880696429104099e-03
3.523202649938685681e+03 1.280670012140548319e+00 9.506489524382969250e-03
3.526725852588625457e+03 1.273266223110875339e+00 9.224949494461053348e-03
3.530252578441215064e+03 1.264613111530387357e+00 8.979161849564496270e-03
3.533782831019657806e+03 1.255442945000429411e+00 8.536257729283468904e-03
3.537316613850678550e+03 1.252403463786710525e+00 8.302202030289364612e-03
3.540853930464530094e+03 1.250490736237852785e+00 8.223190881576756053e-03
3.544394784394995895e+03 1.247579513462368173e+00 8.318799689529750990e-03
3.547939179179392340e+03 1.247937534869004272e+00 8.450077147314881063e-03
3.551487118358572843e+03 1.247140268871743451e+00 8.385148761141235363e-03
3.555038605476932389e+03 1.249303825358162312e+00 7.970532059203722444e-03
3.558593644082410719e+03 1.252049731296726032e+00 7.107268962073857131e-03
3.562152237726494150e+03 1.251242841192188759e+00 7.083798387659610667e-03
3.565714389964221937e+03 1.246805705111327711e+00 7.167119871410161484e-03
3.569280104354187188e+03 1.245124096225050048e+00 7.185074233263063007e-03
3.572849384458542772e+03 1.238609123449406102e+00 7.056405503121965066e-03
3.576422233843002232e+03 1.231532599818913720e+00 7.142302644544656909e-03
3.579998656076846601e+03 1.230416511835791038e+00 7.160446528368887703e-03
3.583578654732924406e+03 1.227845733464933753e+00 7.121064143497701435e-03
3.587162233387658489e+03 1.226117535786435786e+00 7.044047986117729469e-03
3.590749395621047370e+03 1.224117654677967959e+00 7.021194914443982041e-03
3.594340145016669794e+03 1.219680243467596625e+00 6.081108700427464292e-03
3.597934485161687462e+03 1.217463434805332811e+00 5.860542599080098732e-03
3.601532419646850485e+03 1.220970194538287146e+00 5.113757400186325942e-03
3.605133952066498296e+03 1.222242437297333284e+00 5.190803019566576568e-03
3.608739086018566013e+03 1.224289030531966693e+00 5.291905743545925744e-03
3.612347825104585809e+03 1.226192388135063593e+00 5.361023817373937982e-03
3.615960172929691907e+03 1.229027772770027171e+00 5.156978496132140141e-03
3.619576133102622407e+03 1.228443223957778052e+00 5.319067791018955438e-03
3.623195709235726554e+03 1.228677269162792518e+00 5.435829558026894319e-03
3.626818904944963379e+03 1.232744815641820813e+00 5.044800501753195741e-03
3.630445723849909427e+03 1.233518406007416246e+00 5.069654663833852298e-03
3.634076169573760581e+03 1.232413008939223342e+00 5.108078129137337380e-03
3.637710245743335690e+03 1.231879546670303638e+00 5.094704313028788900e-03
3.641347955989080219e+03 1.233688293331051788e+00 4.923263692289607356e-03
3.644989303945070333e+03 1.233322830585255048e+00 5.054204507348118887e-03
3.648634293249016537e+03 1.235117199150850720e+00 5.073936193661563593e-03
3.652282927542266862e+03 1.234637383854061410e+00 5.030757616243981475e-03
3.655935210469810499e+03 1.232862466831103898e+00 4.952825012021860179e-03
3.659591145680281443e+03 1.234032901730546916e+00 5.419628569693152147e-03
3.663250736825963031e+03 1.246906231823964317e+00 1.427959513483076891e-02
3.666913987562790226e+03 1.269585165960695372e+00 2.612709853808916141e-02
3.670580901550354156e+03 1.258067349336364549e+00 2.788059571967078237e-02
3.674251482451905758e+03 1.214851286325984603e+00 4.257205609795122053e-02
3.677925733934358959e+03 1.183647590235922253e+00 5.148970450401575694e-02
3.681603659668294313e+03 1.181081559174357754e+00 5.402996594557148147e-02
3.685285263327964003e+03 1.179613532104150986e+00 5.596551481439460130e-02
3.688970548591293209e+03 1.200901213203101392e+00 5.573437087380500587e-02
3.692659519139885560e+03 1.240700266826681997e+00 5.625475663436455692e-02
3.696352178659026777e+03 1.289925050812794849e+00 5.773210578089663786e-02
3.700048530837686940e+03 1.351610503146590370e+00 6.024862468916469815e-02
3.703748579368525952e+03 1.415914299036290958e+00 6.273404040060216735e-02
3.707452327947895355e+03 1.479592457187057564e+00 6.473424751450886083e-02
3.711159780275844696e+03 1.546748628419869709e+00 6.708059681793729356e-02
3.714870940056121526e+03 1.608646197973298886e+00 6.754594043266493042e-02
3.718585810996179134e+03 1.659704317022836939e+00 6.777802885082549744e-02
3.722304396807176545e+03 1.700439367383178357e+00 6.766513458409906256e-02
3.726026701203984885e+03 1.731780127988515439e+00 6.712841221604640141e-02
3.729752727905190113e+03 1.745247254116324864e+00 6.725973850089805861e-02
3.733482480633096657e+03 1.746954297977111992e+00 6.919650668915637570e-02
3.737215963113731050e+03 1.719730775385674093e+00 7.110130440085310477e-02
3.740953179076846027e+03 1.679635546291157855e+00 7.290933985057347633e-02
3.744694132255923705e+03 1.625721808516624511e+00 7.434678139631402394e-02
3.748438826388181042e+03 1.560408633448641780e+00 7.484506945136835954e-02
3.752187265214570289e+03 1.470682626151520900e+00 7.430611733641363792e-02
3.755939452479786269e+03 1.390407549337204562e+00 7.217511892789142680e-02
3.759695391932267285e+03 1.310420920255372934e+00 6.969565058144788772e-02
3.763455087324201031e+03 1.245814287844073442e+00 6.877671230962061066e-02
3.767218542411526414e+03 1.201048110813334624e+00 6.941815080299867935e-02
3.770985760953939007e+03 1.189052014401384749e+00 7.085782738398965774e-02
3.774756746714894234e+03 1.242430380422875569e+00 6.524343874390386988e-02
3.778531503461610555e+03 1.325324745985880126e+00 4.260274158352202190e-02
3.782310034965073100e+03 1.374715322719848754e+00 3.421351294530657061e-02
3.786092345000039586e+03 1.347564173371296414e+00 2.376557408648057382e-02
3.789878437345040766e+03 1.320254371636787605e+00 8.276994511771494298e-03
3.793668315782387253e+03 1.316057023939064097e+00 7.072675174194467500e-03
3.797461984098170888e+03 1.316467031680265354e+00 6.898213927422933850e-03
3.801259446082270188e+03 1.321440254318803520e+00 7.075502786167300537e-03
3.805060705528353537e+03 1.326450550144496976e+00 7.068355105031553891e-03
3.808865766233883278e+03 1.336093190782090101e+00 6.763782783608071961e-03
3.812674632000118436e+03 1.345390984964315084e+00 8.394282726920934343e-03
3.816487306632119726e+03 1.350077668761239247e+00 9.439151172508347676e-03
3.820303793938753188e+03 1.342379058089552712e+00 1.126690773581114254e-02
3.824124097732693372e+03 1.334970145262331043e+00 1.360319213725997602e-02
3.827948221830427428e+03 1.334664686284197987e+00 1.476332096076183806e-02
3.831776170052258749e+03 1.338260168556934193e+00 1.511822693806598797e-02
3.835607946222312421e+03 1.345013538136454301e+00 1.524986021556177726e-02
3.839443554168536139e+03 1.354575577814176368e+00 1.521867261133293125e-02
3.843282997722705659e+03 1.358643075204877260e+00 1.461972060802695095e-02
3.847126280720429804e+03 1.371372595600942157e+00 1.481638395618366418e-02
3.850973407001151372e+03 1.386519787068608345e+00 1.524749929331925720e-02
3.854824380408153957e+03 1.408464370351063311e+00 1.632555735357118371e-02
3.858679204788563311e+03 1.435333014448844313e+00 1.672438082297039372e-02
3.862537883993353262e+03 1.456348774777373789e+00 1.654387517441346239e-02
3.866400421877347981e+03 1.470824297660756841e+00 1.607590277613396221e-02
3.870266822299226533e+03 1.480435405053689202e+00 1.543694998669184991e-02
3.874137089121526969e+03 1.485511589455677628e+00 1.543352485893490639e-02
3.878011226210649966e+03 1.474163788288396670e+00 1.639023089336354849e-02
3.881889237436861549e+03 1.457113921794936040e+00 1.719699959850942012e-02
3.885771126674299921e+03 1.440873849933970163e+00 1.795695145076612806e-02
3.889656897800975457e+03 1.419739830347781062e+00 1.810069787648925857e-02
3.893546554698777527e+03 1.405489575275022940e+00 1.737426289733955478e-02
3.897440101253477678e+03 1.389721626540365573e+00 1.565863080289376860e-02
3.901337541354732366e+03 1.382722390286099001e+00 1.571271703163792943e-02
3.905238878896088409e+03 1.382234733775157931e+00 1.709180520120589380e-02
3.909144117774985716e+03 1.394615464920173409e+00 1.716679379450210957e-02
3.913053261892762293e+03 1.417168722481620069e+00 1.248026681304494588e-02
3.916966315154656058e+03 1.436113169139634271e+00 8.497676941962987660e-03
3.920883281469812118e+03 1.432609184332670482e+00 8.458156408622654471e-03
3.924804164751283224e+03 1.434260767238572765e+00 9.514670027987396500e-03
3.928728968916035683e+03 1.437900225278803790e+00 1.016680507402821336e-02
3.932657697884953450e+03 1.439680826662749658e+00 1.054518930613893186e-02
3.936590355582839493e+03 1.443757371313212357e+00 1.038569348024400915e-02
3.940526945938423523e+03 1.444394861075007697e+00 9.548485352620480343e-03
3.944467472884363360e+03 1.443810436231706351e+00 9.270622977930242925e-03
3.948411940357249023e+03 1.448554251131157544e+00 1.049588321173543053e-02
3.952360352297607733e+03 1.455251335840533455e+00 1.092609726584770936e-02
3.956312712649906643e+03 1.459761618722172916e+00 1.052849836818344105e-02
3.960269025362557841e+03 1.457042213498917382e+00 9.855970621744085391e-03
3.964229294387921527e+03 1.448812281226059540e+00 9.136079778239663760e-03
3.968193523682310570e+03 1.437509379348266503e+00 8.596780611738602529e-03
3.972161717205994591e+03 1.414530090407400298e+00 9.082295176801938319e-03
3.976133878923201792e+03 1.383945664506993634e+00 9.387380570492556697e-03
3.980110012802126221e+03 1.343150001268117677e+00 7.970145168976027275e-03
3.984090122814929600e+03 1.306289398718708528e+00 7.051710686959814650e-03
3.988074212937745870e+03 1.269963899972379240e+00 5.844357261116793663e-03
3.992062287150684824e+03 1.241475585377967317e+00 4.460292004294164232e-03
3.996054349437837118e+03 1.228561311755580254e+00 5.287127678704596837e-03
4.000050403787276082e+03 1.226162903343491095e+00 5.985194006100989610e-03
4.004050454191064546e+03 1.228961023600741997e+00 5.420284787203099620e-03
4.008054504645257111e+03 1.231463073273066922e+00 4.845488561675695763e-03
4.012062559149903791e+03 1.230318890919214647e+00 4.594548703136585796e-03
4.016074621709055009e+03 1.229266370875154779e+00 4.516848454203301229e-03
4.020090696330765240e+03 1.226061702207225990e+00 4.530642388087913024e-03
4.024110787027097558e+03 1.220139134449850671e+00 4.560638640499122161e-03
4.028134897814125907e+03 1.208432462263226093e+00 4.765849664771781846e-03
4.032163032711941469e+03 1.197921583564024672e+00 4.866633932693611130e-03
4.036195195744654484e+03 1.183787068859804892e+00 4.879662518330480855e-03
4.040231390940400615e+03 1.171561304554220584e+00 4.756133576997331920e-03
4.044271622331342314e+03 1.163593043233079216e+00 4.726506382738216230e-03
4.048315893953675186e+03 1.154784134101111581e+00 4.388012116620161607e-03
4.052364209847629809e+03 1.150949204519722713e+00 4.858031465900677047e-03
4.056416574057479011e+03 1.151735437044114407e+00 7.029551524798975312e-03
4.060472990631537868e+03 1.165790588211835344e+00 7.867025610550021711e-03
4.064533463622170530e+03 1.192967900004206161e+00 7.663884194129880721e-03
4.068597997085794304e+03 1.233843945129188269e+00 7.738934572554004472e-03
4.072666595082881486e+03 1.281892410958511697e+00 9.312377090437810173e-03
4.076739261677965715e+03 1.337425233959137261e+00 1.075862622181310811e-02
4.080816000939644709e+03 1.390139416526302130e+00 1.149473260213243302e-02
4.084896816940585722e+03 1.434476955087465200e+00 1.055749497450310208e-02
4.088981713757527814e+03 1.465175025329753078e+00 8.915747803556412290e-03
4.093070695471286854e+03 1.472464971159054503e+00 8.523092263004808378e-03
4.097163766166759160e+03 1.455120659105211711e+00 9.773538176400259000e-03
4.101260929932927866e+03 1.424741503392906505e+00 1.071458526890492133e-02
4.105362190862862008e+03 1.376258547258564668e+00 1.102573485441249966e-02
4.109467553053726078e+03 1.317730544727385933e+00 9.651551481981084785e-03
4.113577020606780934e+03 1.258818573089399040e+00 7.338899654725292501e-03
4.117690597627389252e+03 1.207054750257495979e+00 4.822962549574707006e-03
4.121808288225018259e+03 1.169926934009201558e+00 4.723907033840533953e-03
4.125930096513244280e+03 1.149639699414128913e+00 4.398670650435229472e-03
4.130056026609759101e+03 1.139772864178709044e+00 4.047221197425700939e-03
4.134186082636369974e+03 1.136140617021731414e+00 3.719915409926126317e-03
4.138320268719007800e+03 1.138836204337080549e+00 3.432295730936485954e-03
4.142458588987728035e+03 1.144371499573922923e+00 2.982426934465459700e-03
4.146601047576717065e+03 1.153139664626276151e+00 2.959335367452243116e-03
4.150747648624294925e+03 1.162915696256029197e+00 2.724474691140433679e-03
4.154898396272920763e+03 1.169097860030341218e+00 2.734167212156105638e-03
4.159053294669195566e+03 1.174900279784857116e+00 2.762799406633808900e-03
4.163212347963865795e+03 1.175039969595758071e+00 2.645452299364105080e-03
4.167375560311830668e+03 1.174700549709384312e+00 2.698958091396686659e-03
4.171542935872143971e+03 1.168168251105938582e+00 3.290664989564634664e-03
4.175714478808017702e+03 1.161637907268383785e+00 3.078667023226101373e-03
4.179890193286827525e+03 1.152643244082052210e+00 3.403517130157099942e-03
4.184070083480115500e+03 1.144686007924280213e+00 3.462945446371405375e-03
4.188254153563597356e+03 1.139072072587445694e+00 3.936318101296103732e-03
4.192442407717161586e+03 1.137228381105577890e+00 3.658331570698363476e-03
4.196634850124880359e+03 1.137925507474721210e+00 3.582651215739976296e-03
4.200831484975006788e+03 1.146559036042195112e+00 4.238278188697951199e-03
4.205032316459983122e+03 1.153666657363789261e+00 4.455149674073003406e-03
4.209237348776444378e+03 1.161577688389014096e+00 3.864484902352366934e-03
4.213446586125221984e+03 1.167181523687972566e+00 3.826556954598869624e-03
4.217660032711349231e+03 1.174656970689923474e+00 3.719196193795669750e-03
4.221877692744061278e+03 1.178929511086352244e+00 3.645840364119078657e-03
4.226099570436806971e+03 1.180309081386993197e+00 3.643612668805960332e-03
4.230325670007245208e+03 1.179836991101541832e+00 3.556686942569620320e-03
4.234555995677254032e+03 1.174716724486894126e+00 3.355858499676410683e-03
4.238790551672932452e+03 1.172351509032455441e+00 3.378537485623599092e-03
4.243029342224606808e+03 1.168844325386491967e+00 3.376808900098815600e-03
4.247272371566832589e+03 1.164111009198424362e+00 3.280317504915344819e-03
4.251519643938400804e+03 1.157326645220762673e+00 3.561133943556892521e-03
4.255771163582340705e+03 1.154825281036333751e+00 3.554217452372276931e-03
4.260026934745924336e+03 1.157662121878032746e+00 3.800100540255936608e-03
4.264286961680671993e+03 1.162701018587314783e+00 4.070383563328775454e-03
4.268551248642354039e+03 1.168734269663024072e+00 4.143553562376182421e-03
4.272819799890998183e+03 1.179746616652973090e+00 4.485716134876378131e-03
4.277092619690890388e+03 1.190618381737728271e+00 4.893971002050635268e-03
4.281369712310583054e+03 1.198288441907389368e+00 4.451061664669989267e-03
4.285651082022895025e+03 1.207015891387017037e+00 4.913569525556759146e-03
4.289936733104918858e+03 1.206289546523670486e+00 9.946746860503020635e-03
4.294226669838025373e+03 1.213942302132995366e+00 1.503206583541903153e-02
4.298520896507864563e+03 1.243326928963298439e+00 1.431507468138541045e-02
4.302819417404373780e+03 1.303384200548131755e+00 1.281790442076430857e-02
4.307122236821779552e+03 1.391098623194480632e+00 1.281640429427889465e-02
4.311429359058603040e+03 1.521023618717554760e+00 2.059864076597068411e-02
4.315740788417662770e+03 1.647310008546494675e+00 2.498084643798292176e-02
4.320056529206081905e+03 1.782753017162729048e+00 2.675765862799088513e-02
4.324376585735290064e+03 1.862790580787965444e+00 2.321097764048446824e-02
4.328700962321026054e+03 1.900445459116578695e+00 2.130031485124764604e-02
4.333029663283348782e+03 1.911109064191227613e+00 2.145711913241647034e-02
4.337362692946633615e+03 1.878464601422751290e+00 2.303458125927416306e-02
4.341700055639581478e+03 1.803808748195596223e+00 2.357290026883199566e-02
4.346041755695222491e+03 1.710981761358788544e+00 2.206674272371697554e-02
4.350387797450919606e+03 1.603959398832689676e+00 1.782299967071881985e-02
4.354738185248371337e+03 1.495623718768321675e+00 1.336717738734918490e-02
4.359092923433621763e+03 1.407669933502179394e+00 1.244048419318781462e-02
4.363452016357056891e+03 1.338828610617008197e+00 1.304506039730220918e-02
4.367815468373414660e+03 1.293944123936739077e+00 1.164441045299509543e-02
4.372183283841789489e+03 1.261112959515306775e+00 9.324877661260361217e-03
4.376555467125633186e+03 1.236419872814715326e+00 8.098722685869582522e-03
4.380932022592760404e+03 1.215962170348379834e+00 7.408283024291893032e-03
4.385312954615354101e+03 1.197797033941303546e+00 6.726515907934262246e-03
4.389698267569970994e+03 1.185479410998453220e+00 6.034118129871014757e-03
4.394087965837542470e+03 1.177203013094911377e+00 6.007286441385222345e-03
4.398482053803381859e+03 1.175288646233228151e+00 5.789991168337419065e-03
4.402880535857186260e+03 1.177966918391962992e+00 4.504731852415506770e-03
4.407283416393044718e+03 1.177285211901842432e+00 3.433221470595013668e-03
4.411690699809440048e+03 1.172303119276979722e+00 2.470588710055626400e-03
4.416102390509250654e+03 1.170573757912321877e+00 2.323429505600653044e-03
4.420518492899761441e+03 1.166864957928831714e+00 2.676733644031818043e-03
4.424939011392662906e+03 1.163615098691007876e+00 3.331605443812184555e-03
4.429363950404056595e+03 1.162176299868289187e+00 3.607414499738534602e-03
4.433793314354462382e+03 1.164477983762317814e+00 3.655389124922021286e-03
4.438227107668818462e+03 1.172341267857397673e+00 3.259631042664372282e-03
4.442665334776488635e+03 1.186879821090129017e+00 3.864808103823773322e-03
4.447108000111265937e+03 1.204937413730758022e+00 4.753740112652365089e-03
4.451555108111379013e+03 1.224102606335493837e+00 4.818002886321419084e-03
4.456006663219492111e+03 1.243379675061449419e+00 4.320882121455557265e-03
4.460462669882713271e+03 1.260874880106883422e+00 3.880755918217408847e-03
4.464923132552597053e+03 1.270946417370872661e+00 3.613646023329551270e-03
4.469388055685150903e+03 1.273278940659068104e+00 4.031723441576576597e-03
4.473857443740837880e+03 1.271292174236483996e+00 4.574882681028532780e-03
4.478331301184580298e+03 1.261324598299336186e+00 5.278862945284355616e-03
4.482809632485766087e+03 1.251173820151555649e+00 4.887433664676198684e-03
4.487292442118253348e+03 1.238827017479544601e+00 3.779261095010580038e-03
4.491779734560373072e+03 1.231634841041938877e+00 3.520385346224464904e-03
4.496271514294934605e+03 1.229325949339305168e+00 3.987315874985727059e-03
4.500767785809231100e+03 1.231559737371279439e+00 4.090288652077765999e-03
4.505268553595042249e+03 1.238176068068132407e+00 3.574100511085266749e-03
4.509773822148638828e+03 1.243836468906287296e+00 3.363468444333454679e-03
