# starting wavelength: 3736.480
# ending wavelength: 9080.630
# wav flux eflux
3.737215963113731050e+03 2.839985653242838026e-01 3.305204129950178316e-01
3.740953179076846027e+03 2.811478450176768673e-01 2.438199014001026232e-01
3.744694132255923705e+03 2.796474622314283898e-01 1.836795607501277017e-01
3.748438826388181042e+03 2.988890509186736821e-01 1.391178569980391910e-01
3.752187265214570289e+03 3.214241064327589825e-01 1.082457285362460192e-01
3.755939452479786269e+03 3.574290122127591340e-01 8.566919900804126353e-02
3.759695391932267285e+03 3.978650158681572568e-01 6.913727421884018065e-02
3.763455087324201031e+03 4.432210566533936191e-01 5.862605991003535383e-02
3.767218542411526414e+03 4.881156314349229253e-01 4.930761141853531870e-02
3.770985760953939007e+03 5.249560617416897390e-01 4.248210852349822153e-02
3.774756746714894234e+03 5.384601985877591757e-01 4.210447908954439294e-02
3.778531503461610555e+03 5.417879379409832330e-01 4.201514710091836663e-02
3.782310034965073100e+03 5.468843704508330461e-01 3.847560579539924253e-02
3.786092345000039586e+03 5.501993672148544068e-01 3.560280246717024977e-02
3.789878437345040766e+03 5.500127542854128526e-01 3.346690763151637799e-02
3.793668315782387253e+03 5.292500267792966673e-01 3.346466700987766468e-02
3.797461984098170888e+03 5.120127350088929941e-01 3.441023068597632434e-02
3.801259446082270188e+03 5.031596613777595817e-01 3.388176674183918102e-02
3.805060705528353537e+03 5.008521495145976665e-01 3.307939302151224892e-02
3.808865766233883278e+03 4.929185377518995881e-01 3.324226271615701028e-02
3.812674632000118436e+03 4.880778801955862334e-01 3.238005356513161404e-02
3.816487306632119726e+03 4.862842142757920483e-01 3.157568832132155029e-02
3.820303793938753188e+03 4.905396710171337493e-01 3.111019063420263769e-02
3.824124097732693372e+03 5.006196633684739661e-01 3.194917971709353155e-02
3.827948221830427428e+03 5.127857241993308834e-01 3.355487834086134935e-02
3.831776170052258749e+03 5.479822217109812099e-01 3.729381840639606899e-02
3.835607946222312421e+03 5.646331086256721754e-01 3.635800828493421233e-02
3.839443554168536139e+03 5.937196699452840232e-01 3.408231410612910101e-02
3.843282997722705659e+03 6.092368545976373229e-01 3.397326323967800321e-02
3.847126280720429804e+03 6.206292266017316983e-01 3.333471538559350938e-02
3.850973407001151372e+03 6.388050592714216158e-01 3.373314955660054737e-02
3.854824380408153957e+03 6.447113397199955021e-01 3.487750567541103575e-02
3.858679204788563311e+03 6.658681639907203520e-01 3.491980158832543729e-02
3.862537883993353262e+03 6.869721642130952599e-01 3.407152659796316985e-02
3.866400421877347981e+03 7.044025333261476618e-01 3.385984782819375510e-02
3.870266822299226533e+03 6.974630426586885257e-01 3.309389946333299304e-02
3.874137089121526969e+03 6.914848748417089519e-01 3.286850357380328297e-02
3.878011226210649966e+03 6.851296831261782794e-01 3.288458194588103622e-02
3.881889237436861549e+03 6.557841204928087642e-01 3.292334287535466503e-02
3.885771126674299921e+03 6.317646384996845610e-01 3.228500478539510915e-02
3.889656897800975457e+03 6.132468283492905625e-01 3.274926356050135434e-02
3.893546554698777527e+03 5.976040384823639862e-01 3.335012795704834360e-02
3.897440101253477678e+03 5.958289672605462384e-01 3.316406656244113432e-02
3.901337541354732366e+03 6.078679408134525231e-01 3.462185323906279144e-02
3.905238878896088409e+03 6.107048370082232003e-01 3.542328822170835029e-02
3.909144117774985716e+03 6.076020891625574238e-01 3.588762241167556960e-02
3.913053261892762293e+03 6.051093300738968894e-01 3.659066588130072822e-02
3.916966315154656058e+03 6.029347408177490042e-01 3.386311742455050400e-02
3.920883281469812118e+03 6.006704768619003376e-01 3.332411413404414574e-02
3.924804164751283224e+03 5.867104891145999979e-01 3.435722566647283344e-02
3.928728968916035683e+03 5.736317061489819569e-01 3.456588736285500646e-02
3.932657697884953450e+03 5.567423915354540176e-01 3.359216821035507922e-02
3.936590355582839493e+03 5.485673060588026617e-01 3.319665239265091189e-02
3.940526945938423523e+03 5.356559465962488220e-01 3.174370248667717637e-02
3.944467472884363360e+03 5.286686709652711480e-01 3.235506004858417634e-02
3.948411940357249023e+03 5.406536740924215989e-01 3.136107684515380967e-02
3.952360352297607733e+03 5.473653701172288555e-01 3.256441079375139297e-02
3.956312712649906643e+03 5.675886217076882012e-01 3.221469687280630739e-02
3.960269025362557841e+03 5.947475523697250965e-01 3.128374910061134523e-02
3.964229294387921527e+03 6.168127795972627725e-01 3.089788560075769006e-02
3.968193523682310570e+03 6.464511462312815260e-01 3.214791955802061979e-02
3.972161717205994591e+03 6.740969945982844269e-01 3.355526009956383976e-02
3.976133878923201792e+03 6.887418754307668145e-01 3.310557949160344848e-02
3.980110012802126221e+03 7.043324056020299206e-01 3.201987902019876736e-02
3.984090122814929600e+03 7.261239600307420883e-01 3.289776609461272233e-02
3.988074212937745870e+03 7.595132525431301795e-01 3.145370147684542483e-02
3.992062287150684824e+03 8.025729764364909480e-01 2.477359828818588572e-02
3.996054349437837118e+03 8.037741343903588298e-01 2.684910082138986312e-02
4.000050403787276082e+03 8.039430249421940511e-01 2.983334739202789590e-02
4.004050454191064546e+03 7.929960309142300989e-01 3.113483006214985693e-02
4.008054504645257111e+03 7.783255857717160664e-01 3.133887214129523618e-02
4.012062559149903791e+03 7.636632841151727025e-01 2.726787994073924526e-02
4.016074621709055009e+03 7.670560946218858422e-01 3.010994180182674507e-02
4.020090696330765240e+03 7.749675181928767920e-01 3.207553078014152570e-02
4.024110787027097558e+03 7.779332521013752055e-01 3.142102571995279703e-02
4.028134897814125907e+03 7.668669722876529926e-01 3.145358405535372825e-02
4.032163032711941469e+03 7.568616717635346935e-01 3.301395704325135738e-02
4.036195195744654484e+03 7.492453900381128573e-01 3.380332674730042453e-02
4.040231390940400615e+03 7.520880868943244923e-01 3.453268762746810466e-02
4.044271622331342314e+03 7.815593680076390326e-01 3.790440174296666465e-02
4.048315893953675186e+03 7.990984885394307735e-01 3.808290648187587224e-02
4.052364209847629809e+03 8.157120402112905122e-01 3.701689542677059214e-02
4.056416574057479011e+03 8.237607472829160393e-01 3.792246010395605715e-02
4.060472990631537868e+03 8.174659331006995933e-01 4.099897775251851173e-02
4.064533463622170530e+03 8.345237858596070701e-01 4.145183487068334477e-02
4.068597997085794304e+03 8.422844352783251942e-01 4.018597214075520646e-02
4.072666595082881486e+03 8.753626085456427397e-01 4.039292094331552868e-02
4.076739261677965715e+03 9.061622258490878989e-01 4.321501785692910547e-02
4.080816000939644709e+03 9.363918503266065452e-01 4.322963139878321925e-02
4.084896816940585722e+03 9.578374190267886501e-01 4.439383345187262325e-02
4.088981713757527814e+03 9.758996060715817711e-01 4.364810230514726275e-02
4.093070695471286854e+03 1.000157759595861950e+00 4.369828064171987075e-02
4.097163766166759160e+03 1.038336517954097538e+00 4.185069873025273196e-02
4.101260929932927866e+03 1.060702183338331883e+00 3.907730741108307593e-02
4.105362190862862008e+03 1.065376695408539964e+00 3.983571053447243493e-02
4.109467553053726078e+03 1.050155662979711746e+00 3.888623907680723024e-02
4.113577020606780934e+03 1.015230160095233813e+00 3.967826580946411108e-02
4.117690597627389252e+03 9.776422160543980500e-01 3.918090266330333943e-02
4.121808288225018259e+03 9.735135703057083978e-01 3.925337954598191043e-02
4.125930096513244280e+03 9.625471595792193247e-01 3.850072631562356795e-02
4.130056026609759101e+03 9.354015294871276254e-01 3.844633972443928932e-02
4.134186082636369974e+03 8.856576747981450559e-01 3.739699302202333098e-02
4.138320268719007800e+03 8.301760105680604518e-01 3.702543317613842672e-02
4.142458588987728035e+03 7.937425364133743333e-01 3.680254941405523839e-02
4.146601047576717065e+03 7.828332412238825366e-01 3.489588963362365293e-02
4.150747648624294925e+03 7.805410885920885944e-01 3.545000304827007620e-02
4.154898396272920763e+03 7.823318055656990344e-01 3.585858453734560441e-02
4.159053294669195566e+03 8.168393872237499354e-01 4.087893593310139295e-02
4.163212347963865795e+03 8.329392215484252571e-01 4.393903409380500030e-02
4.167375560311830668e+03 8.467440788324659406e-01 4.558998312755864479e-02
4.171542935872143971e+03 8.559051409021996015e-01 4.315965101802588660e-02
4.175714478808017702e+03 8.760176937933310537e-01 4.256759504081521206e-02
4.179890193286827525e+03 8.912370801143740806e-01 4.190910368252352691e-02
4.184070083480115500e+03 8.917339495345921740e-01 4.335389251747994582e-02
4.188254153563597356e+03 8.728654970466056540e-01 4.321016238639116547e-02
4.192442407717161586e+03 8.609081766859517648e-01 4.523245712347745418e-02
4.196634850124880359e+03 8.477322256092295616e-01 4.518405218810762902e-02
4.200831484975006788e+03 8.409014098690974492e-01 4.534341593354090233e-02
4.205032316459983122e+03 8.277924494370619835e-01 4.530069127413618307e-02
4.209237348776444378e+03 7.923065798398004622e-01 4.322660677155106684e-02
4.213446586125221984e+03 7.662244355078554614e-01 4.098703877143080460e-02
4.217660032711349231e+03 7.711809987377721276e-01 4.141689697933106235e-02
4.221877692744061278e+03 7.840609329770285019e-01 4.057415584498876016e-02
4.226099570436806971e+03 8.214954101917568696e-01 3.815720089594586834e-02
4.230325670007245208e+03 8.525968031641408817e-01 3.821404415789248638e-02
4.234555995677254032e+03 8.790306693829351703e-01 3.947560243808210384e-02
4.238790551672932452e+03 8.891893972611982777e-01 3.655720167072624982e-02
4.243029342224606808e+03 8.995002965078905399e-01 3.406814345838959923e-02
4.247272371566832589e+03 9.283141005251165367e-01 3.539685332861050582e-02
4.251519643938400804e+03 9.874283610344841700e-01 2.889692987507251620e-02
4.255771163582340705e+03 1.018389205001754227e+00 2.742901925931877372e-02
4.260026934745924336e+03 1.012544943214629622e+00 2.734194606944643710e-02
4.264286961680671993e+03 9.825742889179180928e-01 2.855828427280112519e-02
4.268551248642354039e+03 9.350910707412479761e-01 2.830646418157650029e-02
4.272819799890998183e+03 8.742218965683328236e-01 2.742216123653870921e-02
4.277092619690890388e+03 7.905062883461198009e-01 2.070771377910647984e-02
4.281369712310583054e+03 7.098604449731255039e-01 1.775492576484175369e-02
4.285651082022895025e+03 6.379428245437481770e-01 1.895749483376633557e-02
4.289936733104918858e+03 5.825613786201387923e-01 1.989137691286337051e-02
4.294226669838025373e+03 5.686221247711484850e-01 2.319300220479188560e-02
4.298520896507864563e+03 5.854201444274638177e-01 2.989667443098168245e-02
4.302819417404373780e+03 5.858063175639254272e-01 2.976753304681281978e-02
4.307122236821779552e+03 6.058961644746718722e-01 2.919676404445084236e-02
4.311429359058603040e+03 6.464536684274342360e-01 2.893604025604549351e-02
4.315740788417662770e+03 6.987236337868703018e-01 2.678088044424229916e-02
4.320056529206081905e+03 7.316150809265020705e-01 2.916803871404233597e-02
4.324376585735290064e+03 7.656445711811384891e-01 2.836743716065098092e-02
4.328700962321026054e+03 8.168392562437478688e-01 2.996910926483361062e-02
4.333029663283348782e+03 8.575248476685364274e-01 3.145082725252092148e-02
4.337362692946633615e+03 8.933324025575182237e-01 3.120944740797830866e-02
4.341700055639581478e+03 9.112207384620583106e-01 3.131789275313501264e-02
4.346041755695222491e+03 9.080603921454336591e-01 3.239780459224605308e-02
4.350387797450919606e+03 9.045896857677550029e-01 3.243128869309756801e-02
4.354738185248371337e+03 9.047644931790732592e-01 3.227928910712161287e-02
4.359092923433621763e+03 8.964440004535154660e-01 3.192813161289273505e-02
4.363452016357056891e+03 8.401171997810195080e-01 3.893190878389544973e-02
4.367815468373414660e+03 7.901166772431847951e-01 3.808829383341987701e-02
4.372183283841789489e+03 7.638638478766826001e-01 3.463084992953405217e-02
4.376555467125633186e+03 7.613364205272356022e-01 3.685179443104108499e-02
4.380932022592760404e+03 7.692669342272449029e-01 3.564821300913231794e-02
4.385312954615354101e+03 7.604053181572500986e-01 3.824300579422731244e-02
4.389698267569970994e+03 7.630318767925925449e-01 3.860065519995357214e-02
4.394087965837542470e+03 8.088252189326029518e-01 3.952221720641775626e-02
4.398482053803381859e+03 8.789540945533187433e-01 4.085775958293078047e-02
4.402880535857186260e+03 9.253381659748838306e-01 4.440525768086816399e-02
4.407283416393044718e+03 9.756230193066299794e-01 4.406481528559903771e-02
4.411690699809440048e+03 1.018789216547695720e+00 4.273684488974251877e-02
4.416102390509250654e+03 1.028615221366766308e+00 4.220071260514277056e-02
4.420518492899761441e+03 1.038549648218607624e+00 4.216912845983520480e-02
4.424939011392662906e+03 1.043164412650582573e+00 4.289076630778712595e-02
4.429363950404056595e+03 1.001995379017953880e+00 4.355074976140538290e-02
4.433793314354462382e+03 9.503492008276713809e-01 4.703862039478449303e-02
4.438227107668818462e+03 8.957055483513233218e-01 5.168963302754510380e-02
4.442665334776488635e+03 8.755536709960376474e-01 5.355537302346377593e-02
4.447108000111265937e+03 8.788138339457903792e-01 5.004643903936049909e-02
4.451555108111379013e+03 8.672882268385341265e-01 4.772346939912171931e-02
4.456006663219492111e+03 9.202133673419427007e-01 5.325804084770947161e-02
4.460462669882713271e+03 9.829946545556235149e-01 4.288394922824655814e-02
4.464923132552597053e+03 1.007738703871642327e+00 3.964646092794221754e-02
4.469388055685150903e+03 9.999759247320579858e-01 4.290533893590638831e-02
4.473857443740837880e+03 9.950009816280680486e-01 4.244154537807840605e-02
4.478331301184580298e+03 9.716221748692041027e-01 4.141316441942467091e-02
4.482809632485766087e+03 9.555731222845588180e-01 4.146814793827176965e-02
4.487292442118253348e+03 9.443380063844788452e-01 4.179025375030793327e-02
4.491779734560373072e+03 9.154256585315287964e-01 4.134517033432771188e-02
4.496271514294934605e+03 8.633805953468560723e-01 3.919723278738860422e-02
4.500767785809231100e+03 8.427886813230979213e-01 3.734248729481284140e-02
4.505268553595042249e+03 8.694384870469002990e-01 3.868941920831912851e-02
4.509773822148638828e+03 8.976226319873070736e-01 3.108627570783850658e-02
4.514283595970789065e+03 9.186524648622489408e-01 2.563417851439895104e-02
4.518797879566761367e+03 9.220554722904564793e-01 2.652818721295920751e-02
4.523316677446328868e+03 9.034455406026669078e-01 2.409281482938523122e-02
4.527839994123776705e+03 8.788141353507931131e-01 2.286267775503831451e-02
4.532367834117902021e+03 8.628864313109574358e-01 2.212769090030963087e-02
4.536900201952022144e+03 8.531642491464964673e-01 2.342313489433308499e-02
4.541437102153975502e+03 8.598851042046814497e-01 2.278990554464107449e-02
4.545978539256130716e+03 8.509366446885914259e-01 2.219136663409784424e-02
4.550524517795388419e+03 8.081892711520762829e-01 2.866836845197223357e-02
4.555075042313184895e+03 7.755133129948045267e-01 2.915591694596109118e-02
4.559630117355500261e+03 7.620060476516514747e-01 3.081569942082490118e-02
4.564189747472856652e+03 8.011725773249464000e-01 2.929067873074075665e-02
4.568753937220330954e+03 8.686378867569379825e-01 3.341529553936328778e-02
4.573322691157552981e+03 9.776741120095744364e-01 3.755692389099905132e-02
4.577896013848711846e+03 1.067060445317978168e+00 4.000712423798298556e-02
4.582473909862562323e+03 1.154393317384373452e+00 4.344918696325968110e-02
4.587056383772426670e+03 1.224505132773370919e+00 4.101205776750355136e-02
4.591643440156200086e+03 1.245176351821690730e+00 3.920193000321180177e-02
4.596235083596357981e+03 1.252183059493249706e+00 4.436748834191416718e-02
4.600831318679955984e+03 1.215623232236120232e+00 5.178280431651061805e-02
4.605432149998637215e+03 1.183297445084124488e+00 5.334806789069070077e-02
4.610037582148637739e+03 1.163448445637426998e+00 4.824678257403113013e-02
4.614647619730787483e+03 1.145273093740139192e+00 4.289118979657476766e-02
4.619262267350520233e+03 1.144088834159871393e+00 4.402179948771611090e-02
4.623881529617872729e+03 1.175204128808413406e+00 4.705712200060831185e-02
4.628505411147491941e+03 1.209180338962799306e+00 4.268458984980396526e-02
4.633133916558640522e+03 1.267290938480231777e+00 3.184409965909271861e-02
4.637767050475200449e+03 1.290907003290517885e+00 2.935732174960557078e-02
4.642404817525677572e+03 1.292111088694715582e+00 3.183617392949882052e-02
4.647047222343205249e+03 1.262533489745554016e+00 3.663156413999189148e-02
4.651694269565549803e+03 1.239143129677354738e+00 3.409273205926059702e-02
4.656345963835116891e+03 1.207926132728455837e+00 2.745476474783389853e-02
4.661002309798953320e+03 1.202504227452148244e+00 2.581607379065722213e-02
4.665663312108753416e+03 1.211726614335093988e+00 2.781337150146123011e-02
4.670328975420864481e+03 1.239941393330482367e+00 2.668399725144543141e-02
4.674999304396286789e+03 1.288759201232012819e+00 1.966763139937729998e-02
4.679674303700684504e+03 1.334453840712116701e+00 1.817487755063815213e-02
4.684353978004386590e+03 1.372621879600249617e+00 1.737179289842290600e-02
4.689038331982392265e+03 1.393502417855214670e+00 1.703927702384548659e-02
4.693727370314376458e+03 1.389250890171305652e+00 1.806190243278603391e-02
4.698421097684692540e+03 1.363038984610195570e+00 2.369176121304590599e-02
4.703119518782378691e+03 1.340842831466069418e+00 2.483161376770049930e-02
4.707822638301162442e+03 1.330865591304454032e+00 2.445822489076117379e-02
4.712530460939465229e+03 1.337410477168538669e+00 2.585611824210038920e-02
4.717242991400406027e+03 1.341986045769998803e+00 2.922956221183354436e-02
4.721960234391808626e+03 1.343605464158309726e+00 2.875918037841130800e-02
4.726682194626201635e+03 1.354222096218166804e+00 2.793632705543781097e-02
4.731408876820829391e+03 1.361810251691399909e+00 2.723975050261891184e-02
4.736140285697651962e+03 1.368531393260276285e+00 2.784688474526971283e-02
4.740876425983350600e+03 1.376372004117555115e+00 2.791375759464442136e-02
4.745617302409335934e+03 1.355913854990575818e+00 2.936883536233683353e-02
4.750362919711747054e+03 1.344868448236879788e+00 3.138664110275693475e-02
4.755113282631459697e+03 1.339909056777044638e+00 3.075435526708323111e-02
4.759868395914093526e+03 1.321328392652950434e+00 2.954010274208966960e-02
4.764628264310008490e+03 1.301468298018364056e+00 2.831184129046702622e-02
4.769392892574320285e+03 1.283740454573832013e+00 2.739411545763296291e-02
4.774162285466896719e+03 1.290241523504077614e+00 2.774356418602406255e-02
4.778936447752364984e+03 1.300290360869984285e+00 2.529125886915348231e-02
4.783715384200118933e+03 1.289317625029012149e+00 2.591302254105887562e-02
4.788499099584319993e+03 1.264799099892373935e+00 2.993446329344453052e-02
4.793287598683906253e+03 1.237264885588143626e+00 2.940489818905358058e-02
4.798080886282591564e+03 1.244286536208909277e+00 2.813605430105887983e-02
4.802878967168876443e+03 1.262347789030749512e+00 3.056209798881982798e-02
4.807681846136046261e+03 1.343414806396292294e+00 4.983731356788557998e-02
4.812489527982183972e+03 1.362815999590502480e+00 5.677590844812589049e-02
4.817302017510168298e+03 1.324713535448619028e+00 6.044584980854803002e-02
4.822119319527679181e+03 1.227163257359727977e+00 7.886073423410840111e-02
4.826941438847208701e+03 1.420485538078326115e+00 2.389248795080710017e-02
4.831768380286057436e+03 1.368219721364208663e+00 2.126595805396157973e-02
4.836600148666345376e+03 1.167671384173491589e+00 3.090417438612695633e-02
4.841436748815013743e+03 8.963360311560304439e-01 7.026580055507786193e-02
4.846278185563829538e+03 9.040849751356132558e-01 6.078922169196510072e-02
4.851124463749395545e+03 1.144350199845433513e+00 8.851674965488574853e-02
4.855975588213146693e+03 1.559639158279550797e+00 1.085194724975566266e-01
4.860831563801360971e+03 1.732548103698802411e+00 8.806041945908540947e-02
4.865692395365163975e+03 1.710819783270175254e+00 1.049888446578240847e-01
