# starting wavelength: 3462.946
# ending wavelength: 9397.157
# wav flux eflux
3.463843857910266706e+03 4.922190934910275928e+00 4.990658186248765893e-01
3.467307701768178049e+03 4.917736197429705136e+00 3.719003062480055743e-01
3.470775009469947236e+03 4.980607818851958690e+00 2.948140097904756729e-01
3.474245784479418489e+03 5.027056030711440471e+00 2.235932799162610729e-01
3.477720030263898934e+03 5.055077269437027176e+00 1.735980586212163557e-01
3.481197750294164052e+03 5.088492285722675312e+00 1.425361167295708664e-01
3.484678948044459503e+03 5.093811870339043146e+00 1.197647568652636801e-01
3.488163626992504760e+03 5.067712014453834790e+00 9.734299651076759596e-02
3.491651790619498570e+03 5.030000108976048878e+00 8.162239185917843920e-02
3.495143442410119405e+03 4.978486256542137944e+00 7.042122299838843302e-02
3.498638585852530468e+03 4.924040520343530680e+00 6.169671475607126088e-02
3.502137224438384237e+03 4.855238114330858501e+00 5.526457599215527094e-02
3.505639361662823831e+03 4.784266308532259870e+00 5.018928522074392329e-02
3.509145001024487556e+03 4.720388352274730082e+00 4.731794574906349887e-02
3.512654146025513455e+03 4.662630440525012965e+00 4.538241781700894095e-02
3.516166800171540217e+03 4.607650689549239509e+00 4.369915690768325783e-02
3.519682966971712631e+03 4.541530037249125407e+00 4.230079543936272196e-02
3.523202649938685681e+03 4.468123300452548463e+00 4.123678885756736079e-02
3.526725852588625457e+03 4.412489581606144462e+00 4.037398033797019031e-02
3.530252578441215064e+03 4.345054785870802405e+00 3.909487436318531683e-02
3.533782831019657806e+03 4.299051503774031779e+00 4.022318490508451638e-02
3.537316613850678550e+03 4.230661166026002284e+00 4.147684544951466684e-02
3.540853930464530094e+03 4.162653273192671755e+00 4.146864747491556258e-02
3.544394784394995895e+03 4.123442686564149362e+00 4.110500274390519598e-02
3.547939179179392340e+03 4.087670750394190478e+00 4.041383691391768618e-02
3.551487118358572843e+03 4.071916787045220865e+00 3.831617097171458736e-02
3.555038605476932389e+03 4.035603272165067423e+00 3.846542219180829059e-02
3.558593644082410719e+03 4.009957454109158270e+00 3.818051967156195492e-02
3.562152237726494150e+03 3.991148004167681229e+00 3.831416479582842871e-02
3.565714389964221937e+03 3.982205206108821560e+00 3.757947724220320890e-02
3.569280104354187188e+03 3.973234919771731377e+00 3.774286909230515491e-02
3.572849384458542772e+03 3.938085444918490108e+00 3.677612476356753590e-02
3.576422233843002232e+03 3.921088812858634309e+00 3.664959056433867574e-02
3.579998656076846601e+03 3.902371971229536385e+00 3.584536259319126561e-02
3.583578654732924406e+03 3.907797839550538832e+00 3.412154105796012110e-02
3.587162233387658489e+03 3.913846549998741597e+00 3.361209628377034853e-02
3.590749395621047370e+03 3.917833278015821818e+00 3.303092741102335583e-02
3.594340145016669794e+03 3.910322243188437241e+00 3.252756030737285337e-02
3.597934485161687462e+03 3.916968243595661647e+00 3.203459714762714461e-02
3.601532419646850485e+03 3.923146889407554738e+00 3.233282013144263972e-02
3.605133952066498296e+03 3.928038164885268912e+00 2.998207907284371893e-02
3.608739086018566013e+03 3.912244888700306067e+00 3.023415451373931070e-02
3.612347825104585809e+03 3.884066295797513835e+00 2.967558512313633531e-02
3.615960172929691907e+03 3.859733747049298724e+00 2.976196555515161352e-02
3.619576133102622407e+03 3.829351995498088357e+00 3.010554838357874796e-02
3.623195709235726554e+03 3.800438030510427279e+00 2.978854589620533524e-02
3.626818904944963379e+03 3.760494955633210346e+00 2.862356505331983825e-02
3.630445723849909427e+03 3.716502507678228540e+00 2.746139471787146374e-02
3.634076169573760581e+03 3.684733541983403526e+00 2.737406175401135497e-02
3.637710245743335690e+03 3.660131822484501196e+00 2.613237433528520573e-02
3.641347955989080219e+03 3.628273524815778917e+00 2.589725308708481014e-02
3.644989303945070333e+03 3.592246095696512764e+00 2.563725003505434863e-02
3.648634293249016537e+03 3.561939492108111782e+00 2.434928037594040820e-02
3.652282927542266862e+03 3.553196253731984555e+00 2.288843444490126083e-02
3.655935210469810499e+03 3.549561420209988327e+00 2.361905154578552296e-02
3.659591145680281443e+03 3.544561260643141143e+00 2.227906058896261809e-02
3.663250736825963031e+03 3.532103976512406263e+00 2.125905006027962313e-02
3.666913987562790226e+03 3.555724240691370497e+00 2.550436431255801925e-02
3.670580901550354156e+03 3.574359335821585049e+00 3.231022956092238774e-02
3.674251482451905758e+03 3.526476446182983171e+00 4.582321477510768737e-02
3.677925733934358959e+03 3.492761471543927687e+00 5.322161558281506694e-02
3.681603659668294313e+03 3.505335309663730303e+00 5.436802545159152844e-02
3.685285263327964003e+03 3.531479854934577833e+00 5.351862087044270688e-02
3.688970548591293209e+03 3.578622747227317991e+00 5.333712475553850640e-02
3.692659519139885560e+03 3.624698740211797610e+00 5.305954367163052271e-02
3.696352178659026777e+03 3.686902102384969293e+00 5.516688237357649655e-02
3.700048530837686940e+03 3.745937573131554288e+00 5.648428571011462895e-02
3.703748579368525952e+03 3.803497553468595971e+00 5.816956532611414210e-02
3.707452327947895355e+03 3.846443370673549911e+00 5.875855534211506248e-02
3.711159780275844696e+03 3.873733403499791450e+00 5.804984753790651958e-02
3.714870940056121526e+03 3.901666022954073831e+00 5.702223475484028553e-02
3.718585810996179134e+03 3.927718382381421680e+00 5.521561062372190576e-02
3.722304396807176545e+03 3.931207391782936877e+00 5.406097811301273370e-02
3.726026701203984885e+03 3.904308470121207630e+00 5.438100228195471425e-02
3.729752727905190113e+03 3.862919513112814229e+00 5.528859138932760986e-02
3.733482480633096657e+03 3.808410792532399558e+00 5.689783236254664089e-02
3.737215963113731050e+03 3.736145945160867843e+00 5.872681122971767920e-02
3.740953179076846027e+03 3.668555685397070221e+00 5.943751547847393735e-02
3.744694132255923705e+03 3.608565434602954536e+00 5.810554713072342559e-02
3.748438826388181042e+03 3.557320252867901988e+00 5.734038588407804060e-02
3.752187265214570289e+03 3.488584496293791304e+00 5.720390766449063441e-02
3.755939452479786269e+03 3.431424575389987908e+00 5.628455931150109365e-02
3.759695391932267285e+03 3.370799937030679594e+00 5.510057390335378058e-02
3.763455087324201031e+03 3.321416882734770315e+00 5.466448585974745256e-02
3.767218542411526414e+03 3.286311666289412514e+00 5.453001781165807416e-02
3.770985760953939007e+03 3.273278482861859295e+00 5.285776263042407663e-02
3.774756746714894234e+03 3.281604992970137857e+00 4.809651641415369633e-02
3.778531503461610555e+03 3.299044259501455745e+00 4.116234112581240723e-02
3.782310034965073100e+03 3.308178433811772567e+00 3.914571942521587189e-02
3.786092345000039586e+03 3.280974091781959423e+00 2.665291185104655403e-02
3.789878437345040766e+03 3.269196005956057416e+00 2.552415346861366952e-02
3.793668315782387253e+03 3.272397541635502449e+00 2.633705015109549449e-02
3.797461984098170888e+03 3.255662118210991274e+00 2.617434054438621399e-02
3.801259446082270188e+03 3.229613592710037562e+00 2.620735793628676050e-02
3.805060705528353537e+03 3.203041725432812736e+00 2.655708615420800459e-02
3.808865766233883278e+03 3.187835864942500486e+00 2.657726502348710038e-02
3.812674632000118436e+03 3.172100305074208038e+00 2.631941314565234072e-02
3.816487306632119726e+03 3.161101872877446706e+00 2.651014620507547576e-02
3.820303793938753188e+03 3.130044819628114539e+00 2.796788246212993101e-02
3.824124097732693372e+03 3.102335470837260356e+00 3.121934563271075089e-02
3.827948221830427428e+03 3.093319836349809560e+00 3.324149163656580502e-02
3.831776170052258749e+03 3.101636992734735365e+00 3.283353354107408639e-02
3.835607946222312421e+03 3.119838910019403500e+00 3.162442297088333826e-02
3.839443554168536139e+03 3.163772423135227552e+00 3.378550018533326565e-02
3.843282997722705659e+03 3.205939377132312806e+00 3.917579348836491837e-02
3.847126280720429804e+03 3.239675474624564622e+00 4.042404936671594590e-02
3.850973407001151372e+03 3.274526055535994740e+00 3.894649060454850181e-02
3.854824380408153957e+03 3.300382804408721782e+00 3.553047968597090878e-02
3.858679204788563311e+03 3.311830430024442329e+00 3.380722189057030341e-02
3.862537883993353262e+03 3.302484540793868995e+00 3.459526232245244137e-02
3.866400421877347981e+03 3.284461037215566481e+00 3.577556605858048938e-02
3.870266822299226533e+03 3.262497525485959393e+00 3.616425781734065870e-02
3.874137089121526969e+03 3.217784286098528401e+00 3.594349824875305022e-02
3.878011226210649966e+03 3.169448120346074038e+00 3.358479840875375905e-02
3.881889237436861549e+03 3.129262318631396145e+00 3.077683872075847454e-02
3.885771126674299921e+03 3.105288300796920531e+00 2.994099819792333042e-02
3.889656897800975457e+03 3.090263740151343530e+00 3.038537883727879599e-02
3.893546554698777527e+03 3.088273960145186958e+00 3.118977351342139270e-02
3.897440101253477678e+03 3.089627053506576182e+00 3.182453297275684989e-02
3.901337541354732366e+03 3.088242173952607139e+00 3.162787218426375835e-02
3.905238878896088409e+03 3.102402891063069212e+00 3.059216178797456373e-02
3.909144117774985716e+03 3.125537538952153138e+00 2.562033411216014731e-02
3.913053261892762293e+03 3.142345648770812350e+00 2.267254087891315203e-02
3.916966315154656058e+03 3.153112608933525074e+00 2.087637587087920465e-02
3.920883281469812118e+03 3.141264226300120921e+00 1.906048869979498628e-02
3.924804164751283224e+03 3.135679801507860187e+00 1.654002798881130248e-02
3.928728968916035683e+03 3.132823359525519713e+00 1.591900659876859664e-02
3.932657697884953450e+03 3.125388975017310944e+00 1.564653092655604247e-02
3.936590355582839493e+03 3.117622981008872696e+00 1.529165124898857094e-02
3.940526945938423523e+03 3.105047883990716517e+00 1.357287088789552523e-02
3.944467472884363360e+03 3.086371560988005580e+00 1.386787649814852363e-02
3.948411940357249023e+03 3.072086144809262009e+00 1.325680980137569978e-02
3.952360352297607733e+03 3.052717324795175546e+00 1.314273437944150393e-02
3.956312712649906643e+03 3.029145420783463827e+00 1.324539147786439955e-02
3.960269025362557841e+03 3.006615554435516646e+00 1.305294206568136106e-02
3.964229294387921527e+03 2.980511046070378978e+00 1.290096624641851389e-02
3.968193523682310570e+03 2.948053276624227337e+00 1.189908236999862381e-02
3.972161717205994591e+03 2.911182724831183677e+00 1.101714134557560919e-02
3.976133878923201792e+03 2.881121297885045784e+00 1.128735904231870785e-02
3.980110012802126221e+03 2.853391314152802227e+00 1.139373015515007803e-02
3.984090122814929600e+03 2.824474482512725704e+00 1.063552277319976258e-02
3.988074212937745870e+03 2.796577854179285172e+00 9.614811689756660659e-03
3.992062287150684824e+03 2.766434653258438292e+00 9.229960397322460250e-03
3.996054349437837118e+03 2.732804981305441139e+00 9.095730706302422586e-03
4.000050403787276082e+03 2.693607290086222683e+00 8.917006512922844713e-03
4.004050454191064546e+03 2.648039435269285757e+00 7.839996649050107180e-03
4.008054504645257111e+03 2.597103109900009699e+00 6.437792425943622728e-03
4.012062559149903791e+03 2.559289045697624498e+00 6.511836176156947549e-03
4.016074621709055009e+03 2.527157149068198105e+00 6.086053427151820114e-03
4.020090696330765240e+03 2.498992130163577130e+00 5.832723862932902813e-03
4.024110787027097558e+03 2.471263056549897641e+00 5.699760720727829744e-03
4.028134897814125907e+03 2.445255381023478503e+00 5.226142299884193460e-03
4.032163032711941469e+03 2.423224028599105129e+00 5.200279821739225636e-03
4.036195195744654484e+03 2.405448147182619234e+00 5.576693452338005348e-03
4.040231390940400615e+03 2.396011654439491600e+00 5.653836437932440936e-03
4.044271622331342314e+03 2.398383820609652606e+00 6.265757220612368054e-03
4.048315893953675186e+03 2.400118020973950550e+00 6.506696282539239581e-03
4.052364209847629809e+03 2.408411582882252322e+00 7.049468134292215075e-03
4.056416574057479011e+03 2.426575248863578338e+00 6.725468559563827636e-03
4.060472990631537868e+03 2.451695813425617931e+00 7.231757174915261210e-03
4.064533463622170530e+03 2.495103687155895145e+00 7.686479482734932291e-03
4.068597997085794304e+03 2.549710382935677089e+00 1.041349579279250356e-02
4.072666595082881486e+03 2.605979167607775260e+00 1.177115810660837522e-02
4.076739261677965715e+03 2.652945635577480754e+00 1.086764693687157328e-02
4.080816000939644709e+03 2.693016606749745634e+00 1.019209226419576578e-02
4.084896816940585722e+03 2.718616282216613556e+00 1.003197205491663038e-02
4.088981713757527814e+03 2.728370305606633739e+00 9.994961611779831778e-03
4.093070695471286854e+03 2.731110955297319620e+00 9.856894790746013532e-03
4.097163766166759160e+03 2.715928414766260346e+00 9.950722762043461705e-03
4.101260929932927866e+03 2.691137624934410333e+00 9.792905186808314663e-03
4.105362190862862008e+03 2.653355511175651049e+00 9.245870928973231456e-03
4.109467553053726078e+03 2.606704415166645639e+00 9.018318758926771248e-03
4.113577020606780934e+03 2.548409239128068826e+00 8.894640707205537719e-03
4.117690597627389252e+03 2.489800173997752886e+00 8.594720903466393849e-03
4.121808288225018259e+03 2.439369258519998418e+00 8.034272206432433935e-03
4.125930096513244280e+03 2.390403047729182440e+00 7.707757046546286767e-03
4.130056026609759101e+03 2.338181772860110197e+00 7.977391748684697914e-03
4.134186082636369974e+03 2.291585532094829958e+00 7.877960145276634296e-03
4.138320268719007800e+03 2.246050196996657533e+00 7.017106959691487254e-03
4.142458588987728035e+03 2.203704369064202861e+00 6.566339691097487427e-03
4.146601047576717065e+03 2.174808352220379160e+00 6.069942627116094343e-03
4.150747648624294925e+03 2.154506068027757681e+00 5.736131374207866299e-03
4.154898396272920763e+03 2.140128292496985551e+00 5.552265783552897717e-03
4.159053294669195566e+03 2.130624936867270502e+00 5.732707183120098159e-03
4.163212347963865795e+03 2.125659729991279612e+00 6.138222378425735662e-03
4.167375560311830668e+03 2.119441917334827341e+00 6.476069358600937236e-03
4.171542935872143971e+03 2.110034343813356195e+00 6.874481967165767607e-03
4.175714478808017702e+03 2.102375501422454107e+00 6.843641911505477134e-03
4.179890193286827525e+03 2.096057521838480042e+00 6.600421349652263285e-03
4.184070083480115500e+03 2.087694407154164100e+00 6.634330585968377034e-03
4.188254153563597356e+03 2.078245470684547236e+00 6.894647530574042442e-03
4.192442407717161586e+03 2.064542053300680191e+00 6.708682499924006372e-03
4.196634850124880359e+03 2.052697043603711968e+00 6.312941467731240756e-03
4.200831484975006788e+03 2.043574455536746548e+00 6.421043964464761937e-03
4.205032316459983122e+03 2.039605551378962378e+00 6.863058393753113454e-03
4.209237348776444378e+03 2.034144660851648911e+00 6.905399173266035633e-03
4.213446586125221984e+03 2.031816766461450818e+00 6.337691902496468514e-03
4.217660032711349231e+03 2.028974557486741492e+00 6.028129392383238874e-03
4.221877692744061278e+03 2.026300200874362911e+00 6.212503506940951319e-03
4.226099570436806971e+03 2.023675928912441524e+00 6.185632161219268774e-03
4.230325670007245208e+03 2.023514469414131600e+00 6.142260974121313208e-03
4.234555995677254032e+03 2.021586763561749933e+00 6.173694492196171377e-03
4.238790551672932452e+03 2.020114585455638156e+00 6.406982136386161347e-03
4.243029342224606808e+03 2.021927449537161525e+00 6.114683891811024431e-03
4.247272371566832589e+03 2.025528717078435736e+00 5.985935634017707646e-03
4.251519643938400804e+03 2.024610355320913602e+00 5.624318719353838328e-03
4.255771163582340705e+03 2.029278733151455683e+00 5.649128193762430368e-03
4.260026934745924336e+03 2.036749681674390633e+00 5.866192127255453678e-03
4.264286961680671993e+03 2.047565768280503740e+00 5.833967350675968097e-03
4.268551248642354039e+03 2.059582460177884489e+00 5.881155427718469039e-03
4.272819799890998183e+03 2.073056605605654745e+00 5.670288403633567433e-03
4.277092619690890388e+03 2.091698273388338247e+00 6.220557169138288267e-03
4.281369712310583054e+03 2.116536541497972657e+00 6.536058811218890645e-03
4.285651082022895025e+03 2.142258349922762317e+00 7.646345093103881080e-03
4.289936733104918858e+03 2.175257454656398526e+00 9.567262692316636299e-03
4.294226669838025373e+03 2.211024204730907439e+00 1.396592199315620925e-02
4.298520896507864563e+03 2.269965338656308340e+00 1.255387236890319856e-02
4.302819417404373780e+03 2.347840706984313908e+00 1.210951463300501303e-02
4.307122236821779552e+03 2.448591989289564452e+00 1.337945731801637624e-02
4.311429359058603040e+03 2.556825558054405256e+00 1.502310880524148837e-02
4.315740788417662770e+03 2.677594314547937948e+00 1.800024608703996651e-02
4.320056529206081905e+03 2.788921553184997570e+00 1.891987054678411981e-02
4.324376585735290064e+03 2.874997266705653587e+00 1.746139341535072123e-02
4.328700962321026054e+03 2.928645600177616437e+00 1.639779053071999809e-02
4.333029663283348782e+03 2.954014097110310821e+00 1.593268856626486873e-02
4.337362692946633615e+03 2.937183397786016670e+00 1.698548141879551582e-02
4.341700055639581478e+03 2.887005501624579917e+00 1.699260030855212142e-02
4.346041755695222491e+03 2.806085619135590736e+00 1.652985604317787349e-02
4.350387797450919606e+03 2.694944340864251053e+00 1.355562616844533698e-02
4.354738185248371337e+03 2.580373746167600402e+00 1.143436644122123105e-02
4.359092923433621763e+03 2.468366163888148002e+00 1.154636874784191469e-02
4.363452016357056891e+03 2.364616500786129283e+00 1.110145117745216410e-02
4.367815468373414660e+03 2.265793252580711403e+00 1.085611163431570401e-02
4.372183283841789489e+03 2.176886215985567308e+00 1.108028967708892844e-02
4.376555467125633186e+03 2.087299291837046322e+00 1.046618248278022821e-02
4.380932022592760404e+03 2.010677506329771713e+00 9.908668937957941167e-03
4.385312954615354101e+03 1.954865072386186675e+00 9.763869386135361206e-03
4.389698267569970994e+03 1.907220439778277710e+00 9.584393271506284548e-03
4.394087965837542470e+03 1.875200654258486921e+00 1.029893576733556353e-02
4.398482053803381859e+03 1.858187419997098022e+00 1.012858213303614516e-02
4.402880535857186260e+03 1.862154336934366050e+00 6.650823793996017523e-03
4.407283416393044718e+03 1.856528755188425084e+00 5.157916331041222449e-03
4.411690699809440048e+03 1.842650087002246639e+00 4.214032806083310712e-03
4.416102390509250654e+03 1.834883560724115847e+00 4.313182413756850436e-03
4.420518492899761441e+03 1.824279234114147608e+00 5.048602738265716046e-03
4.424939011392662906e+03 1.815198077468487936e+00 5.446901892196613984e-03
4.429363950404056595e+03 1.807857402338737041e+00 5.521827398065247416e-03
4.433793314354462382e+03 1.809344551909476184e+00 6.515683637790948071e-03
4.438227107668818462e+03 1.811131063659470630e+00 6.693834966471049093e-03
4.442665334776488635e+03 1.812237518200107589e+00 6.849616891099061071e-03
4.447108000111265937e+03 1.811588197313952264e+00 6.655216728722912999e-03
4.451555108111379013e+03 1.817052392845154962e+00 6.437494533581932313e-03
4.456006663219492111e+03 1.826957499029284282e+00 6.067664823476721231e-03
4.460462669882713271e+03 1.832638903464163693e+00 6.096714864720742533e-03
4.464923132552597053e+03 1.837969079417174800e+00 6.305245765870497350e-03
4.469388055685150903e+03 1.841587173624561924e+00 6.225578369028982560e-03
4.473857443740837880e+03 1.840643644579658789e+00 6.287462864596791469e-03
4.478331301184580298e+03 1.840007638344258289e+00 6.213003988941244796e-03
4.482809632485766087e+03 1.835594113573499886e+00 6.354961306395256505e-03
4.487292442118253348e+03 1.835943048808348799e+00 6.182535097263434573e-03
4.491779734560373072e+03 1.835083380993796309e+00 6.085101071648695535e-03
4.496271514294934605e+03 1.835779227897927468e+00 5.914529353326529459e-03
4.500767785809231100e+03 1.831289082538038793e+00 5.946518631171895594e-03
4.505268553595042249e+03 1.819840497626315612e+00 6.122834633028008226e-03
4.509773822148638828e+03 1.807714936192647004e+00 5.626787808340344595e-03
