# starting wavelength: 3940.405
# ending wavelength: 9358.463
# wav flux eflux
3.940526945938423523e+03 2.509715714747162707e+00 1.464634774467536094e+00
3.944467472884363360e+03 2.368372230853297289e+00 1.098648274609710818e+00
3.948411940357249023e+03 2.166684196763048575e+00 8.500499438220491255e-01
3.952360352297607733e+03 2.056901759640342497e+00 6.425509075367092926e-01
3.956312712649906643e+03 1.935284593852549362e+00 4.972317921624070380e-01
3.960269025362557841e+03 1.869214088814634245e+00 3.891492729625838920e-01
3.964229294387921527e+03 1.828189137859804969e+00 3.144190300946834160e-01
3.968193523682310570e+03 1.831670274319822767e+00 2.619849466949756289e-01
3.972161717205994591e+03 1.874748856344897074e+00 2.212084760930482508e-01
3.976133878923201792e+03 1.934795612895308992e+00 1.853899123039963459e-01
3.980110012802126221e+03 1.996324529637562240e+00 1.619376042752704858e-01
3.984090122814929600e+03 2.036138083815539179e+00 1.481944627666790526e-01
3.988074212937745870e+03 2.092066424905577371e+00 1.341553846946849093e-01
3.992062287150684824e+03 2.152902115245706405e+00 1.242081917049144835e-01
3.996054349437837118e+03 2.173636820178795226e+00 1.201252174122138389e-01
4.000050403787276082e+03 2.220974881040687521e+00 1.131579446998109140e-01
4.004050454191064546e+03 2.250540611377689793e+00 1.086287978342984906e-01
4.008054504645257111e+03 2.296404736474810360e+00 1.070827148273672119e-01
4.012062559149903791e+03 2.352753037982756368e+00 1.042973260154587689e-01
4.016074621709055009e+03 2.387990725228346545e+00 1.028361902071475292e-01
4.020090696330765240e+03 2.418595739439656889e+00 1.022416106736920433e-01
4.024110787027097558e+03 2.410715893518081465e+00 1.037948086611492210e-01
4.028134897814125907e+03 2.388556828186465086e+00 9.774185988718575580e-02
4.032163032711941469e+03 2.347077958012563581e+00 8.713432574397136920e-02
4.036195195744654484e+03 2.340424413576370100e+00 8.604902765120756025e-02
4.040231390940400615e+03 2.349647521629021796e+00 8.640088034703855002e-02
4.044271622331342314e+03 2.357532252803639761e+00 8.325577802318881449e-02
4.048315893953675186e+03 2.355813164643425939e+00 8.177225113167706227e-02
4.052364209847629809e+03 2.331702164188802051e+00 7.863296656041164623e-02
4.056416574057479011e+03 2.293863145459105635e+00 8.035904647168755355e-02
4.060472990631537868e+03 2.264184866078020164e+00 8.007707393202651014e-02
4.064533463622170530e+03 2.235848543884769946e+00 8.292257222752510981e-02
4.068597997085794304e+03 2.190851135805363281e+00 8.255352509017530038e-02
4.072666595082881486e+03 2.121649363020817081e+00 8.516287796956940881e-02
4.076739261677965715e+03 2.103514066195992793e+00 8.266444747561722817e-02
4.080816000939644709e+03 2.074225875138045794e+00 8.558348077529064069e-02
4.084896816940585722e+03 2.033813923842274995e+00 8.445325953507666628e-02
4.088981713757527814e+03 1.988327267147072197e+00 7.844001220912309724e-02
4.093070695471286854e+03 1.984554435969020592e+00 7.899337445705144345e-02
4.097163766166759160e+03 1.932716687323533078e+00 6.695765119985364056e-02
4.101260929932927866e+03 1.917744205550669268e+00 6.937961473896360476e-02
4.105362190862862008e+03 1.925672302110464251e+00 6.982406812882230307e-02
4.109467553053726078e+03 1.969003132896721908e+00 7.179595202369715157e-02
4.113577020606780934e+03 2.008732367009082864e+00 7.003107017204852902e-02
4.117690597627389252e+03 2.027418627515560345e+00 7.229665760001750818e-02
4.121808288225018259e+03 2.034066430410271575e+00 6.985284439881102314e-02
4.125930096513244280e+03 2.051350888215516477e+00 6.950288015190971003e-02
4.130056026609759101e+03 2.088497325563325013e+00 6.784345651738835081e-02
4.134186082636369974e+03 2.085881821468546615e+00 6.818484693118154194e-02
4.138320268719007800e+03 2.110163923983702006e+00 6.861076799155062245e-02
4.142458588987728035e+03 2.113440824307843968e+00 6.866627110242405629e-02
4.146601047576717065e+03 2.145623760022414395e+00 6.430375977902116902e-02
4.150747648624294925e+03 2.102325996170680611e+00 6.512873590955754743e-02
4.154898396272920763e+03 2.077195975245684778e+00 6.375442361518236789e-02
4.159053294669195566e+03 2.069112405513748865e+00 6.370514137150361245e-02
4.163212347963865795e+03 2.009174144856861854e+00 5.254606944415169539e-02
4.167375560311830668e+03 1.992750671529827766e+00 5.189886146177598303e-02
4.171542935872143971e+03 2.030156709477938470e+00 5.109889569677995846e-02
4.175714478808017702e+03 2.042755587600026956e+00 5.294946645544770791e-02
4.179890193286827525e+03 2.049274299356422357e+00 5.500267617623316035e-02
4.184070083480115500e+03 2.058419234584509372e+00 5.469907471060393711e-02
4.188254153563597356e+03 2.063061566024144255e+00 5.428417386709558090e-02
4.192442407717161586e+03 2.110510169741937059e+00 5.381804779034019687e-02
4.196634850124880359e+03 2.131780471009818267e+00 5.285139818899800557e-02
4.200831484975006788e+03 2.138380814706628996e+00 5.277473180960087773e-02
4.205032316459983122e+03 2.136744421491526769e+00 5.238502424223311776e-02
4.209237348776444378e+03 2.130982612795953468e+00 5.381321546695602004e-02
4.213446586125221984e+03 2.131375669474340206e+00 5.418872037868742442e-02
4.217660032711349231e+03 2.110185270269044455e+00 5.778306056169461163e-02
4.221877692744061278e+03 2.103721072591809182e+00 6.025887180480189731e-02
4.226099570436806971e+03 2.078960198433837725e+00 5.713636611872269233e-02
4.230325670007245208e+03 2.054633739924211167e+00 5.732059483027340807e-02
4.234555995677254032e+03 2.041123112217722912e+00 5.732835500024818093e-02
4.238790551672932452e+03 2.006266331698604688e+00 5.814714403971266848e-02
4.243029342224606808e+03 1.981940052218903459e+00 5.447518832249946541e-02
4.247272371566832589e+03 1.988973147093862082e+00 5.240719878516848784e-02
4.251519643938400804e+03 2.006418379009117015e+00 5.413648207795974943e-02
4.255771163582340705e+03 2.045848970083090634e+00 5.972421002589690248e-02
4.260026934745924336e+03 2.068728968719304007e+00 6.164915394828306139e-02
4.264286961680671993e+03 2.096086837128744218e+00 6.082639323386507257e-02
4.268551248642354039e+03 2.131562086442055026e+00 5.261552435577662723e-02
4.272819799890998183e+03 2.137621073323680232e+00 5.232909159969933999e-02
4.277092619690890388e+03 2.137120853109476304e+00 5.320519826223310544e-02
4.281369712310583054e+03 2.119339240018034864e+00 5.178304474396924761e-02
4.285651082022895025e+03 2.109465659601342136e+00 5.414211393059080446e-02
4.289936733104918858e+03 2.089378834901585602e+00 5.740214189374139020e-02
4.294226669838025373e+03 2.101181826068625469e+00 6.412358421245112350e-02
4.298520896507864563e+03 2.076575802023368222e+00 6.423623777238972321e-02
4.302819417404373780e+03 2.034642195865854930e+00 6.096414238875917657e-02
4.307122236821779552e+03 1.984673906921182507e+00 6.066598270339358667e-02
4.311429359058603040e+03 1.947128372373715610e+00 6.149318598638652683e-02
4.315740788417662770e+03 1.870508764370000909e+00 6.699574662975245343e-02
4.320056529206081905e+03 1.810553205621839856e+00 6.756973343259636833e-02
4.324376585735290064e+03 1.759833184485392721e+00 6.563303616066609725e-02
4.328700962321026054e+03 1.708317434553288994e+00 7.366903419780995721e-02
4.333029663283348782e+03 1.675926904216368030e+00 7.289163869566815668e-02
4.337362692946633615e+03 1.696528273301638468e+00 7.315695278759679065e-02
4.341700055639581478e+03 1.712710106222493645e+00 7.365474976944401397e-02
4.346041755695222491e+03 1.762791124474154092e+00 8.548884895832981057e-02
4.350387797450919606e+03 1.775351416099557600e+00 8.565077860244894870e-02
4.354738185248371337e+03 1.759418249951415270e+00 9.173601054994963422e-02
4.359092923433621763e+03 1.794397935035004554e+00 9.569781329682405802e-02
4.363452016357056891e+03 1.848439312725757455e+00 9.220091655531879871e-02
4.367815468373414660e+03 1.923040188053322774e+00 9.331309053279922272e-02
4.372183283841789489e+03 1.939485044977455219e+00 9.029882781769245359e-02
4.376555467125633186e+03 1.968278614347389599e+00 9.001780359269466458e-02
4.380932022592760404e+03 1.996212836257288403e+00 9.517341413627941615e-02
4.385312954615354101e+03 1.991574143181741752e+00 9.266649666781080763e-02
4.389698267569970994e+03 1.962354004427829812e+00 9.029400571812477849e-02
4.394087965837542470e+03 1.944625875706164519e+00 8.559718222791901088e-02
4.398482053803381859e+03 1.959841536432799014e+00 8.159760611823597964e-02
4.402880535857186260e+03 1.968682474549659167e+00 8.098241341744588651e-02
4.407283416393044718e+03 1.979208594818966382e+00 8.554253177499553107e-02
4.411690699809440048e+03 2.001713876257331215e+00 8.360201878136530595e-02
4.416102390509250654e+03 1.994530815180973082e+00 8.322634106566330348e-02
4.420518492899761441e+03 2.002636778220440394e+00 8.253875831767759630e-02
4.424939011392662906e+03 1.989614737404334477e+00 8.389842306663142235e-02
4.429363950404056595e+03 1.957345662461495550e+00 6.849118395402810366e-02
4.433793314354462382e+03 1.954656781634801943e+00 7.251740686277347026e-02
4.438227107668818462e+03 2.000754954914174988e+00 8.750285886947523073e-02
4.442665334776488635e+03 2.017288377699205881e+00 7.293325125063920833e-02
4.447108000111265937e+03 1.987050795108217471e+00 7.740983666201184388e-02
4.451555108111379013e+03 1.946815593087426466e+00 6.800528234535087313e-02
4.456006663219492111e+03 1.917100655612681059e+00 6.717115025386351246e-02
4.460462669882713271e+03 1.866206399410305750e+00 7.323214091403271175e-02
4.464923132552597053e+03 1.818426157489289041e+00 7.041286410394266559e-02
4.469388055685150903e+03 1.802045729058752599e+00 7.098045233941961685e-02
4.473857443740837880e+03 1.776207076389743733e+00 7.135107849541376390e-02
4.478331301184580298e+03 1.775650235953528888e+00 7.003170544808752507e-02
4.482809632485766087e+03 1.810768566266747426e+00 6.894534816164309132e-02
4.487292442118253348e+03 1.833556354935886645e+00 6.431865402581891933e-02
4.491779734560373072e+03 1.871372706721317947e+00 6.432899021769693249e-02
4.496271514294934605e+03 1.923903034282016700e+00 6.769108863307839175e-02
4.500767785809231100e+03 1.989724617372200521e+00 6.507846791497816363e-02
4.505268553595042249e+03 2.038826818903843652e+00 6.435278719403282610e-02
4.509773822148638828e+03 2.073069420004605590e+00 6.445381274753957113e-02
4.514283595970789065e+03 2.052592733821200888e+00 6.263257081366058188e-02
4.518797879566761367e+03 2.044356073629816528e+00 6.267666668149357578e-02
4.523316677446328868e+03 2.084308211016892454e+00 5.889237636122866132e-02
4.527839994123776705e+03 2.016989644105272816e+00 5.786271916186357805e-02
4.532367834117902021e+03 1.963634147049116319e+00 5.891922150844378786e-02
4.536900201952022144e+03 1.929761602845632140e+00 5.801093702974797345e-02
4.541437102153975502e+03 1.916399846547826691e+00 5.494318263505542504e-02
4.545978539256130716e+03 1.877836529278657629e+00 5.734801861347273155e-02
4.550524517795388419e+03 1.846696139502361111e+00 5.052796165720494642e-02
4.555075042313184895e+03 1.863916393195213628e+00 4.999209130679885260e-02
4.559630117355500261e+03 1.868865887531833581e+00 5.142679677652161468e-02
4.564189747472856652e+03 1.926395377642287965e+00 5.394655639701248506e-02
4.568753937220330954e+03 1.981599443990718745e+00 5.720665573739937282e-02
4.573322691157552981e+03 1.987616090656487255e+00 5.783307111497357905e-02
4.577896013848711846e+03 1.988510604168769236e+00 5.861925233818519182e-02
4.582473909862562323e+03 1.978342695917885807e+00 5.990982294971546745e-02
4.587056383772426670e+03 1.973520488880890600e+00 5.615571070335689807e-02
4.591643440156200086e+03 1.961655450289791380e+00 5.605379798965706012e-02
4.596235083596357981e+03 1.926474664061501363e+00 5.850524909013785774e-02
4.600831318679955984e+03 1.872082885289368281e+00 5.341143632774447009e-02
4.605432149998637215e+03 1.865716402808151875e+00 5.805826835824659526e-02
4.610037582148637739e+03 1.874660630920697235e+00 5.218420422413803245e-02
4.614647619730787483e+03 1.841701006602068036e+00 5.105719837111037662e-02
4.619262267350520233e+03 1.845327202016671997e+00 5.297897792214936036e-02
4.623881529617872729e+03 1.867523044423935463e+00 4.397815628382141517e-02
4.628505411147491941e+03 1.872709424714068760e+00 4.402866615584643400e-02
4.633133916558640522e+03 1.877401202972970307e+00 4.345517185266401655e-02
4.637767050475200449e+03 1.869147938707433010e+00 4.570795818827980833e-02
4.642404817525677572e+03 1.844996399548640698e+00 4.627779681815086255e-02
4.647047222343205249e+03 1.862567901831009509e+00 4.745755264382019167e-02
4.651694269565549803e+03 1.854022947147595524e+00 4.672292050716985584e-02
4.656345963835116891e+03 1.879278070237597964e+00 4.477303208143831870e-02
4.661002309798953320e+03 1.874958377463626480e+00 4.356554609281622359e-02
4.665663312108753416e+03 1.868497430313888596e+00 4.507267760616623375e-02
4.670328975420864481e+03 1.912212429799071467e+00 6.093853113791380949e-02
4.674999304396286789e+03 1.931518110817733946e+00 5.895730408853525062e-02
4.679674303700684504e+03 1.966564720337152128e+00 6.009204737478620467e-02
4.684353978004386590e+03 1.937060000440666396e+00 6.224038835388943230e-02
4.689038331982392265e+03 1.895433865899754267e+00 6.657551653519810930e-02
4.693727370314376458e+03 1.896400382998596257e+00 6.424723801927155475e-02
4.698421097684692540e+03 1.872306832515182595e+00 6.329740111878250086e-02
4.703119518782378691e+03 1.830850559185980497e+00 6.049746020522320938e-02
4.707822638301162442e+03 1.844376805695363775e+00 6.570218770746681647e-02
4.712530460939465229e+03 1.811608429291462707e+00 6.678620108764560248e-02
4.717242991400406027e+03 1.804550565556139574e+00 6.636642756383746844e-02
4.721960234391808626e+03 1.837615549502887857e+00 6.666584221343442584e-02
4.726682194626201635e+03 1.852304615395480747e+00 6.641180596288112636e-02
4.731408876820829391e+03 1.896749990259283924e+00 6.658899709183363491e-02
4.736140285697651962e+03 1.949105794017339521e+00 6.215167223069943681e-02
4.740876425983350600e+03 1.954597800426640442e+00 6.219357310208681322e-02
4.745617302409335934e+03 1.958400381794771716e+00 6.091091259621735782e-02
4.750362919711747054e+03 1.925010638018039621e+00 6.071092021255249799e-02
4.755113282631459697e+03 1.869961678694464613e+00 5.656684800985261469e-02
4.759868395914093526e+03 1.841837366014490440e+00 5.766510726386889218e-02
4.764628264310008490e+03 1.821918564888368897e+00 5.652501098115877975e-02
4.769392892574320285e+03 1.817315531091930891e+00 5.750547870052705873e-02
4.774162285466896719e+03 1.794837324321295613e+00 5.832791258943108986e-02
4.778936447752364984e+03 1.738286328163057615e+00 6.008676433944002554e-02
4.783715384200118933e+03 1.745816662668611130e+00 6.435802567375924210e-02
4.788499099584319993e+03 1.730985182405732514e+00 6.402264015726349955e-02
4.793287598683906253e+03 1.730032336789357084e+00 6.458058996609841729e-02
4.798080886282591564e+03 1.739496972783180828e+00 5.540853150780265801e-02
4.802878967168876443e+03 1.707139641249856732e+00 5.377025309724359908e-02
4.807681846136046261e+03 1.674339783005663662e+00 5.435211716906391405e-02
4.812489527982183972e+03 1.668185565686342686e+00 5.794027219654296346e-02
4.817302017510168298e+03 1.619070229055668886e+00 5.498506173570041206e-02
4.822119319527679181e+03 1.583927034669011968e+00 6.191455059007345413e-02
4.826941438847208701e+03 1.579546905092279019e+00 1.038706120735069655e-01
4.831768380286057436e+03 1.591729281971550281e+00 1.039337304347379420e-01
4.836600148666345376e+03 1.681565555724401584e+00 8.243611817032134303e-02
4.841436748815013743e+03 1.576183533544278204e+00 8.407113441901307993e-02
4.846278185563829538e+03 1.582901471425287809e+00 7.458503890610522491e-02
4.851124463749395545e+03 1.687839153878055720e+00 1.201014233482661231e-01
4.855975588213146693e+03 1.661811827149788146e+00 1.196277834823970265e-01
4.860831563801360971e+03 1.640652906152124890e+00 1.372455603280687275e-01
4.865692395365163975e+03 1.638585287318202521e+00 1.326775950313628938e-01
4.870558087760530725e+03 1.668003080057297582e+00 1.319157743648506631e-01
4.875428645848292945e+03 1.699936041764212424e+00 1.511486519488641767e-01
4.880304074494142696e+03 1.735685200590475485e+00 1.224855131179688056e-01
4.885184378568638749e+03 1.676491372363003940e+00 1.333912725678096378e-01
4.890069562947209306e+03 1.529031516450672923e+00 6.637490465328836631e-02
4.894959632510157462e+03 1.546640455355622779e+00 7.639836612007595840e-02
4.899854592142669389e+03 1.619292644203342180e+00 5.568241576867800913e-02
4.904754446734813428e+03 1.655381663735983278e+00 5.534163991060452037e-02
4.909659201181550088e+03 1.652632819443045742e+00 5.549461524934076045e-02
4.914568860382732964e+03 1.588065145850248605e+00 3.879350195586551975e-02
4.919483429243117826e+03 1.628468660364432274e+00 3.443504156897909257e-02
4.924402912672362618e+03 1.707582980895867353e+00 4.448758679033960189e-02
4.929327315585036558e+03 1.703069033242646135e+00 4.342048089762512442e-02
4.934256642900622865e+03 1.696869231926025678e+00 4.288320617177745347e-02
4.939190899543525120e+03 1.682930469771211301e+00 4.169353288010733960e-02
4.944130090443070912e+03 1.693257480751416688e+00 3.705653610167566198e-02
4.949074220533515472e+03 1.676758229997688199e+00 3.650216303725360711e-02
4.954023294754050767e+03 1.644176679226992510e+00 3.955988145808787826e-02
4.958977318048806410e+03 1.632448499730730251e+00 4.063858328600317843e-02
4.963936295366856939e+03 1.616590067197948510e+00 4.096244708479452462e-02
4.968900231662225451e+03 1.591154546141243298e+00 4.036224394703198659e-02
4.973869131893889062e+03 1.574402965689178036e+00 4.752659432189865890e-02
4.978843001025784361e+03 1.608098365336575242e+00 4.918780304422038646e-02
4.983821844026811959e+03 1.619791059256630250e+00 4.915963218427257114e-02
4.988805665870840130e+03 1.628272846936838603e+00 4.808829133370837172e-02
4.993794471536712990e+03 1.645833888259916611e+00 4.617412981746234907e-02
4.998788266008251412e+03 1.659540748636756158e+00 4.570405025105150898e-02
5.003787054274261209e+03 1.681416765225789867e+00 4.820653780531510696e-02
5.008790841328536771e+03 1.698357475714910692e+00 4.594485576025359591e-02
5.013799632169867436e+03 1.710971560061741226e+00 4.246634932333596263e-02
5.018813431802038394e+03 1.676611072804068625e+00 4.372823541628787641e-02
5.023832245233842514e+03 1.675250847445437508e+00 4.509711493007395600e-02
5.028856077479077612e+03 1.647224077364761952e+00 4.534493628592076858e-02
5.033884933556558281e+03 1.614752503417488771e+00 4.564503073520693316e-02
5.038918818490116792e+03 1.594410150223579237e+00 4.547006988885471390e-02
5.043957737308608557e+03 1.571306525401448662e+00 4.534957995153093141e-02
5.049001695045918495e+03 1.539732490140503174e+00 4.351308319704194627e-02
5.054050696740966487e+03 1.563779382049916844e+00 4.252844653625111743e-02
5.059104747437709193e+03 1.578636783741565353e+00 4.187021770511559909e-02
5.064163852185148244e+03 1.582700302409087101e+00 4.262520926800177773e-02
5.069228016037335692e+03 1.609858437244804374e+00 5.283254620615541325e-02
5.074297244053374015e+03 1.656198320811619107e+00 5.108948550337694822e-02
5.079371541297429758e+03 1.639519609375645226e+00 5.323993076379690548e-02
5.084450912838728073e+03 1.629365607734431620e+00 5.289348071724955802e-02
5.089535363751569093e+03 1.603709947284061244e+00 5.701569802876477883e-02
5.094624899115322478e+03 1.570013791450257656e+00 5.722747502044936430e-02
5.099719524014439230e+03 1.535006714454576038e+00 5.949825761133765989e-02
5.104819243538455339e+03 1.519307854441335870e+00 5.693806771346369977e-02
5.109924062781995417e+03 1.527109716354076108e+00 5.873581099968860908e-02
5.115033986844779065e+03 1.525702906868323661e+00 5.763559329738445619e-02
5.120149020831625421e+03 1.565952025073244158e+00 5.658549793013219892e-02
5.125269169852458617e+03 1.590111254246902250e+00 5.780108952692698115e-02
5.130394439022313236e+03 1.590545318125905494e+00 5.442987138785999185e-02
