# starting wavelength: 3692.308
# ending wavelength: 7484.367
# wav flux eflux
3.692659519139885560e+03 2.192012546901914494e+00 2.287301165678217729e-01
3.696352178659026777e+03 2.192971629647154863e+00 1.650006356566400545e-01
3.700048530837686940e+03 2.193772427222972610e+00 1.224282757595928639e-01
3.703748579368525952e+03 2.183724174265597728e+00 9.347026903597376035e-02
3.707452327947895355e+03 2.181784929679747354e+00 7.665636616275911530e-02
3.711159780275844696e+03 2.162011405506722994e+00 6.049280926835991917e-02
3.714870940056121526e+03 2.137108711785576265e+00 4.855058391321347144e-02
3.718585810996179134e+03 2.109020126040704213e+00 4.018224629523252378e-02
3.722304396807176545e+03 2.080680721299871916e+00 3.391260586684151368e-02
3.726026701203984885e+03 2.045223819200721938e+00 3.055978045947636834e-02
3.729752727905190113e+03 2.014350270049188207e+00 2.660764552369886127e-02
3.733482480633096657e+03 2.000435766832175943e+00 2.538088762116273711e-02
3.737215963113731050e+03 1.983164108259518166e+00 2.316544162996635875e-02
3.740953179076846027e+03 1.972220745378888695e+00 2.182532495131951286e-02
3.744694132255923705e+03 1.962854204489036469e+00 2.067903884884845361e-02
3.748438826388181042e+03 1.953393312564928541e+00 1.968363115559726775e-02
3.752187265214570289e+03 1.941995112145453728e+00 1.911519149185795033e-02
3.755939452479786269e+03 1.942871534746634321e+00 1.884604495482214426e-02
3.759695391932267285e+03 1.940671073728325036e+00 1.825174444231157309e-02
3.763455087324201031e+03 1.948612564559178972e+00 1.833240350629130114e-02
3.767218542411526414e+03 1.954182073365004602e+00 1.831939960448969798e-02
3.770985760953939007e+03 1.967973329158415829e+00 1.801457799033968563e-02
3.774756746714894234e+03 1.982243014925108682e+00 1.723197831461750068e-02
3.778531503461610555e+03 1.994835255028199583e+00 1.680470390172319681e-02
3.782310034965073100e+03 2.003210513386125768e+00 1.670113310028548126e-02
3.786092345000039586e+03 2.009259029229934601e+00 1.621166105528435569e-02
3.789878437345040766e+03 2.017346537906995696e+00 1.630051847891519218e-02
3.793668315782387253e+03 2.015753756497467908e+00 1.663748719650274405e-02
3.797461984098170888e+03 2.024000798505029675e+00 1.681290155444439480e-02
3.801259446082270188e+03 2.026281959338459338e+00 1.691223432747342506e-02
3.805060705528353537e+03 2.035354266496997688e+00 1.727754082205073052e-02
3.808865766233883278e+03 2.034323931273965602e+00 1.702546884898539781e-02
3.812674632000118436e+03 2.032589307557701730e+00 1.736564901656852122e-02
3.816487306632119726e+03 2.031627932012898263e+00 1.735250155559980162e-02
3.820303793938753188e+03 2.032009225155157139e+00 1.764585866727068700e-02
3.824124097732693372e+03 2.039079392815377201e+00 1.750465169967856116e-02
3.827948221830427428e+03 2.057989381153059405e+00 1.789741240294023469e-02
3.831776170052258749e+03 2.068686499821215552e+00 1.832348846048305335e-02
3.835607946222312421e+03 2.082354311196933150e+00 1.847144847526746916e-02
3.839443554168536139e+03 2.078001883878446421e+00 1.859647766461213284e-02
3.843282997722705659e+03 2.081219609095346534e+00 1.841539158855103400e-02
3.847126280720429804e+03 2.080755893985016147e+00 1.830856107531959528e-02
3.850973407001151372e+03 2.078143061546942061e+00 1.811702259979305549e-02
3.854824380408153957e+03 2.063612311185811787e+00 1.770205761267882455e-02
3.858679204788563311e+03 2.065521037743767607e+00 1.668433814343846938e-02
3.862537883993353262e+03 2.058735897905436207e+00 1.644220251209766934e-02
3.866400421877347981e+03 2.045777524523004764e+00 1.717275638950632038e-02
3.870266822299226533e+03 2.025007757054783308e+00 1.784625031904587406e-02
3.874137089121526969e+03 2.009474189362978169e+00 1.749176800568411766e-02
3.878011226210649966e+03 2.003176401490669001e+00 1.687200848912198681e-02
3.881889237436861549e+03 1.994100690130469866e+00 1.597146900334784139e-02
3.885771126674299921e+03 1.995812321570425985e+00 1.629928667739057729e-02
3.889656897800975457e+03 2.012582991510562636e+00 1.772824755532356744e-02
3.893546554698777527e+03 2.026855212522133076e+00 1.771975801588296026e-02
3.897440101253477678e+03 2.031577426766108196e+00 1.781817663035602586e-02
3.901337541354732366e+03 2.041290173573163003e+00 1.785929283889903241e-02
3.905238878896088409e+03 2.044757978846416524e+00 1.847593407121941866e-02
3.909144117774985716e+03 2.040673698362185817e+00 1.912401356991926676e-02
3.913053261892762293e+03 2.054695589826249336e+00 1.936037215447056203e-02
3.916966315154656058e+03 2.077331057519724578e+00 2.016768359404565863e-02
3.920883281469812118e+03 2.102472158541468517e+00 1.980323119626543893e-02
3.924804164751283224e+03 2.108101902450010723e+00 1.967522101906660908e-02
3.928728968916035683e+03 2.106378753015760719e+00 1.993738627112070366e-02
3.932657697884953450e+03 2.091979327484869255e+00 1.990787613080146484e-02
3.936590355582839493e+03 2.079361969829552237e+00 2.089190078854456442e-02
3.940526945938423523e+03 2.070357844318273077e+00 2.109669416147476328e-02
3.944467472884363360e+03 2.069613011461314045e+00 2.101759235731923137e-02
3.948411940357249023e+03 2.071325211524988941e+00 2.088165328510601174e-02
3.952360352297607733e+03 2.066337233765617398e+00 2.057960005115727631e-02
3.956312712649906643e+03 2.070147431872185528e+00 2.051961298557535701e-02
3.960269025362557841e+03 2.081411221881674489e+00 1.998468949888084281e-02
3.964229294387921527e+03 2.088202640866860804e+00 2.001796656635911401e-02
3.968193523682310570e+03 2.092933311731893120e+00 2.021583426113751289e-02
3.972161717205994591e+03 2.091310255179073430e+00 1.973178954761594175e-02
3.976133878923201792e+03 2.098314483589381663e+00 1.992338661563003432e-02
3.980110012802126221e+03 2.096776137422195152e+00 2.016659157170675939e-02
3.984090122814929600e+03 2.109891074709256742e+00 2.046667540115863770e-02
3.988074212937745870e+03 2.112784919944336259e+00 1.995333369623705083e-02
3.992062287150684824e+03 2.126889737458758756e+00 1.797069136466594372e-02
3.996054349437837118e+03 2.123773936432408416e+00 1.784732041806208827e-02
4.000050403787276082e+03 2.113219587221685902e+00 1.843859022355898158e-02
4.004050454191064546e+03 2.086315861002563832e+00 1.610710150133410831e-02
4.008054504645257111e+03 2.064111411547508990e+00 1.493391635842089907e-02
4.012062559149903791e+03 2.044957966725706289e+00 1.498467580386645369e-02
4.016074621709055009e+03 2.028230533629636234e+00 1.485747070168479469e-02
4.020090696330765240e+03 2.023048600058880542e+00 1.483997046420953460e-02
4.024110787027097558e+03 2.019230161639281818e+00 1.480643854097764972e-02
4.028134897814125907e+03 2.006353132633394765e+00 1.409668220472145954e-02
4.032163032711941469e+03 1.994484213925550753e+00 1.346888623215102346e-02
4.036195195744654484e+03 1.979143347672495779e+00 1.366781872319443140e-02
4.040231390940400615e+03 1.990459271901064753e+00 1.408287237830622637e-02
4.044271622331342314e+03 1.992302353283125438e+00 1.394695050587219272e-02
4.048315893953675186e+03 1.993477485150851214e+00 1.388945479588191839e-02
4.052364209847629809e+03 1.977889320111488214e+00 1.451888744999484809e-02
4.056416574057479011e+03 1.964120611702965924e+00 1.432399806594001485e-02
4.060472990631537868e+03 1.960591994343907185e+00 1.406428343262162116e-02
4.064533463622170530e+03 1.950546181842261584e+00 1.415611647242678503e-02
4.068597997085794304e+03 1.929315023202663681e+00 1.389071853627926560e-02
4.072666595082881486e+03 1.912972468449437802e+00 1.394314381809445141e-02
4.076739261677965715e+03 1.902950748659632207e+00 1.416208089680484963e-02
4.080816000939644709e+03 1.891212341194136615e+00 1.433157885964698314e-02
4.084896816940585722e+03 1.897663090195545799e+00 1.431299618517571821e-02
4.088981713757527814e+03 1.915104812680304525e+00 1.469056137734110756e-02
4.093070695471286854e+03 1.945506918646239924e+00 1.488050846305069737e-02
4.097163766166759160e+03 1.964899773045241105e+00 1.427074969527037523e-02
4.101260929932927866e+03 1.989220068058593416e+00 1.454529562688064263e-02
4.105362190862862008e+03 2.014739931625741054e+00 1.319588599151502728e-02
4.109467553053726078e+03 2.024145080325512769e+00 1.326586488604507459e-02
4.113577020606780934e+03 2.025897902339234946e+00 1.316146652607946138e-02
4.117690597627389252e+03 2.008699766904862294e+00 1.358464711357650241e-02
4.121808288225018259e+03 1.997322456990009432e+00 1.380927815985449024e-02
4.125930096513244280e+03 1.987580113030462670e+00 1.359019274498869494e-02
4.130056026609759101e+03 1.971069470385590661e+00 1.246261208289924094e-02
4.134186082636369974e+03 1.956473314154370424e+00 1.184290602332333658e-02
4.138320268719007800e+03 1.950053190975905792e+00 1.159287924693423212e-02
4.142458588987728035e+03 1.948882188713277896e+00 1.112231837305385947e-02
4.146601047576717065e+03 1.948365727463840624e+00 1.157699992233341725e-02
4.150747648624294925e+03 1.942643008396909954e+00 1.073032962272403579e-02
4.154898396272920763e+03 1.928178681202685985e+00 1.081009389188710389e-02
4.159053294669195566e+03 1.911139101750017444e+00 1.003316389697574140e-02
4.163212347963865795e+03 1.892657166062996943e+00 1.083967302220649291e-02
4.167375560311830668e+03 1.879016056867676587e+00 1.118287740068096489e-02
4.171542935872143971e+03 1.862898791172155732e+00 1.121073746718219757e-02
4.175714478808017702e+03 1.847432686282584502e+00 1.044927259002797169e-02
4.179890193286827525e+03 1.837118049971897538e+00 1.066754047342386748e-02
4.184070083480115500e+03 1.831078625371223678e+00 9.742188021418841243e-03
4.188254153563597356e+03 1.817688027942509832e+00 1.033767689051333372e-02
4.192442407717161586e+03 1.822645254719381214e+00 1.042521843178947222e-02
4.196634850124880359e+03 1.820573049001382948e+00 1.084653744482647758e-02
4.200831484975006788e+03 1.808408572043584517e+00 1.101706324882917830e-02
4.205032316459983122e+03 1.807668640153776485e+00 1.090300418441423821e-02
4.209237348776444378e+03 1.798567153287002451e+00 1.073297895320249676e-02
4.213446586125221984e+03 1.793650764084937510e+00 1.054845119458338795e-02
4.217660032711349231e+03 1.781708593737495239e+00 1.063617077932997070e-02
4.221877692744061278e+03 1.768287772967162663e+00 1.071468507343568792e-02
4.226099570436806971e+03 1.759831196118070151e+00 1.084161037185007830e-02
4.230325670007245208e+03 1.748334376244909727e+00 1.095173879060246276e-02
4.234555995677254032e+03 1.741381375211049631e+00 1.118936018038843051e-02
4.238790551672932452e+03 1.726014288853317202e+00 1.157837753054928066e-02
4.243029342224606808e+03 1.713597733650719990e+00 1.140058725867578414e-02
4.247272371566832589e+03 1.712977986685542797e+00 1.106523477183265526e-02
4.251519643938400804e+03 1.710030497385823578e+00 1.061662244234417261e-02
4.255771163582340705e+03 1.719414502075837570e+00 1.023445472257792158e-02
4.260026934745924336e+03 1.728240653640037205e+00 1.021536251017044102e-02
4.264286961680671993e+03 1.737007813470800466e+00 1.036353817728699091e-02
4.268551248642354039e+03 1.741000972362420018e+00 1.005863919237586120e-02
4.272819799890998183e+03 1.756787729867057557e+00 9.404907520458838030e-03
4.277092619690890388e+03 1.766164512870153525e+00 9.221841913158536352e-03
4.281369712310583054e+03 1.764667456421183500e+00 9.187408692396818038e-03
4.285651082022895025e+03 1.764887803598745641e+00 9.197559031209435326e-03
4.289936733104918858e+03 1.764458942102386851e+00 9.517590068949728990e-03
4.294226669838025373e+03 1.761571723211765361e+00 1.013196918868313097e-02
4.298520896507864563e+03 1.772113924803466967e+00 1.355528251496186144e-02
4.302819417404373780e+03 1.762612787112838753e+00 1.400514015650799506e-02
4.307122236821779552e+03 1.746512507189013519e+00 1.558686285810002153e-02
4.311429359058603040e+03 1.741906018055248140e+00 1.520664561117641977e-02
4.315740788417662770e+03 1.752316491447142743e+00 1.491455880463562686e-02
4.320056529206081905e+03 1.763484589118856860e+00 1.468525186053449769e-02
4.324376585735290064e+03 1.775892340275980974e+00 1.433123378937934018e-02
4.328700962321026054e+03 1.798903752265197165e+00 1.466901470134357108e-02
4.333029663283348782e+03 1.824735786638938206e+00 1.506962010449241704e-02
4.337362692946633615e+03 1.843131594914491966e+00 1.471178627115166636e-02
4.341700055639581478e+03 1.856478689844949015e+00 1.467307171102647315e-02
4.346041755695222491e+03 1.865589825833225301e+00 1.436359168395597366e-02
4.350387797450919606e+03 1.866175526731663314e+00 1.424508999093516623e-02
4.354738185248371337e+03 1.863575190381050239e+00 1.415450971064264457e-02
4.359092923433621763e+03 1.850874146174083856e+00 1.429757509654247354e-02
4.363452016357056891e+03 1.830578234929587600e+00 1.417428583274529807e-02
4.367815468373414660e+03 1.801301589468689013e+00 1.329874563951704419e-02
4.372183283841789489e+03 1.781328127729230770e+00 1.338834945122209345e-02
4.376555467125633186e+03 1.757101109360116320e+00 1.314533687412553463e-02
4.380932022592760404e+03 1.754713585531139097e+00 8.466992079430048918e-03
4.385312954615354101e+03 1.740727756269383031e+00 8.227528576872599614e-03
4.389698267569970994e+03 1.728814774384394681e+00 7.066694369957183045e-03
4.394087965837542470e+03 1.727564059425702014e+00 7.642865237379717000e-03
4.398482053803381859e+03 1.724349059413439855e+00 7.844374012123086701e-03
4.402880535857186260e+03 1.727220902119236845e+00 7.753242163776791207e-03
4.407283416393044718e+03 1.732153410923157777e+00 7.688182427252584009e-03
4.411690699809440048e+03 1.746038468516089459e+00 8.042546490544965135e-03
4.416102390509250654e+03 1.761357399112560618e+00 8.170585980196867423e-03
4.420518492899761441e+03 1.768001143252749818e+00 8.088950831769029653e-03
4.424939011392662906e+03 1.777440362778656135e+00 9.214044292170521511e-03
4.429363950404056595e+03 1.773764419059524755e+00 9.387097005786210549e-03
4.433793314354462382e+03 1.762826023498679673e+00 9.573474326205949625e-03
4.438227107668818462e+03 1.749229486872623252e+00 9.714890788611034445e-03
4.442665334776488635e+03 1.730113162519977488e+00 9.857447094478763439e-03
4.447108000111265937e+03 1.712134785191032904e+00 9.670038175391689611e-03
4.451555108111379013e+03 1.692866343374753724e+00 9.550659039983434503e-03
4.456006663219492111e+03 1.683889161029145543e+00 9.536840992225870464e-03
4.460462669882713271e+03 1.669510637404564291e+00 9.866851087388491676e-03
4.464923132552597053e+03 1.665892976311604823e+00 9.905578891395870264e-03
4.469388055685150903e+03 1.664654408841526934e+00 1.016174501911199131e-02
4.473857443740837880e+03 1.672033116049619794e+00 9.926956673820992727e-03
4.478331301184580298e+03 1.689572331804483518e+00 9.114862880174746940e-03
4.482809632485766087e+03 1.693236135043628243e+00 9.132750269188597003e-03
4.487292442118253348e+03 1.698380533682677385e+00 9.407753159910959076e-03
4.491779734560373072e+03 1.701937415401355125e+00 9.438140664438113281e-03
4.496271514294934605e+03 1.704021813630641091e+00 9.705870368059308848e-03
4.500767785809231100e+03 1.704625489613551759e+00 9.959275305152587299e-03
4.505268553595042249e+03 1.712750857282529626e+00 1.033255681890767747e-02
4.509773822148638828e+03 1.720430401506048090e+00 1.027433966568211919e-02
4.514283595970789065e+03 1.725541248192276944e+00 9.342088602575715148e-03
4.518797879566761367e+03 1.725809872763329977e+00 9.391574531368311954e-03
4.523316677446328868e+03 1.723760855953572202e+00 9.371879750607225307e-03
4.527839994123776705e+03 1.716266551864876533e+00 9.546393199805014787e-03
4.532367834117902021e+03 1.712614557452094566e+00 9.699883252196677894e-03
4.536900201952022144e+03 1.707703985701128024e+00 9.764018515661776476e-03
4.541437102153975502e+03 1.705923747232095389e+00 9.747724946737659768e-03
4.545978539256130716e+03 1.695856338306501510e+00 8.729114798692311564e-03
4.550524517795388419e+03 1.693441328697781634e+00 8.539931388804846563e-03
4.555075042313184895e+03 1.691269973457115938e+00 8.448718062985397306e-03
4.559630117355500261e+03 1.683200418641506602e+00 8.140596720541418141e-03
4.564189747472856652e+03 1.684902431631836395e+00 7.909916506363053393e-03
4.568753937220330954e+03 1.687723533721943836e+00 7.861256856855283401e-03
4.573322691157552981e+03 1.693129585058279041e+00 7.783706796128241068e-03
4.577896013848711846e+03 1.693704672043085058e+00 7.628533755197475577e-03
4.582473909862562323e+03 1.690048678696790985e+00 7.403157695818036489e-03
4.587056383772426670e+03 1.682894778623595489e+00 6.717793939941502784e-03
4.591643440156200086e+03 1.680025569677924047e+00 6.375246334931503750e-03
4.596235083596357981e+03 1.671309681265531033e+00 6.258544971417336761e-03
4.600831318679955984e+03 1.661353985493256413e+00 6.235300011848892571e-03
4.605432149998637215e+03 1.649921505122767140e+00 6.698374458433706789e-03
4.610037582148637739e+03 1.638506298945817230e+00 6.637489140147116023e-03
4.614647619730787483e+03 1.625850947493980403e+00 6.654495381606216099e-03
4.619262267350520233e+03 1.609913556217014818e+00 5.825362605135873430e-03
4.623881529617872729e+03 1.600613176089423995e+00 5.803801817504525805e-03
4.628505411147491941e+03 1.592649975628408932e+00 5.932015730419413005e-03
4.633133916558640522e+03 1.586009272726518038e+00 5.720409575634127254e-03
4.637767050475200449e+03 1.582788014092072260e+00 6.231174086697572646e-03
4.642404817525677572e+03 1.575307601462218487e+00 6.389081764895715790e-03
4.647047222343205249e+03 1.569006137952965396e+00 6.512899565317834157e-03
4.651694269565549803e+03 1.558581664496800245e+00 6.287347139004039603e-03
4.656345963835116891e+03 1.549657897182960653e+00 6.214645698314428396e-03
4.661002309798953320e+03 1.542785208032008804e+00 6.209080819932380306e-03
4.665663312108753416e+03 1.531022452691091829e+00 5.914048869962123048e-03
4.670328975420864481e+03 1.524653571306112010e+00 5.957688170447911907e-03
4.674999304396286789e+03 1.523717969021005203e+00 6.246720871711046973e-03
4.679674303700684504e+03 1.521178060102993834e+00 6.286477762222318633e-03
4.684353978004386590e+03 1.521437678799889559e+00 6.156923658670599743e-03
4.689038331982392265e+03 1.514229846133226864e+00 6.123423236148770911e-03
4.693727370314376458e+03 1.500414152540722412e+00 6.367353654887351888e-03
4.698421097684692540e+03 1.486988737771427926e+00 6.246460068509524996e-03
4.703119518782378691e+03 1.472051762022854149e+00 6.317966427609364097e-03
4.707822638301162442e+03 1.456338589418324947e+00 6.189200036345553040e-03
4.712530460939465229e+03 1.443468108272686790e+00 6.438299254002133321e-03
4.717242991400406027e+03 1.431298379306116475e+00 6.385938581508216437e-03
4.721960234391808626e+03 1.418238435644182394e+00 6.635307681779697812e-03
4.726682194626201635e+03 1.410144162769200848e+00 6.225567070440436897e-03
4.731408876820829391e+03 1.398436096618923319e+00 6.279720288934666043e-03
4.736140285697651962e+03 1.391349277023456121e+00 6.211090232760064535e-03
4.740876425983350600e+03 1.379287074108241251e+00 6.018337614894484627e-03
4.745617302409335934e+03 1.366367561238724493e+00 6.353341905512129018e-03
4.750362919711747054e+03 1.357182234873590243e+00 6.573298792966228259e-03
4.755113282631459697e+03 1.345991491401257178e+00 6.372921511300966117e-03
4.759868395914093526e+03 1.342966709072197506e+00 6.071377221114278126e-03
4.764628264310008490e+03 1.344328893717896545e+00 5.805797229785982470e-03
4.769392892574320285e+03 1.353519030954393854e+00 5.809155104916657701e-03
4.774162285466896719e+03 1.369069984722003586e+00 5.599227733625421720e-03
4.778936447752364984e+03 1.390845167371935531e+00 6.146166821151801719e-03
4.783715384200118933e+03 1.414706063411086401e+00 6.315051851831525800e-03
4.788499099584319993e+03 1.430223642226934322e+00 6.411171971445023612e-03
4.793287598683906253e+03 1.444081998512947607e+00 6.867338595042292090e-03
4.798080886282591564e+03 1.451503136954557016e+00 7.100276524521662198e-03
4.802878967168876443e+03 1.455806486160782676e+00 7.136451158306914705e-03
4.807681846136046261e+03 1.458286952868337982e+00 7.169649062211742863e-03
