# starting wavelength: 3249.480
# ending wavelength: 9551.503
# wav flux eflux
3.252455966764071036e+03 3.731128915018221637e+00 2.119887301386713385e-01
3.255708422730835991e+03 3.807769691660846334e+00 1.575248411200318166e-01
3.258964131153567905e+03 3.854935228922273804e+00 1.199267673642341048e-01
3.262223095284722604e+03 3.875151347194810469e+00 9.330209872953307282e-02
3.265485318380008266e+03 3.862714837578189453e+00 7.738907259633202862e-02
3.268750803698389518e+03 3.843506486965365454e+00 6.243431354435179798e-02
3.272019554502088795e+03 3.817650679312701634e+00 5.122475981431626191e-02
3.275291574056592253e+03 3.786994229861498251e+00 4.226398734298363741e-02
3.278566865630649772e+03 3.756825786026395164e+00 3.725249931026956146e-02
3.281845432496281319e+03 3.725265028591897121e+00 3.204271480291100843e-02
3.285127277928778767e+03 3.702005811595272533e+00 2.909201564181857283e-02
3.288412405206708627e+03 3.689327586398916115e+00 2.805794008905368453e-02
3.291700817611916591e+03 3.675567941062201971e+00 2.652349083782686370e-02
3.294992518429529355e+03 3.670020573677553077e+00 2.576452399643369695e-02
3.298287510947960072e+03 3.654475143172700502e+00 2.444673842884791462e-02
3.301585798458909267e+03 3.640913000997833215e+00 2.340680960916171477e-02
3.304887384257369376e+03 3.633421047516764979e+00 2.252277136514420353e-02
3.308192271641627485e+03 3.632179348589231527e+00 2.207979531315690941e-02
3.311500463913270323e+03 3.634001800886528244e+00 2.148194329968473870e-02
3.314811964377184722e+03 3.648708686376516575e+00 2.244993143782760339e-02
3.318126776341563072e+03 3.660232665928734086e+00 2.166275447586396216e-02
3.321444903117905596e+03 3.677701769375389063e+00 2.118444488452822516e-02
3.324766348021024896e+03 3.697721761028892384e+00 2.057672853547970124e-02
3.328091114369046863e+03 3.716687955753146255e+00 1.989281826486634375e-02
3.331419205483417045e+03 3.726940892240861558e+00 1.951521496910540304e-02
3.334750624688901553e+03 3.733646025625751541e+00 1.944951306095436122e-02
3.338085375313591612e+03 3.729508829699313743e+00 1.870103541882810194e-02
3.341423460688906289e+03 3.743806730234531699e+00 1.916955333600218331e-02
3.344764884149596128e+03 3.737394943980999251e+00 1.944668317040897099e-02
3.348109649033746791e+03 3.734776902481271144e+00 1.896141892419790642e-02
3.351457758682781787e+03 3.742239661333099043e+00 1.905142663924713764e-02
3.354809216441465651e+03 3.742145999034124593e+00 1.850234413575879353e-02
3.358164025657908041e+03 3.747139836901874244e+00 1.874173796099345285e-02
3.361522189683567376e+03 3.745005665481871304e+00 1.879643806762430411e-02
3.364883711873251741e+03 3.737930991063931341e+00 1.886823801358408770e-02
3.368248595585126168e+03 3.739834572495202458e+00 1.981131139371217903e-02
3.371616844180712633e+03 3.732977893763038235e+00 2.021047529892405076e-02
3.374988461024894150e+03 3.716549644583869050e+00 2.101780208173729958e-02
3.378363449485920228e+03 3.708537299767938222e+00 2.102813056835632632e-02
3.381741812935407324e+03 3.694352785059365374e+00 2.106726633978093371e-02
3.385123554748343849e+03 3.685104543937152588e+00 2.153011161290685829e-02
3.388508678303093347e+03 3.661584614476733890e+00 2.470994569665515075e-02
3.391897186981397681e+03 3.640353402534073357e+00 2.495782088033664248e-02
3.395289084168380214e+03 3.636385313704516342e+00 2.551559828143434502e-02
3.398684373252549449e+03 3.635067903522582355e+00 2.674960158316687722e-02
3.402083057625803121e+03 3.628492744246422319e+00 2.711494727865711857e-02
3.405485140683430018e+03 3.624592706896322181e+00 2.665931108570508690e-02
3.408890625824114522e+03 3.627641575926850770e+00 2.739178874971160554e-02
3.412299516449939802e+03 3.631850020418719627e+00 2.768084545882848815e-02
3.415711815966390986e+03 3.631964692582087650e+00 2.783926439316944737e-02
3.419127527782358356e+03 3.616730915308449479e+00 2.776502402004120407e-02
3.422546655310141887e+03 3.616990649425994242e+00 2.788227583122624906e-02
3.425969201965453522e+03 3.617389009942253875e+00 2.843977055394007053e-02
3.429395171167419903e+03 3.615361865093236204e+00 2.832270373755166673e-02
3.432824566338588284e+03 3.617680442259312290e+00 2.834532325431255578e-02
3.436257390904928343e+03 3.609558938127338301e+00 2.864802243963732176e-02
3.439693648295834464e+03 3.619704920217975630e+00 2.886638848263184398e-02
3.443133341944131189e+03 3.618908458760937918e+00 2.929008539964581340e-02
3.446576475286076402e+03 3.611614945892360318e+00 2.930277580674094107e-02
3.450023051761363604e+03 3.596450750138624031e+00 2.937579686287705369e-02
3.453473074813126004e+03 3.579959592450326245e+00 3.006971736084701127e-02
3.456926547887940615e+03 3.560698741975454773e+00 3.043277767454386981e-02
3.460383474435829612e+03 3.540228899825200060e+00 3.041651167830095731e-02
3.463843857910266706e+03 3.512660105372574559e+00 2.906677196146583916e-02
3.467307701768178049e+03 3.500429207667840270e+00 2.948846776286820001e-02
3.470775009469947236e+03 3.485656060006544266e+00 2.885536598609896378e-02
3.474245784479418489e+03 3.490397016977323297e+00 2.884609747067494109e-02
3.477720030263898934e+03 3.488845509333941663e+00 2.889905621522877166e-02
3.481197750294164052e+03 3.495068971660116652e+00 2.852112549930661822e-02
3.484678948044459503e+03 3.497574330752284855e+00 2.780598462926322720e-02
3.488163626992504760e+03 3.499624343199143617e+00 2.823055656132039681e-02
3.491651790619498570e+03 3.526306186391600761e+00 2.909933878884355188e-02
3.495143442410119405e+03 3.530554974606233909e+00 2.969519653995518482e-02
3.498638585852530468e+03 3.509913462380668037e+00 2.956797945666897118e-02
3.502137224438384237e+03 3.511543725050538800e+00 2.961546778338331951e-02
3.505639361662823831e+03 3.529471485428857580e+00 2.976292588550141088e-02
3.509145001024487556e+03 3.540095032864611468e+00 2.729772004316623896e-02
3.512654146025513455e+03 3.540935979687984680e+00 2.770158718747242621e-02
3.516166800171540217e+03 3.534095709800425311e+00 2.773630772581589868e-02
3.519682966971712631e+03 3.523405713712136844e+00 2.785438086182259743e-02
3.523202649938685681e+03 3.522351036860549733e+00 2.862836980397922421e-02
3.526725852588625457e+03 3.527679405672410784e+00 2.950095905114313508e-02
3.530252578441215064e+03 3.516771581057202667e+00 2.872703205854355846e-02
3.533782831019657806e+03 3.518148116187405972e+00 2.867262553538143383e-02
3.537316613850678550e+03 3.508422295073077013e+00 2.904598400799937585e-02
3.540853930464530094e+03 3.492109191079599828e+00 2.907560653206392454e-02
3.544394784394995895e+03 3.477089976646736247e+00 2.923384715376693352e-02
3.547939179179392340e+03 3.484045634385673829e+00 2.767387306481943962e-02
3.551487118358572843e+03 3.475116212841468766e+00 2.738259196584174465e-02
3.555038605476932389e+03 3.463594078506488483e+00 2.754075695741756841e-02
3.558593644082410719e+03 3.441627239225914625e+00 3.041203249265446440e-02
3.562152237726494150e+03 3.427302718625925060e+00 3.198067302824922353e-02
3.565714389964221937e+03 3.415106226918152021e+00 3.208173950652540296e-02
3.569280104354187188e+03 3.410665504969838668e+00 3.127206496886076464e-02
3.572849384458542772e+03 3.424396853987846434e+00 3.383273330094690307e-02
3.576422233843002232e+03 3.421534372343573605e+00 3.445326171709501423e-02
3.579998656076846601e+03 3.418715901487516362e+00 3.443064270071836963e-02
3.583578654732924406e+03 3.429563864336644397e+00 3.402103870409502878e-02
3.587162233387658489e+03 3.426242202861573105e+00 3.405452893160237221e-02
3.590749395621047370e+03 3.441067472965495977e+00 3.493002831624279075e-02
3.594340145016669794e+03 3.465169702821469411e+00 3.440900328023398236e-02
3.597934485161687462e+03 3.484151580588022323e+00 3.347779499075492077e-02
3.601532419646850485e+03 3.485325384631372536e+00 3.287508295823284715e-02
3.605133952066498296e+03 3.501824223010456372e+00 3.090111021033841582e-02
3.608739086018566013e+03 3.506116720039637258e+00 3.077292972011855948e-02
3.612347825104585809e+03 3.496440751717818429e+00 3.027764854508393014e-02
3.615960172929691907e+03 3.490975135661807283e+00 3.023412364786099218e-02
3.619576133102622407e+03 3.484631187924479789e+00 2.996838211286682180e-02
3.623195709235726554e+03 3.475804180094444806e+00 3.017802225282548503e-02
3.626818904944963379e+03 3.460446837472949344e+00 3.069890084800132660e-02
3.630445723849909427e+03 3.437573213522869153e+00 3.025377105323145965e-02
3.634076169573760581e+03 3.413299954824417615e+00 3.110438241231604922e-02
3.637710245743335690e+03 3.406768961118622485e+00 3.117718100626970870e-02
3.641347955989080219e+03 3.395955249494721162e+00 3.109344845868722285e-02
3.644989303945070333e+03 3.378004515349830594e+00 3.119407232836195198e-02
3.648634293249016537e+03 3.384811411247759416e+00 3.027756066709193228e-02
3.652282927542266862e+03 3.374856731198308868e+00 3.012709441308320663e-02
3.655935210469810499e+03 3.358353731587381930e+00 2.894591135192543796e-02
3.659591145680281443e+03 3.332412360392667416e+00 2.707229905034370943e-02
3.663250736825963031e+03 3.331761069886772564e+00 2.889248948895367999e-02
3.666913987562790226e+03 3.330624630473565162e+00 2.891141243811514924e-02
3.670580901550354156e+03 3.319413518566094012e+00 2.907053627954547456e-02
3.674251482451905758e+03 3.310484506941607563e+00 2.892123000520704229e-02
3.677925733934358959e+03 3.292955510404968145e+00 2.769597450369221461e-02
3.681603659668294313e+03 3.284711110178130777e+00 2.866676312161900095e-02
3.685285263327964003e+03 3.273500587781714710e+00 2.811742140620164532e-02
3.688970548591293209e+03 3.282026907029836238e+00 2.762367971681254850e-02
3.692659519139885560e+03 3.284130447370896988e+00 2.761010839093785280e-02
3.696352178659026777e+03 3.287623641700954558e+00 2.760776889719340418e-02
3.700048530837686940e+03 3.288421489362103323e+00 2.816054289802207358e-02
3.703748579368525952e+03 3.266941879630280710e+00 2.559123838362488759e-02
3.707452327947895355e+03 3.277510403283718787e+00 2.832140525667076539e-02
3.711159780275844696e+03 3.279760610426425416e+00 2.874807443014469957e-02
3.714870940056121526e+03 3.274457173878794869e+00 2.782134397427775060e-02
3.718585810996179134e+03 3.284687332520389802e+00 2.546404356850543588e-02
3.722304396807176545e+03 3.273302122380387758e+00 2.494106910501115923e-02
3.726026701203984885e+03 3.242636282235223266e+00 2.475138314769034092e-02
3.729752727905190113e+03 3.233451160158675730e+00 2.464749146236342239e-02
3.733482480633096657e+03 3.215267069766588826e+00 2.393610176510014079e-02
3.737215963113731050e+03 3.194555777980098377e+00 2.217253687745799479e-02
3.740953179076846027e+03 3.192240122405892944e+00 2.256241017973326796e-02
3.744694132255923705e+03 3.187411710376669927e+00 2.251288697531389840e-02
3.748438826388181042e+03 3.188114084955101735e+00 2.263080557399100440e-02
3.752187265214570289e+03 3.190820243793559108e+00 2.237415292086309890e-02
3.755939452479786269e+03 3.212025710763920738e+00 2.077262257944869836e-02
3.759695391932267285e+03 3.223669768378881528e+00 2.053921520766208153e-02
3.763455087324201031e+03 3.245749124830196397e+00 2.123080284806339382e-02
3.767218542411526414e+03 3.250277460536123986e+00 2.128667288682412756e-02
3.770985760953939007e+03 3.248212098045355933e+00 2.122114706709464504e-02
3.774756746714894234e+03 3.259048437857870795e+00 2.090120466647454531e-02
3.778531503461610555e+03 3.255469067586471255e+00 2.133242300585208584e-02
3.782310034965073100e+03 3.237999768956144830e+00 2.161186214001295514e-02
3.786092345000039586e+03 3.221229602610577558e+00 2.135298309549852128e-02
3.789878437345040766e+03 3.191343938031008687e+00 2.079253780992851297e-02
3.793668315782387253e+03 3.193007858437657109e+00 1.978186456585745434e-02
3.797461984098170888e+03 3.181914514534391447e+00 1.986636469269263683e-02
3.801259446082270188e+03 3.158613450673175560e+00 1.972556053487255906e-02
3.805060705528353537e+03 3.153150927277227566e+00 1.975208266148944722e-02
3.808865766233883278e+03 3.142230383385118397e+00 1.965980633530113597e-02
3.812674632000118436e+03 3.119149745539160357e+00 1.883816387263884812e-02
3.816487306632119726e+03 3.103206247895630376e+00 1.883862636944291444e-02
3.820303793938753188e+03 3.089769793658223129e+00 1.923707150681992772e-02
3.824124097732693372e+03 3.085376859503772717e+00 1.937950054283093387e-02
3.827948221830427428e+03 3.079989433541171273e+00 1.963608082699852195e-02
3.831776170052258749e+03 3.060760135845140617e+00 2.161379727945744386e-02
3.835607946222312421e+03 3.056904973799116298e+00 2.160997037248550690e-02
3.839443554168536139e+03 3.061412276114953812e+00 2.330698062867626180e-02
3.843282997722705659e+03 3.066959185995393966e+00 2.186773875118286706e-02
3.847126280720429804e+03 3.055608059541546684e+00 2.197499751261862769e-02
3.850973407001151372e+03 3.040795385020416131e+00 2.241344759012880647e-02
3.854824380408153957e+03 3.041101780206317162e+00 2.161057133592848498e-02
3.858679204788563311e+03 3.017905318923841840e+00 2.255012070905191082e-02
3.862537883993353262e+03 2.986917577144334146e+00 2.330679184887474512e-02
3.866400421877347981e+03 2.957722812995459361e+00 2.401585479640424431e-02
3.870266822299226533e+03 2.939065150727653286e+00 2.315054905047813499e-02
3.874137089121526969e+03 2.940970290192220560e+00 2.512679460116857763e-02
3.878011226210649966e+03 2.918484483584451450e+00 2.519138379169280281e-02
3.881889237436861549e+03 2.907864792176644730e+00 2.460675020662549117e-02
3.885771126674299921e+03 2.897265585678703292e+00 2.586942425474790183e-02
3.889656897800975457e+03 2.897785366546680841e+00 2.690227604948021434e-02
3.893546554698777527e+03 2.909077413208168039e+00 2.719593719276927266e-02
3.897440101253477678e+03 2.926722359224995351e+00 2.833664092948338931e-02
3.901337541354732366e+03 2.969409420857248794e+00 2.897807747856775626e-02
3.905238878896088409e+03 3.013262889882183604e+00 2.989262496266454835e-02
3.909144117774985716e+03 3.057682054367399704e+00 3.252756387957082829e-02
3.913053261892762293e+03 3.107599741570934437e+00 3.067565511058532868e-02
3.916966315154656058e+03 3.125734991655623851e+00 2.906732625750496277e-02
3.920883281469812118e+03 3.116550550970092370e+00 2.917558029793466609e-02
3.924804164751283224e+03 3.087936963142246860e+00 2.877757050410126999e-02
3.928728968916035683e+03 3.049218245770949576e+00 3.084747287616985620e-02
3.932657697884953450e+03 2.989429757835066592e+00 3.231911621607316820e-02
3.936590355582839493e+03 2.922691897102728475e+00 2.904944387262494918e-02
3.940526945938423523e+03 2.856713317693635901e+00 2.496524989971522085e-02
3.944467472884363360e+03 2.805435581655064237e+00 2.018960411624088486e-02
3.948411940357249023e+03 2.785758135935957114e+00 2.020007386251676876e-02
3.952360352297607733e+03 2.807261191166611436e+00 2.225091337517986351e-02
3.956312712649906643e+03 2.839533282430460215e+00 2.254675547347516698e-02
3.960269025362557841e+03 2.890842122825531213e+00 2.049331739060707147e-02
3.964229294387921527e+03 2.924784696393543992e+00 1.907536108925381516e-02
3.968193523682310570e+03 2.954984619301219695e+00 1.723883976861824083e-02
3.972161717205994591e+03 2.971448953412835436e+00 1.757564917005475028e-02
3.976133878923201792e+03 2.969356134081159393e+00 1.769023054937982412e-02
3.980110012802126221e+03 2.957661115582646438e+00 1.761783250306725099e-02
3.984090122814929600e+03 2.928009009165424725e+00 1.944614827957778444e-02
3.988074212937745870e+03 2.892764002516910349e+00 2.160946516796173958e-02
3.992062287150684824e+03 2.865815798973364359e+00 2.125738387459342321e-02
3.996054349437837118e+03 2.839032011369950759e+00 2.084272477976726115e-02
4.000050403787276082e+03 2.831212984416257239e+00 2.100902996890495478e-02
4.004050454191064546e+03 2.823216387355378387e+00 2.086384603383466957e-02
4.008054504645257111e+03 2.822756056777248723e+00 2.083625691318384543e-02
4.012062559149903791e+03 2.848935264865269712e+00 2.029399467934969378e-02
4.016074621709055009e+03 2.864944140797053951e+00 2.027014075828020845e-02
4.020090696330765240e+03 2.866197843723461425e+00 1.918712560118957661e-02
4.024110787027097558e+03 2.843232547721512571e+00 2.029271891574230269e-02
4.028134897814125907e+03 2.829747337035680488e+00 2.005101927531654366e-02
4.032163032711941469e+03 2.807095755795975034e+00 2.008245840462321088e-02
4.036195195744654484e+03 2.785472729755597676e+00 2.057384535651877316e-02
4.040231390940400615e+03 2.742030782632591812e+00 1.931559680271953752e-02
4.044271622331342314e+03 2.705122602473269744e+00 1.822206316242091714e-02
4.048315893953675186e+03 2.702159089936734038e+00 1.801088875105218146e-02
4.052364209847629809e+03 2.715622778347865030e+00 2.083741852277951057e-02
4.056416574057479011e+03 2.718792481686591156e+00 2.062683214634733475e-02
4.060472990631537868e+03 2.724206264463090221e+00 2.057528672557888336e-02
4.064533463622170530e+03 2.739695988644519797e+00 2.221421868878349637e-02
4.068597997085794304e+03 2.742678378899793934e+00 2.289630714134676531e-02
4.072666595082881486e+03 2.729249955877977918e+00 2.263688314517569439e-02
4.076739261677965715e+03 2.711958838465133859e+00 2.405766825813961118e-02
4.080816000939644709e+03 2.691108641578435989e+00 2.439818612482177324e-02
4.084896816940585722e+03 2.680682359681312299e+00 2.374620220889844466e-02
4.088981713757527814e+03 2.677139236013094781e+00 2.302822712195748758e-02
4.093070695471286854e+03 2.686048570975233751e+00 2.322469392783318987e-02
4.097163766166759160e+03 2.695650691636739982e+00 2.460027477281608380e-02
4.101260929932927866e+03 2.690406440903161389e+00 2.456916378486310656e-02
4.105362190862862008e+03 2.700381026859465017e+00 2.487668711548812403e-02
4.109467553053726078e+03 2.709359798646660877e+00 2.420275661939001385e-02
4.113577020606780934e+03 2.720481729120773462e+00 2.323326894649705571e-02
4.117690597627389252e+03 2.722252849111521211e+00 2.210972406976014631e-02
4.121808288225018259e+03 2.698702599262267743e+00 2.216307263652422810e-02
4.125930096513244280e+03 2.688054040108544207e+00 2.165017900953998542e-02
4.130056026609759101e+03 2.685598850618025946e+00 2.121283748637626393e-02
4.134186082636369974e+03 2.667597794681296541e+00 1.956625018571928401e-02
4.138320268719007800e+03 2.653714988038959444e+00 1.776339466291949540e-02
4.142458588987728035e+03 2.659761172358832138e+00 1.605754533354474684e-02
4.146601047576717065e+03 2.682303041475588845e+00 1.646055604640169617e-02
4.150747648624294925e+03 2.687417742445349145e+00 1.658900896536827374e-02
4.154898396272920763e+03 2.685098102656569896e+00 1.730484071620546835e-02
4.159053294669195566e+03 2.690545963853824052e+00 1.804502075433582486e-02
4.163212347963865795e+03 2.698464379316895645e+00 1.651086897004214876e-02
4.167375560311830668e+03 2.679792298110580617e+00 1.633980526276828521e-02
4.171542935872143971e+03 2.650683883958595111e+00 1.799460089798196258e-02
4.175714478808017702e+03 2.622138341392607597e+00 1.914598872596903062e-02
4.179890193286827525e+03 2.581682746854988331e+00 1.735509999315787422e-02
4.184070083480115500e+03 2.556607751816323493e+00 1.736144392090405164e-02
4.188254153563597356e+03 2.532515997119978657e+00 1.683400653404985847e-02
4.192442407717161586e+03 2.521361800276784582e+00 1.723978437627822491e-02
4.196634850124880359e+03 2.515846668296819022e+00 1.877637775863723324e-02
4.200831484975006788e+03 2.506153813898387206e+00 1.918548948890436839e-02
4.205032316459983122e+03 2.502368327479637777e+00 1.855501000221468355e-02
4.209237348776444378e+03 2.499460929919457008e+00 1.719462185362841816e-02
4.213446586125221984e+03 2.497826414236322456e+00 1.714347722804892421e-02
4.217660032711349231e+03 2.479807891772447981e+00 1.749101190775727635e-02
4.221877692744061278e+03 2.454072289674583907e+00 1.792541834381422908e-02
4.226099570436806971e+03 2.432530958716375924e+00 1.974035373084746109e-02
4.230325670007245208e+03 2.421255921713956649e+00 1.818680521503462238e-02
4.234555995677254032e+03 2.416103315948817443e+00 1.650610404410898097e-02
