# starting wavelength: 3971.670
# ending wavelength: 10127.800
# wav flux eflux
3.972161717205994591e+03 2.029980454272497514e+00 4.161841066352565122e-01
3.976133878923201792e+03 1.900421511889083037e+00 3.104906069510033895e-01
3.980110012802126221e+03 1.786694568110572368e+00 2.360130912086643995e-01
3.984090122814929600e+03 1.725036119009025981e+00 1.812308411013469067e-01
3.988074212937745870e+03 1.680827540933608866e+00 1.394520718674458482e-01
3.992062287150684824e+03 1.659379897171150864e+00 1.093510619474962753e-01
3.996054349437837118e+03 1.661680067247961912e+00 9.281103969050441549e-02
4.000050403787276082e+03 1.663380343296771757e+00 7.862679358707823363e-02
4.004050454191064546e+03 1.662383218965460596e+00 6.891464463495371173e-02
4.008054504645257111e+03 1.658078707377682814e+00 6.074730675015933140e-02
4.012062559149903791e+03 1.660475695768202753e+00 5.272795593140795073e-02
4.016074621709055009e+03 1.670630567569346914e+00 4.703637965742459709e-02
4.020090696330765240e+03 1.683015782495477453e+00 4.278608282992194672e-02
4.024110787027097558e+03 1.695569177369260494e+00 3.938526026316153256e-02
4.028134897814125907e+03 1.705774631806737940e+00 3.682758822335029103e-02
4.032163032711941469e+03 1.708893923060438524e+00 3.544496778604710324e-02
4.036195195744654484e+03 1.707108681017788454e+00 3.550086759747286130e-02
4.040231390940400615e+03 1.710142757765262145e+00 3.508330531372327171e-02
4.044271622331342314e+03 1.719407678779200754e+00 3.343760746671073369e-02
4.048315893953675186e+03 1.717880046683924355e+00 2.938450176312834214e-02
4.052364209847629809e+03 1.727770568922163408e+00 2.937422557861381692e-02
4.056416574057479011e+03 1.743007900875803262e+00 2.991693231954854065e-02
4.060472990631537868e+03 1.760100905939989469e+00 2.938174299538329551e-02
4.064533463622170530e+03 1.769643012512178259e+00 3.049854034114244869e-02
4.068597997085794304e+03 1.778179217312455318e+00 2.926050268788574563e-02
4.072666595082881486e+03 1.773530505348432262e+00 2.880087107113587022e-02
4.076739261677965715e+03 1.777073720703663096e+00 2.851609327368884172e-02
4.080816000939644709e+03 1.780325709125772704e+00 2.900141043259339343e-02
4.084896816940585722e+03 1.772387268818792272e+00 2.917429882539409811e-02
4.088981713757527814e+03 1.759389901338143991e+00 3.058217992118423059e-02
4.093070695471286854e+03 1.753254531786477610e+00 3.029196661686424374e-02
4.097163766166759160e+03 1.745325613795743580e+00 3.025638743401589184e-02
4.101260929932927866e+03 1.724267643316074849e+00 3.061989521179243195e-02
4.105362190862862008e+03 1.703756755065128026e+00 2.996858379883152179e-02
4.109467553053726078e+03 1.686340906309606202e+00 2.977576670838837439e-02
4.113577020606780934e+03 1.667935081099097383e+00 2.903789639285168575e-02
4.117690597627389252e+03 1.634040038547562856e+00 2.896659388879506067e-02
4.121808288225018259e+03 1.610611320633442034e+00 2.842811911168712652e-02
4.125930096513244280e+03 1.606462851678681858e+00 2.868543841513307088e-02
4.130056026609759101e+03 1.584419624516164582e+00 2.934759935243732090e-02
4.134186082636369974e+03 1.590449299857901622e+00 2.965016976795875961e-02
4.138320268719007800e+03 1.575120598630208812e+00 2.963422341907899146e-02
4.142458588987728035e+03 1.548143032281930731e+00 3.031865676208806565e-02
4.146601047576717065e+03 1.527385865596612602e+00 3.041359942594018193e-02
4.150747648624294925e+03 1.508537737268746959e+00 3.027610815924024895e-02
4.154898396272920763e+03 1.517451286318677095e+00 3.047701763911593240e-02
4.159053294669195566e+03 1.523045057054029705e+00 2.993708310009618109e-02
4.163212347963865795e+03 1.525801857117716320e+00 2.963898835231245504e-02
4.167375560311830668e+03 1.530983555058264889e+00 2.955295278282080509e-02
4.171542935872143971e+03 1.524977781697197887e+00 2.952687192635737243e-02
4.175714478808017702e+03 1.513463552768071319e+00 2.811200598594454023e-02
4.179890193286827525e+03 1.496523452343341276e+00 2.798289545724632135e-02
4.184070083480115500e+03 1.491049412457600365e+00 2.799836901181669904e-02
4.188254153563597356e+03 1.482273854369368982e+00 2.792409578474937260e-02
4.192442407717161586e+03 1.473352968031080623e+00 2.867559190502475680e-02
4.196634850124880359e+03 1.474347716446832379e+00 2.791913720309178656e-02
4.200831484975006788e+03 1.470934205049852395e+00 2.780112743015714441e-02
4.205032316459983122e+03 1.466720373000686584e+00 2.737921731206072531e-02
4.209237348776444378e+03 1.464303803922111236e+00 2.713815127066617622e-02
4.213446586125221984e+03 1.462563676737971052e+00 2.701499013528504967e-02
4.217660032711349231e+03 1.459553925151109377e+00 2.684889012922794110e-02
4.221877692744061278e+03 1.443817407416689846e+00 2.396105244857248823e-02
4.226099570436806971e+03 1.433427441014289094e+00 2.357813816538848264e-02
4.230325670007245208e+03 1.427779210131139509e+00 2.404762136253944804e-02
4.234555995677254032e+03 1.425219495936973946e+00 2.445212025171739773e-02
4.238790551672932452e+03 1.428770456799467015e+00 2.368744931795526212e-02
4.243029342224606808e+03 1.445841676945839982e+00 2.543701949046882696e-02
4.247272371566832589e+03 1.453276224514096437e+00 2.546078525628888908e-02
4.251519643938400804e+03 1.456953075782145390e+00 2.517644189468420945e-02
4.255771163582340705e+03 1.470152074848584567e+00 2.398103366351797203e-02
4.260026934745924336e+03 1.488659238131607054e+00 2.274428752127353320e-02
4.264286961680671993e+03 1.505965798689796964e+00 2.061625597723032444e-02
4.268551248642354039e+03 1.523146833323038685e+00 2.029956451505886272e-02
4.272819799890998183e+03 1.530977904655872912e+00 1.904116997963321498e-02
4.277092619690890388e+03 1.536056865188963894e+00 1.931018311600223372e-02
4.281369712310583054e+03 1.537620378633538509e+00 1.927884265241339504e-02
4.285651082022895025e+03 1.535921561533313495e+00 2.114060309004784852e-02
4.289936733104918858e+03 1.539083196488873151e+00 2.237641107822094938e-02
4.294226669838025373e+03 1.544949744517617463e+00 2.258222072717172568e-02
4.298520896507864563e+03 1.559907037453016398e+00 2.496811525482785232e-02
4.302819417404373780e+03 1.566451226958105680e+00 2.565277845537646331e-02
4.307122236821779552e+03 1.554356426985484596e+00 2.916651540390250222e-02
4.311429359058603040e+03 1.549431503669571608e+00 3.190823897907620055e-02
4.315740788417662770e+03 1.541557528430497648e+00 3.388223128467475476e-02
4.320056529206081905e+03 1.568659181110124257e+00 3.346383661689272121e-02
4.324376585735290064e+03 1.608952311954194192e+00 3.646179887237080419e-02
4.328700962321026054e+03 1.653129522768707949e+00 3.769084588813383790e-02
4.333029663283348782e+03 1.720352120827203013e+00 4.251165934603078067e-02
4.337362692946633615e+03 1.767450836409404147e+00 4.293169094155871446e-02
4.341700055639581478e+03 1.802687179712844756e+00 4.264737306111338749e-02
4.346041755695222491e+03 1.845214671043277299e+00 4.279222897279424953e-02
4.350387797450919606e+03 1.862669651699384366e+00 4.137132428049088151e-02
4.354738185248371337e+03 1.860165197372129819e+00 4.139078222206132862e-02
4.359092923433621763e+03 1.855249744195664352e+00 4.168487181025376520e-02
4.363452016357056891e+03 1.831384681699186778e+00 4.265838562073166057e-02
4.367815468373414660e+03 1.779059404911148334e+00 4.581728265601629074e-02
4.372183283841789489e+03 1.733518424645555500e+00 4.556718545780930052e-02
4.376555467125633186e+03 1.680896530736651240e+00 4.563228572750263612e-02
4.380932022592760404e+03 1.616911993642086598e+00 4.343787577561342844e-02
4.385312954615354101e+03 1.559927944221974006e+00 4.019131454828372974e-02
4.389698267569970994e+03 1.530233646131547998e+00 4.183073354064970051e-02
4.394087965837542470e+03 1.505305688637713413e+00 4.196570177376654498e-02
4.398482053803381859e+03 1.481539201760055269e+00 4.352275416136418967e-02
4.402880535857186260e+03 1.474287670013863849e+00 4.366827688263120316e-02
4.407283416393044718e+03 1.474353451459833986e+00 4.310541554630276107e-02
4.411690699809440048e+03 1.521059103492047315e+00 3.158878675470047637e-02
4.416102390509250654e+03 1.547647535134242247e+00 2.157386326914957284e-02
4.420518492899761441e+03 1.536495740020851208e+00 2.321184664354628002e-02
4.424939011392662906e+03 1.525115918287444750e+00 2.678843152869646652e-02
4.429363950404056595e+03 1.524807463602514623e+00 2.505462860314616388e-02
4.433793314354462382e+03 1.520163789884783734e+00 2.411918664028124201e-02
4.438227107668818462e+03 1.518193757153659451e+00 2.332437518427789291e-02
4.442665334776488635e+03 1.511912485403472006e+00 2.310338124117386829e-02
4.447108000111265937e+03 1.512076263732184067e+00 2.266055531336227946e-02
4.451555108111379013e+03 1.513583013863114335e+00 2.291878683110026155e-02
4.456006663219492111e+03 1.535277464037850148e+00 2.496678581172619149e-02
4.460462669882713271e+03 1.543466322030242033e+00 2.437491332871658326e-02
4.464923132552597053e+03 1.553256989421183842e+00 2.439038668213346778e-02
4.469388055685150903e+03 1.555727340269807080e+00 2.286365907662561356e-02
4.473857443740837880e+03 1.546777377622960969e+00 2.395463462386561090e-02
4.478331301184580298e+03 1.539855784712438114e+00 2.368016980106572161e-02
4.482809632485766087e+03 1.521208963129615510e+00 2.511639720349365806e-02
4.487292442118253348e+03 1.497260841163718492e+00 2.572329080112717783e-02
4.491779734560373072e+03 1.468603498044955824e+00 2.223557806238350351e-02
4.496271514294934605e+03 1.463903840604573681e+00 2.265073725309742908e-02
4.500767785809231100e+03 1.462158604653176930e+00 2.259131356306842003e-02
4.505268553595042249e+03 1.463761455263380862e+00 2.338005119988938521e-02
4.509773822148638828e+03 1.467368992341094858e+00 2.360539988013395790e-02
4.514283595970789065e+03 1.486966898485747146e+00 2.219108382688825612e-02
4.518797879566761367e+03 1.497419117492876817e+00 2.166236562742004240e-02
4.523316677446328868e+03 1.508017502863565840e+00 2.275344625780361188e-02
4.527839994123776705e+03 1.512992827034273402e+00 2.272680059023016175e-02
4.532367834117902021e+03 1.528646642433352243e+00 1.556146899414133887e-02
4.536900201952022144e+03 1.525418796754065331e+00 1.607435962055162385e-02
4.541437102153975502e+03 1.514974561936646369e+00 1.568643756554270047e-02
4.545978539256130716e+03 1.499727154586040667e+00 1.538006210103169159e-02
4.550524517795388419e+03 1.472571234659945549e+00 1.445404267038336715e-02
4.555075042313184895e+03 1.469538616097068706e+00 1.466639907155516120e-02
4.559630117355500261e+03 1.453743839881590727e+00 1.330060191119768198e-02
4.564189747472856652e+03 1.466783233706784761e+00 1.680921297727931696e-02
4.568753937220330954e+03 1.465861971614053960e+00 1.671026698125537349e-02
4.573322691157552981e+03 1.467092827534688171e+00 1.760267800224638024e-02
4.577896013848711846e+03 1.467358505367999388e+00 1.740711801254758717e-02
4.582473909862562323e+03 1.484648900446414954e+00 2.113851322612720490e-02
4.587056383772426670e+03 1.480557026345894478e+00 2.132388284696475761e-02
4.591643440156200086e+03 1.478571447737754729e+00 2.182042106036548648e-02
4.596235083596357981e+03 1.469990806604520861e+00 2.167812668822663436e-02
4.600831318679955984e+03 1.457555255528082405e+00 2.247591954794844402e-02
4.605432149998637215e+03 1.443471044213993526e+00 2.181416314663118042e-02
4.610037582148637739e+03 1.447236606915732970e+00 2.209396494398047778e-02
4.614647619730787483e+03 1.458230547601407689e+00 2.409372245976461324e-02
4.619262267350520233e+03 1.469205511824043020e+00 2.392363190955910934e-02
4.623881529617872729e+03 1.473149958743520838e+00 2.416506280874972795e-02
4.628505411147491941e+03 1.489025042435572432e+00 2.392091600770802559e-02
4.633133916558640522e+03 1.502634358105897183e+00 2.298031306885837607e-02
4.637767050475200449e+03 1.519283926751318514e+00 2.320601724414090433e-02
4.642404817525677572e+03 1.519589476163126562e+00 2.380970045373017110e-02
4.647047222343205249e+03 1.512314419361991957e+00 2.417073553590350782e-02
4.651694269565549803e+03 1.492991974076585349e+00 2.527202134994467261e-02
4.656345963835116891e+03 1.486568802280535451e+00 2.526888849343509116e-02
4.661002309798953320e+03 1.471622073205748782e+00 2.181848285805120316e-02
4.665663312108753416e+03 1.465382857888974044e+00 2.274551063660814818e-02
4.670328975420864481e+03 1.472509092588927482e+00 2.167490631247298224e-02
4.674999304396286789e+03 1.478970362035441299e+00 2.007532762676553922e-02
4.679674303700684504e+03 1.478751542617571912e+00 1.971484208727691811e-02
4.684353978004386590e+03 1.479843181310415812e+00 1.876044639208414647e-02
4.689038331982392265e+03 1.469359563924241163e+00 1.903103706906301637e-02
4.693727370314376458e+03 1.457246173632125164e+00 1.852157993607759720e-02
4.698421097684692540e+03 1.463749800295219838e+00 1.884092692767143709e-02
4.703119518782378691e+03 1.461180274655202060e+00 1.903127575557868670e-02
4.707822638301162442e+03 1.461117287265867537e+00 1.908534536319970998e-02
4.712530460939465229e+03 1.451429541332161843e+00 1.776518008511610014e-02
4.717242991400406027e+03 1.455158685160480525e+00 1.894709112314552427e-02
4.721960234391808626e+03 1.450379044899320125e+00 1.976223585147682954e-02
4.726682194626201635e+03 1.454549018568733088e+00 1.472510580560368841e-02
4.731408876820829391e+03 1.447545614207726095e+00 1.636507862962192569e-02
4.736140285697651962e+03 1.432325841198854643e+00 1.668776272016187986e-02
4.740876425983350600e+03 1.416717591294337275e+00 1.682388143596476315e-02
4.745617302409335934e+03 1.400984427880707317e+00 1.573054540542150048e-02
4.750362919711747054e+03 1.402515036073870736e+00 1.774073961503924712e-02
4.755113282631459697e+03 1.409997037242600060e+00 1.825670557858951812e-02
4.759868395914093526e+03 1.410787647101913622e+00 1.857311299263816190e-02
4.764628264310008490e+03 1.411240414296260681e+00 1.970622521173384309e-02
4.769392892574320285e+03 1.411052113024261923e+00 1.975122835409148098e-02
4.774162285466896719e+03 1.417937079416165425e+00 1.985004326949550701e-02
4.778936447752364984e+03 1.434222864851472323e+00 2.006848761597969377e-02
4.783715384200118933e+03 1.441557605005018949e+00 2.009683557773814591e-02
4.788499099584319993e+03 1.448906811994818522e+00 1.970718593350404696e-02
4.793287598683906253e+03 1.449862138265504585e+00 1.984374843317420617e-02
4.798080886282591564e+03 1.455307070623339527e+00 1.864147938751116798e-02
4.802878967168876443e+03 1.466937349783808076e+00 1.918286400819710358e-02
4.807681846136046261e+03 1.481714816393355116e+00 1.901370236066031796e-02
4.812489527982183972e+03 1.504078496455927949e+00 1.852685453743279503e-02
4.817302017510168298e+03 1.505806720059469583e+00 2.086482042652050908e-02
4.822119319527679181e+03 1.478891977278457448e+00 4.241911348812082982e-02
4.826941438847208701e+03 1.538676861604697743e+00 2.619954715980347265e-02
4.831768380286057436e+03 1.541403953802775062e+00 2.407323640948131477e-02
4.836600148666345376e+03 1.574938388059681005e+00 2.135756347600434313e-02
4.841436748815013743e+03 1.569248417320832534e+00 2.603997606991887218e-02
4.846278185563829538e+03 1.649096571392244526e+00 4.232650116729816392e-02
4.851124463749395545e+03 1.882016901426856403e+00 6.105905595941775454e-02
4.855975588213146693e+03 2.144927370565458347e+00 7.839183958252293749e-02
4.860831563801360971e+03 2.324904768473283312e+00 6.692465402635267013e-02
4.865692395365163975e+03 2.287691073322637436e+00 7.200097820015650962e-02
4.870558087760530725e+03 2.069682056947053095e+00 8.331765522287899739e-02
4.875428645848292945e+03 1.779699759093212652e+00 6.251305722541598830e-02
4.880304074494142696e+03 1.551047005588026106e+00 5.615826113271755321e-02
4.885184378568638749e+03 1.491083164455435650e+00 4.079835723114087764e-02
4.890069562947209306e+03 1.497779060473522605e+00 3.347542036532982768e-02
4.894959632510157462e+03 1.539615929939560646e+00 3.429539638321539574e-02
4.899854592142669389e+03 1.595153818420078196e+00 3.568494909900319506e-02
4.904754446734813428e+03 1.581272456861422038e+00 3.464262441827236499e-02
4.909659201181550088e+03 1.524367408881432073e+00 3.858140915251982717e-02
4.914568860382732964e+03 1.470935377180795367e+00 3.214854594653256820e-02
4.919483429243117826e+03 1.444059367344769695e+00 3.233537226473378462e-02
4.924402912672362618e+03 1.423655618373110165e+00 4.058013092768326946e-02
4.929327315585036558e+03 1.424560254941606097e+00 3.636780878598588201e-02
4.934256642900622865e+03 1.446906616831305392e+00 3.724464147033412775e-02
4.939190899543525120e+03 1.486713204827371682e+00 4.269703971055415631e-02
4.944130090443070912e+03 1.531522419870235074e+00 4.268771191967700440e-02
4.949074220533515472e+03 1.583489377014764887e+00 3.985232792290285819e-02
4.954023294754050767e+03 1.617451040353536040e+00 4.107736873095232250e-02
4.958977318048806410e+03 1.637874803725396289e+00 4.685884569893972174e-02
4.963936295366856939e+03 1.569178552532749071e+00 5.866730904830717158e-02
4.968900231662225451e+03 1.421326835534707289e+00 1.142685523148549293e-01
4.973869131893889062e+03 1.393700263960403696e+00 1.109203546518967715e-01
4.978843001025784361e+03 1.410632470949741535e+00 1.083114343787830308e-01
4.983821844026811959e+03 1.528685716547986351e+00 1.160210243503741467e-01
4.988805665870840130e+03 1.619193836857665714e+00 1.268871455322606312e-01
4.993794471536712990e+03 1.740280299332544356e+00 1.283874789411405537e-01
4.998788266008251412e+03 1.850504500433571398e+00 1.268216836813237658e-01
5.003787054274261209e+03 1.924695156262406615e+00 1.147131653671579071e-01
5.008790841328536771e+03 1.990137437323487024e+00 1.101327242162887660e-01
5.013799632169867436e+03 1.943092328611732755e+00 1.106675475382810359e-01
5.018813431802038394e+03 1.854895095334907484e+00 1.161449744463008693e-01
5.023832245233842514e+03 1.728118348046404185e+00 1.135905506822972172e-01
5.028856077479077612e+03 1.563998365737485186e+00 1.099993610714289499e-01
5.033884933556558281e+03 1.430113214588484061e+00 1.013270898917678908e-01
5.038918818490116792e+03 1.275169292193303994e+00 9.469691693858438286e-02
5.043957737308608557e+03 1.208841610096024199e+00 9.443353839460985610e-02
5.049001695045918495e+03 1.237578692235430822e+00 7.982897503277755491e-02
5.054050696740966487e+03 1.279419931553378520e+00 5.118576551728885177e-02
5.059104747437709193e+03 1.292752143409918286e+00 3.937034782616351258e-02
5.064163852185148244e+03 1.253943220773112932e+00 2.378486098895663675e-02
5.069228016037335692e+03 1.214862600234579038e+00 1.271973434894795897e-02
5.074297244053374015e+03 1.199183222280106875e+00 1.133313711767169191e-02
5.079371541297429758e+03 1.207147600790732689e+00 9.395049969522929756e-03
5.084450912838728073e+03 1.219789756538632863e+00 8.893401222466748579e-03
5.089535363751569093e+03 1.237698772747152898e+00 9.525492313026840546e-03
5.094624899115322478e+03 1.255945496149719176e+00 1.058886382047886238e-02
5.099719524014439230e+03 1.274261771743972593e+00 1.063140255557624460e-02
5.104819243538455339e+03 1.288516733603896736e+00 9.356122868981244303e-03
5.109924062781995417e+03 1.294600026776855817e+00 9.154969069569477563e-03
5.115033986844779065e+03 1.287204787473645862e+00 1.236608744016519899e-02
5.120149020831625421e+03 1.282283627398160375e+00 1.268306083507955880e-02
5.125269169852458617e+03 1.276881607511665573e+00 1.381674882347825803e-02
5.130394439022313236e+03 1.274109236322804151e+00 1.347657789244046181e-02
5.135524833461337039e+03 1.277728932375465476e+00 1.364373923191260218e-02
5.140660358294800062e+03 1.287030196928947490e+00 1.381867935957205827e-02
5.145801018653096435e+03 1.294023858954699513e+00 1.461377896401340123e-02
5.150946819671751655e+03 1.310057666592660874e+00 1.425970221440397631e-02
5.156097766491425318e+03 1.315853132450282459e+00 1.411645707389104498e-02
5.161253864257918394e+03 1.326282186235248295e+00 1.367287495820672903e-02
5.166415118122177773e+03 1.324755927224821050e+00 1.393286552313300827e-02
5.171581533240301724e+03 1.321497866649071318e+00 1.438925841668937423e-02
