# starting wavelength: 3354.280
# ending wavelength: 8914.708
# wav flux eflux
3.354809216441465651e+03 -4.495058466657431140e-03 1.736060506620834276e-01
3.358164025657908041e+03 -1.475739058319791575e-02 1.338089819546860182e-01
3.361522189683567376e+03 -1.625011120027566869e-02 9.807755203104925878e-02
3.364883711873251741e+03 3.067110131154959785e-03 7.578655594914282534e-02
3.368248595585126168e+03 2.995994271395654995e-02 5.912340837832409657e-02
3.371616844180712633e+03 5.820414587957370434e-02 4.637932815839650169e-02
3.374988461024894150e+03 8.698396046300652107e-02 3.716157013339265597e-02
3.378363449485920228e+03 1.146404081713528755e-01 3.165215583980327679e-02
3.381741812935407324e+03 1.372640810222729435e-01 2.663856534997963155e-02
3.385123554748343849e+03 1.558421985911132568e-01 2.325077670344040393e-02
3.388508678303093347e+03 1.729458263141690488e-01 2.005594544897336406e-02
3.391897186981397681e+03 1.862991325845468893e-01 1.793046773972881841e-02
3.395289084168380214e+03 2.027441516810275512e-01 1.638816712282696597e-02
3.398684373252549449e+03 2.164179554857822985e-01 1.502490051699850032e-02
3.402083057625803121e+03 2.285434189980978803e-01 1.399409163518294461e-02
3.405485140683430018e+03 2.396612042234268214e-01 1.327350963486584150e-02
3.408890625824114522e+03 2.468848950724215618e-01 1.261730668094034752e-02
3.412299516449939802e+03 2.506052226419380746e-01 1.210315580824425363e-02
3.415711815966390986e+03 2.521798923669977266e-01 1.145536000734263295e-02
3.419127527782358356e+03 2.514974669608630586e-01 1.118885349764045523e-02
3.422546655310141887e+03 2.458151296834898969e-01 1.108491792772950575e-02
3.425969201965453522e+03 2.370883429562510025e-01 1.121407741782402823e-02
3.429395171167419903e+03 2.307420426410212166e-01 1.094541684352919216e-02
3.432824566338588284e+03 2.226469546711636049e-01 1.088615795592534803e-02
3.436257390904928343e+03 2.167464451229498823e-01 1.085371072296003811e-02
3.439693648295834464e+03 2.112965965644318656e-01 1.075104084653057297e-02
3.443133341944131189e+03 2.053861968460519161e-01 1.066273543492047594e-02
3.446576475286076402e+03 2.015052876811319338e-01 1.048613650295744139e-02
3.450023051761363604e+03 2.000323561816583773e-01 1.046184309244713867e-02
3.453473074813126004e+03 1.932245896819941300e-01 8.914533374993149906e-03
3.456926547887940615e+03 1.950117389174519933e-01 8.684006255017964401e-03
3.460383474435829612e+03 1.945438539054396843e-01 8.545005539817275564e-03
3.463843857910266706e+03 1.911845884291671627e-01 8.691936661670366868e-03
3.467307701768178049e+03 1.932997006771418336e-01 8.699436643242340964e-03
3.470775009469947236e+03 1.950900306555292119e-01 8.756343265452781049e-03
3.474245784479418489e+03 1.981345757444000211e-01 8.699012592222457596e-03
3.477720030263898934e+03 2.011697811787281909e-01 8.611183638938512894e-03
3.481197750294164052e+03 2.066338581027387655e-01 7.727336255138451612e-03
3.484678948044459503e+03 2.143756743845871282e-01 6.501617630235587142e-03
3.488163626992504760e+03 2.215693346793704555e-01 6.357600929881037331e-03
3.491651790619498570e+03 2.273137710458055794e-01 6.021783139990539296e-03
3.495143442410119405e+03 2.322056207659078664e-01 5.755684989712068871e-03
3.498638585852530468e+03 2.359989562868472224e-01 5.694688917752164896e-03
3.502137224438384237e+03 2.392232624234223726e-01 5.711229646041717477e-03
3.505639361662823831e+03 2.404612653396545618e-01 5.436239313146100892e-03
3.509145001024487556e+03 2.418103443059675950e-01 5.371100688072531423e-03
3.512654146025513455e+03 2.409165139989228877e-01 5.297256598096435412e-03
3.516166800171540217e+03 2.352748327520293725e-01 5.320617065091060721e-03
3.519682966971712631e+03 2.334837415217479450e-01 5.228580451566979155e-03
3.523202649938685681e+03 2.303005647574875303e-01 5.233828514846491226e-03
3.526725852588625457e+03 2.278039753647037313e-01 5.178047950117758633e-03
3.530252578441215064e+03 2.252081708483946176e-01 5.105863720077904837e-03
3.533782831019657806e+03 2.255258482051965829e-01 5.242536927667565058e-03
3.537316613850678550e+03 2.222456416393565060e-01 5.251564697073219691e-03
3.540853930464530094e+03 2.191799105310757723e-01 5.436415967826960065e-03
3.544394784394995895e+03 2.153898451123110735e-01 5.382031952069070077e-03
3.547939179179392340e+03 2.144393338865795140e-01 5.120794311920411068e-03
3.551487118358572843e+03 2.144513600007138532e-01 4.831166319369927659e-03
3.555038605476932389e+03 2.171741673175039966e-01 5.230706432850476713e-03
3.558593644082410719e+03 2.201214283420128148e-01 5.488941069632729923e-03
3.562152237726494150e+03 2.220789635476504154e-01 5.415343231172561542e-03
3.565714389964221937e+03 2.240490159441774209e-01 5.522215145206518273e-03
3.569280104354187188e+03 2.281639677394932952e-01 5.519846767841879616e-03
3.572849384458542772e+03 2.340353548576161180e-01 5.304632342661363791e-03
3.576422233843002232e+03 2.393862952763110286e-01 5.163170021079161766e-03
3.579998656076846601e+03 2.431302965377071246e-01 5.331959983027986100e-03
3.583578654732924406e+03 2.477973810106172126e-01 4.845022137706169428e-03
3.587162233387658489e+03 2.485632468458194300e-01 4.888809509463296239e-03
3.590749395621047370e+03 2.474961692572350269e-01 5.458987086113698851e-03
3.594340145016669794e+03 2.470412210375350082e-01 5.452477026550447449e-03
3.597934485161687462e+03 2.468928728054938238e-01 5.390356039349245877e-03
3.601532419646850485e+03 2.454183878190479562e-01 5.186603640934877787e-03
3.605133952066498296e+03 2.430785240499333810e-01 5.128605867332051288e-03
3.608739086018566013e+03 2.404844138677122711e-01 5.010138665999526279e-03
3.612347825104585809e+03 2.376837623658762944e-01 5.032327602698242509e-03
3.615960172929691907e+03 2.366142702483287896e-01 4.983467961043623259e-03
3.619576133102622407e+03 2.372358629899425642e-01 5.108262713171206684e-03
3.623195709235726554e+03 2.367198845369351268e-01 4.932615394250819060e-03
3.626818904944963379e+03 2.355874578377665785e-01 4.554529705901685932e-03
3.630445723849909427e+03 2.361224765018423433e-01 4.518309299949330865e-03
3.634076169573760581e+03 2.380696360095292952e-01 4.585968792472435926e-03
3.637710245743335690e+03 2.431184035476825211e-01 4.906436173067794601e-03
3.641347955989080219e+03 2.476915142482752630e-01 4.820069259815403309e-03
3.644989303945070333e+03 2.520913532242097244e-01 4.580623958991266419e-03
3.648634293249016537e+03 2.537167072986704630e-01 4.444904768423448525e-03
3.652282927542266862e+03 2.566076648024921969e-01 4.402717173818095769e-03
3.655935210469810499e+03 2.603378574319789585e-01 4.311548119965080521e-03
3.659591145680281443e+03 2.649809091008393791e-01 4.288850119474461875e-03
3.663250736825963031e+03 2.680783578561544700e-01 4.241643872727008518e-03
3.666913987562790226e+03 2.696695676770692329e-01 4.376042406355531815e-03
3.670580901550354156e+03 2.717964552915793641e-01 4.069197731434053174e-03
3.674251482451905758e+03 2.761050072143154122e-01 4.127678630331151066e-03
3.677925733934358959e+03 2.767401472581820232e-01 4.192801045962354055e-03
3.681603659668294313e+03 2.776415744369138960e-01 4.201365452951825660e-03
3.685285263327964003e+03 2.806130071509038704e-01 4.192171095249596149e-03
3.688970548591293209e+03 2.804042838085750167e-01 4.431904475592177151e-03
3.692659519139885560e+03 2.790618083004216543e-01 4.415508004845734337e-03
3.696352178659026777e+03 2.787369845650813360e-01 4.185014887915170997e-03
3.700048530837686940e+03 2.822083097432381282e-01 4.249895000258386256e-03
3.703748579368525952e+03 2.853781922429565743e-01 4.246559940450913770e-03
3.707452327947895355e+03 2.908547044791758851e-01 4.664221914092154045e-03
3.711159780275844696e+03 2.968685565726745246e-01 5.396557438493672539e-03
3.714870940056121526e+03 3.017982447918668987e-01 5.637937996338950562e-03
3.718585810996179134e+03 3.075551544812654692e-01 5.483898454644691757e-03
3.722304396807176545e+03 3.102094843294010973e-01 5.554181859970321565e-03
3.726026701203984885e+03 3.108784877541321823e-01 5.664169114644463342e-03
3.729752727905190113e+03 3.114707082509819980e-01 5.713974331865239419e-03
3.733482480633096657e+03 3.112864195975264536e-01 6.310455288909867788e-03
3.737215963113731050e+03 3.130082070935693572e-01 6.136644511104423667e-03
3.740953179076846027e+03 3.155427356680305939e-01 6.111151919944125648e-03
3.744694132255923705e+03 3.166489716106012930e-01 6.082025411471396470e-03
3.748438826388181042e+03 3.167833141161680022e-01 6.121603290295821002e-03
3.752187265214570289e+03 3.192845150991882042e-01 6.089741845149839947e-03
3.755939452479786269e+03 3.222469531489475791e-01 6.158406466097630927e-03
3.759695391932267285e+03 3.239206416336077310e-01 6.383302144035108046e-03
3.763455087324201031e+03 3.267125194007635680e-01 6.392135447555381822e-03
3.767218542411526414e+03 3.328654797206258564e-01 6.112467745803223766e-03
3.770985760953939007e+03 3.400201278450183939e-01 5.723601915269012526e-03
3.774756746714894234e+03 3.451259705883139017e-01 5.727439651036439136e-03
3.778531503461610555e+03 3.493337930873267605e-01 5.405886021265061264e-03
3.782310034965073100e+03 3.517736793891056979e-01 5.492524185736065781e-03
3.786092345000039586e+03 3.536673427082533960e-01 5.391200436977889275e-03
3.789878437345040766e+03 3.531646496909808253e-01 5.216132143704862306e-03
3.793668315782387253e+03 3.505268957380149319e-01 4.883730081827795597e-03
3.797461984098170888e+03 3.497738888513584610e-01 4.653919904593444706e-03
3.801259446082270188e+03 3.499578472894146475e-01 4.605120815581476360e-03
3.805060705528353537e+03 3.522026915529748448e-01 4.704184162694937527e-03
3.808865766233883278e+03 3.550001223249058535e-01 4.603709592604325086e-03
3.812674632000118436e+03 3.576251856612219782e-01 4.635521298353000377e-03
3.816487306632119726e+03 3.600316901088588817e-01 4.769055577305658482e-03
3.820303793938753188e+03 3.631678231656570444e-01 4.667255374714458609e-03
3.824124097732693372e+03 3.644065284373240732e-01 4.520571388959365722e-03
3.827948221830427428e+03 3.675244028221004711e-01 4.611854637186965818e-03
3.831776170052258749e+03 3.697814706540797913e-01 4.624066199154077371e-03
3.835607946222312421e+03 3.706074806080188466e-01 4.538883961999000058e-03
3.839443554168536139e+03 3.724339881540051356e-01 4.648269575316845391e-03
3.843282997722705659e+03 3.752866859006537270e-01 4.575399505705895521e-03
3.847126280720429804e+03 3.754485263050636457e-01 4.059985045213549380e-03
3.850973407001151372e+03 3.769208051182519892e-01 4.134826227268594868e-03
3.854824380408153957e+03 3.764807965468576767e-01 4.248965520205230835e-03
3.858679204788563311e+03 3.767331054665112866e-01 4.338731761943390511e-03
3.862537883993353262e+03 3.761243325350041022e-01 4.346732764087772073e-03
3.866400421877347981e+03 3.734213197902237491e-01 4.055843501367944505e-03
3.870266822299226533e+03 3.735872292933770655e-01 3.934326993142173677e-03
3.874137089121526969e+03 3.735200056172858218e-01 3.824084586341171960e-03
3.878011226210649966e+03 3.740272652322499947e-01 3.798766958513177978e-03
3.881889237436861549e+03 3.743100302077317920e-01 3.788073132957578849e-03
3.885771126674299921e+03 3.726279611422538274e-01 3.615837134685795720e-03
3.889656897800975457e+03 3.723846796723612740e-01 3.637621610157014060e-03
3.893546554698777527e+03 3.772833488436609928e-01 4.371453958387548112e-03
3.897440101253477678e+03 3.825006487815697520e-01 5.229781231567156262e-03
3.901337541354732366e+03 3.882516539371233533e-01 5.930783321802989005e-03
3.905238878896088409e+03 3.902348478046704927e-01 5.689280199802410412e-03
3.909144117774985716e+03 3.853426395045083663e-01 6.023836841130421685e-03
3.913053261892762293e+03 3.813918230203263704e-01 6.753830381993872027e-03
3.916966315154656058e+03 3.744798846458909924e-01 7.637473997839008995e-03
3.920883281469812118e+03 3.656960695849615361e-01 7.936142571532201970e-03
3.924804164751283224e+03 3.614245134397053305e-01 7.842638033965282710e-03
3.928728968916035683e+03 3.649297494331463776e-01 8.553448712248621147e-03
3.932657697884953450e+03 3.690471956786736674e-01 9.327089817493396107e-03
3.936590355582839493e+03 3.762657883687676175e-01 9.703715900220698243e-03
3.940526945938423523e+03 3.833576152040542584e-01 9.589535300939420678e-03
3.944467472884363360e+03 3.896064061247583865e-01 9.416164125788323638e-03
3.948411940357249023e+03 3.941461022127167868e-01 9.084275381783982195e-03
3.952360352297607733e+03 4.023088596265194661e-01 9.378334691607450452e-03
3.956312712649906643e+03 4.049973136378208771e-01 1.010768217319460080e-02
3.960269025362557841e+03 4.077703922526689784e-01 9.592340792849650064e-03
3.964229294387921527e+03 4.045239285586190725e-01 8.106273821691968584e-03
3.968193523682310570e+03 4.062636530079637431e-01 8.135302348475521514e-03
3.972161717205994591e+03 4.115451145582358916e-01 8.555628726051053498e-03
3.976133878923201792e+03 4.203278591603845649e-01 8.026284623908900087e-03
3.980110012802126221e+03 4.267257751265632337e-01 7.334243086735165763e-03
3.984090122814929600e+03 4.314242164260316814e-01 6.899621416101324282e-03
3.988074212937745870e+03 4.361704234478783193e-01 7.294231153936725325e-03
3.992062287150684824e+03 4.349877489975245148e-01 7.367992439037835024e-03
3.996054349437837118e+03 4.319437625545501369e-01 5.755167853328643258e-03
4.000050403787276082e+03 4.297243560755687475e-01 5.093241091492681574e-03
4.004050454191064546e+03 4.292351923556659843e-01 5.027023867303024793e-03
4.008054504645257111e+03 4.324468748359184822e-01 5.416517926912093120e-03
4.012062559149903791e+03 4.344843276129282672e-01 5.465976250098332663e-03
4.016074621709055009e+03 4.419680032994141028e-01 4.667737224471897595e-03
4.020090696330765240e+03 4.483034532968369623e-01 4.540055249451570817e-03
4.024110787027097558e+03 4.518669097223845244e-01 4.561698644187847478e-03
4.028134897814125907e+03 4.516413986343717490e-01 4.044663484210022329e-03
4.032163032711941469e+03 4.502538568419068854e-01 3.650055690394482175e-03
4.036195195744654484e+03 4.506483408090160014e-01 3.699162970162735067e-03
4.040231390940400615e+03 4.525578846307528047e-01 3.683397495132499384e-03
4.044271622331342314e+03 4.535143644215949843e-01 3.665612078220700266e-03
4.048315893953675186e+03 4.560355994701756344e-01 3.646511941736142910e-03
4.052364209847629809e+03 4.589116545977095507e-01 3.446333053858312984e-03
4.056416574057479011e+03 4.599960280680517877e-01 3.400967462961969074e-03
4.060472990631537868e+03 4.633605251580574791e-01 3.394981279056077765e-03
4.064533463622170530e+03 4.648014222578712440e-01 3.490732880103117851e-03
4.068597997085794304e+03 4.670931750794710680e-01 3.474234972471494914e-03
4.072666595082881486e+03 4.717131221546216890e-01 3.413734471409793879e-03
4.076739261677965715e+03 4.791822944930758110e-01 3.527840857426923268e-03
4.080816000939644709e+03 4.853486275884165146e-01 3.287767035101032791e-03
4.084896816940585722e+03 4.932450190902802900e-01 3.372236230184085144e-03
4.088981713757527814e+03 5.011349077931223084e-01 3.110039544963368041e-03
4.093070695471286854e+03 5.079623766811864893e-01 3.340840254480040208e-03
4.097163766166759160e+03 5.161423219873751966e-01 2.516575382732253070e-03
4.101260929932927866e+03 5.185655349052665786e-01 2.623015984051333717e-03
4.105362190862862008e+03 5.183124423620233401e-01 2.818641124665525067e-03
4.109467553053726078e+03 5.159515943322453557e-01 3.075977417006107301e-03
4.113577020606780934e+03 5.124419691485296857e-01 3.012400794852025058e-03
4.117690597627389252e+03 5.074142077849427279e-01 3.072573244197082144e-03
4.121808288225018259e+03 5.015057900552372105e-01 2.876149736304525750e-03
4.125930096513244280e+03 4.973328478831617883e-01 2.837735961361101920e-03
4.130056026609759101e+03 4.929900764481416897e-01 2.888612650223343521e-03
4.134186082636369974e+03 4.893356804712269414e-01 3.049427066810731380e-03
4.138320268719007800e+03 4.862093868813724407e-01 3.119702320102222311e-03
4.142458588987728035e+03 4.872810400003534936e-01 2.775992259684334062e-03
4.146601047576717065e+03 4.892948973816403369e-01 3.111413273127602939e-03
4.150747648624294925e+03 4.899142863736544173e-01 3.135552395027725158e-03
4.154898396272920763e+03 4.900398347907460872e-01 3.291332922891533706e-03
4.159053294669195566e+03 4.913282018059931255e-01 3.303141534713011605e-03
4.163212347963865795e+03 4.952675537350783586e-01 3.363961969275899942e-03
4.167375560311830668e+03 5.008646314286816503e-01 3.635939946994779827e-03
4.171542935872143971e+03 5.068819184621010665e-01 3.816927573396103508e-03
4.175714478808017702e+03 5.117149985556972425e-01 3.750570950711507295e-03
4.179890193286827525e+03 5.153434041787277042e-01 3.751928586337393862e-03
4.184070083480115500e+03 5.173973168362092645e-01 3.810381154603088415e-03
4.188254153563597356e+03 5.172120462558551512e-01 3.915526088972707576e-03
4.192442407717161586e+03 5.166542621915610756e-01 4.123032579808853272e-03
4.196634850124880359e+03 5.158991400876565825e-01 3.881898153627843465e-03
4.200831484975006788e+03 5.156255133159670656e-01 3.925403893398915663e-03
4.205032316459983122e+03 5.153464527007819429e-01 4.005992078481371461e-03
4.209237348776444378e+03 5.168167321344782073e-01 4.053669623420810830e-03
4.213446586125221984e+03 5.194912709975066933e-01 4.064631146199469171e-03
4.217660032711349231e+03 5.217140291421842324e-01 3.964149676953556724e-03
4.221877692744061278e+03 5.273569463877708641e-01 4.124095924030968426e-03
4.226099570436806971e+03 5.320184374390973803e-01 3.375720789019770983e-03
4.230325670007245208e+03 5.360862855993909770e-01 3.205988212403958464e-03
4.234555995677254032e+03 5.385923735380707678e-01 3.318920534787629488e-03
4.238790551672932452e+03 5.382641421774130297e-01 3.184473527522365798e-03
4.243029342224606808e+03 5.376378498595184574e-01 3.376093662967404214e-03
4.247272371566832589e+03 5.368838898076379040e-01 3.458533424532458846e-03
4.251519643938400804e+03 5.361350689178917550e-01 3.414734488875142190e-03
4.255771163582340705e+03 5.374026962790844353e-01 3.536760872723288939e-03
4.260026934745924336e+03 5.395280107937118208e-01 3.445201667100569829e-03
4.264286961680671993e+03 5.402229174287144220e-01 3.318720163350284517e-03
4.268551248642354039e+03 5.447805284964297723e-01 3.666189427090886781e-03
4.272819799890998183e+03 5.468575555763005580e-01 3.834701718451820427e-03
4.277092619690890388e+03 5.498821627475741769e-01 3.147880364651373369e-03
4.281369712310583054e+03 5.507771675023550584e-01 2.893774412577171645e-03
4.285651082022895025e+03 5.494003947129947329e-01 2.996221433898382368e-03
4.289936733104918858e+03 5.465692053850190746e-01 2.952157871538370944e-03
4.294226669838025373e+03 5.425167450878084496e-01 3.404410689480324905e-03
4.298520896507864563e+03 5.385674153994053359e-01 4.092581176598920900e-03
4.302819417404373780e+03 5.391532415770052822e-01 4.060901686944683869e-03
4.307122236821779552e+03 5.377526717501338593e-01 2.412673697437645124e-03
4.311429359058603040e+03 5.430999978208076451e-01 2.363055624790927518e-03
4.315740788417662770e+03 5.530522368612856843e-01 2.419458431090712371e-03
4.320056529206081905e+03 5.664768852302468627e-01 2.333083073712443386e-03
4.324376585735290064e+03 5.835832352481509222e-01 2.969961813652978455e-03
4.328700962321026054e+03 6.027153329362772149e-01 3.673888748245895952e-03
4.333029663283348782e+03 6.189346806919580057e-01 3.746138338648732306e-03
4.337362692946633615e+03 6.352568803123311847e-01 3.534710374271402868e-03
4.341700055639581478e+03 6.428330802212931516e-01 3.524466446299973944e-03
4.346041755695222491e+03 6.445541416186431061e-01 4.025899831358688806e-03
4.350387797450919606e+03 6.438553817875117824e-01 4.189128075431021100e-03
4.354738185248371337e+03 6.362803444393856367e-01 4.369150556474440776e-03
4.359092923433621763e+03 6.287082786144488900e-01 4.033996707972485954e-03
4.363452016357056891e+03 6.203315727460003703e-01 3.761297371768645634e-03
4.367815468373414660e+03 6.101420967704292986e-01 3.874068416288590447e-03
