# starting wavelength: 2740.864
# ending wavelength: 8220.942
# wav flux eflux
2.741474285452774438e+03 1.640639223327611695e+00 3.914529541874384178e-01
2.744215759738227916e+03 1.845972643079792030e+00 3.132631020937505228e-01
2.746959975497967207e+03 1.927356544593532117e+00 2.563723582633484210e-01
2.749706935473466274e+03 1.984314848866532754e+00 1.952533305690225818e-01
2.752456642408940297e+03 1.971387455402166644e+00 1.698794911309021161e-01
2.755209099051350222e+03 1.989362330245567412e+00 1.343220718556882576e-01
2.757964308150402758e+03 2.007619695391754888e+00 1.107456569466902657e-01
2.760722272458554016e+03 2.000812104382805767e+00 9.305778891307271705e-02
2.763482994731013605e+03 1.978382059746557342e+00 8.290168041340256755e-02
2.766246477725745535e+03 1.943003278693542279e+00 7.139045197070585658e-02
2.769012724203471862e+03 1.906268700671429173e+00 6.258497467588433616e-02
2.771781736927676320e+03 1.870714572679488930e+00 5.633975502513274836e-02
2.774553518664604780e+03 1.826262725548944088e+00 5.144034836559943646e-02
2.777328072183270706e+03 1.780422460448707556e+00 4.777179891801733302e-02
2.780105400255454697e+03 1.750927147341822421e+00 4.481951374216358586e-02
2.782885505655710858e+03 1.729398154645946928e+00 4.241165617977012831e-02
2.785668391161367708e+03 1.733379170146345905e+00 4.088965618250590267e-02
2.788454059552529998e+03 1.757036083832693274e+00 4.101936154005123708e-02
2.791242513612083258e+03 1.777575833329571475e+00 4.038482888939341764e-02
2.794033756125696527e+03 1.807614278925447016e+00 4.075912899094473463e-02
2.796827789881823264e+03 1.852322995177930975e+00 4.232470083010010653e-02
2.799624617671705892e+03 1.870516454143952512e+00 4.217531109653121363e-02
2.802424242289378526e+03 1.920506110369439634e+00 4.147376703188578040e-02
2.805226666531668798e+03 1.958738541296240809e+00 4.141740651017777886e-02
2.808031893198201487e+03 1.989183416261054216e+00 4.160104130858208876e-02
2.810839925091400346e+03 2.014116299435201984e+00 4.125483278248183450e-02
2.813650765016492642e+03 2.046911696198997710e+00 4.130002964934433723e-02
2.816464415781510070e+03 2.083929570483333382e+00 4.120329707283765935e-02
2.819280880197292845e+03 2.105827125230382624e+00 4.119705718169280190e-02
2.822100161077491066e+03 2.122383090441127607e+00 4.053749315333488729e-02
2.824922261238569263e+03 2.124702008597718628e+00 4.070166495428986786e-02
2.827747183499808671e+03 2.135988944218289554e+00 4.016479624368405471e-02
2.830574930683309503e+03 2.134738637185353394e+00 4.024146076131777244e-02
2.833405505613993682e+03 2.133512361048191419e+00 4.000100203244089103e-02
2.836238911119608929e+03 2.113841714894234780e+00 3.887800258031295225e-02
2.839075150030729219e+03 2.082573127231396093e+00 3.849135071229174698e-02
2.841914225180761150e+03 2.056564183422794567e+00 3.674029609360802279e-02
2.844756139405942577e+03 2.028358236416303306e+00 3.554602123967500610e-02
2.847600895545349431e+03 2.013990478848506349e+00 3.457152685259079483e-02
2.850448496440895724e+03 2.002684457730793621e+00 3.429650750925012509e-02
2.853298944937337637e+03 1.981930909838685029e+00 3.295342313930623573e-02
2.856152243882275798e+03 2.005703478735150203e+00 3.102034835888951847e-02
2.859008396126159369e+03 2.008643874590953615e+00 3.100640381732628487e-02
2.861867404522286051e+03 2.026895876234851901e+00 3.216072022568447486e-02
2.864729271926809361e+03 2.042193118382517270e+00 3.181625372681599201e-02
2.867594001198737260e+03 2.065584547390894254e+00 2.929630875263717488e-02
2.870461595199936710e+03 2.077201207736655508e+00 2.956018274977654722e-02
2.873332056795137760e+03 2.089680745669157513e+00 2.887547517024283139e-02
2.876205388851934003e+03 2.087622335217404146e+00 2.841927152863201952e-02
2.879081594240786671e+03 2.090403263426903191e+00 2.771805860229425642e-02
2.881960675835028724e+03 2.086672434821282174e+00 2.767661219415083751e-02
2.884842636510864395e+03 2.101417520099820635e+00 2.801778039481879479e-02
2.887727479147376471e+03 2.123538634125203384e+00 2.755824314159432617e-02
2.890615206626524468e+03 2.141111023751343101e+00 2.716445730677003248e-02
2.893505821833151913e+03 2.159140996025148862e+00 2.672712552063494229e-02
2.896399327654986337e+03 2.167718697591352495e+00 2.680077207672217771e-02
2.899295726982642009e+03 2.163750210167634247e+00 2.545823096985629086e-02
2.902195022709625846e+03 2.180008377537771658e+00 2.503617916112509806e-02
2.905097217732336503e+03 2.191802197003892783e+00 2.569284285141672231e-02
2.908002314950069831e+03 2.179924557600227963e+00 2.473656310639559333e-02
2.910910317265020694e+03 2.201450488329337318e+00 2.547271372797963590e-02
2.913821227582286610e+03 2.213897069928432160e+00 2.510608906904781418e-02
2.916735048809870023e+03 2.203531715158971949e+00 2.506202526943402537e-02
2.919651783858680574e+03 2.181295055708457387e+00 2.576164022845471926e-02
2.922571435642540564e+03 2.146103211732018234e+00 2.773863120182892827e-02
2.925494007078184040e+03 2.127182420219065673e+00 2.846108819086521843e-02
2.928419501085263164e+03 2.115087825641283725e+00 2.818916691959233792e-02
2.931347920586349119e+03 2.119500764287648220e+00 2.874563764855608827e-02
2.934279268506936660e+03 2.111501268457732117e+00 2.860366114756631578e-02
2.937213547775444567e+03 2.098473602138239080e+00 2.846616500653092671e-02
2.940150761323221104e+03 2.087849290768177823e+00 2.844289458501449500e-02
2.943090912084544925e+03 2.068788379536363298e+00 2.822518482083765864e-02
2.946034002996630534e+03 2.043315189443901225e+00 2.863669325129901758e-02
2.948980036999628283e+03 2.022708341966715562e+00 2.791808357920754630e-02
2.951929017036628920e+03 2.024862792940427703e+00 2.796406610857955430e-02
2.954880946053666321e+03 2.039110434390345450e+00 2.732454783817827443e-02
2.957835826999721121e+03 2.069359951445940204e+00 2.818870704315811285e-02
2.960793662826721629e+03 2.084858307599516181e+00 2.783329183186946179e-02
2.963754456489549284e+03 2.110963401910339154e+00 2.775730310746687621e-02
2.966718210946040017e+03 2.126066766913943695e+00 2.713003065987220144e-02
2.969684929156986982e+03 2.131645640906315808e+00 2.745597470383272232e-02
2.972654614086145102e+03 2.137947698989101308e+00 2.713701190035893926e-02
2.975627268700231980e+03 2.125359768799386373e+00 2.735255693922651610e-02
2.978602895968933353e+03 2.127523690370222376e+00 2.690956251597950016e-02
2.981581498864903097e+03 2.123776431999087944e+00 2.676451156417682803e-02
2.984563080363769132e+03 2.105951315640120391e+00 2.675132253470451776e-02
2.987547643444133882e+03 2.087180161643745979e+00 2.662516089434066244e-02
2.990535191087578823e+03 2.067115076331178525e+00 2.566457114897111036e-02
2.993525726278667662e+03 2.049815248025443459e+00 2.558901328785805063e-02
2.996519252004947248e+03 2.040448865411645940e+00 2.584022978371264961e-02
2.999515771256953030e+03 2.020097742772514859e+00 2.527784375056292554e-02
3.002515287028211333e+03 2.021737703358386540e+00 2.461158183330476590e-02
3.005517802315240260e+03 2.013482794231462591e+00 2.430867705561549907e-02
3.008523320117556523e+03 2.003970803962812575e+00 2.353891856223660692e-02
3.011531843437674979e+03 1.994974582501156002e+00 2.301437482033912366e-02
3.014543375281113640e+03 1.992444291309592330e+00 2.283945800548986202e-02
3.017557918656395941e+03 1.998503351222942426e+00 2.280258455003334947e-02
3.020575476575053472e+03 2.014619898257719921e+00 2.142946320221091744e-02
3.023596052051629158e+03 2.040333091659579434e+00 2.031316042020831630e-02
3.026619648103681811e+03 2.055498402234041677e+00 2.019346495046498574e-02
3.029646267751786581e+03 2.066456015566938920e+00 2.025399157044812173e-02
3.032675914019539505e+03 2.069382605494465732e+00 2.020950445891788599e-02
3.035708589933559779e+03 2.066300435153576753e+00 1.982054712167660368e-02
3.038744298523494763e+03 2.063074626090072528e+00 1.905964249413193839e-02
3.041783042822019070e+03 2.061680321064129462e+00 1.995982361858049392e-02
3.044824825864842296e+03 2.047127707743149116e+00 1.991424858554049701e-02
3.047869650690708113e+03 2.035609595995192755e+00 1.978593349171944502e-02
3.050917520341399722e+03 2.025678555474266229e+00 1.860995792994299403e-02
3.053968437861742132e+03 2.016030278373402318e+00 1.851942268452781010e-02
3.057022406299604881e+03 2.001290316663220548e+00 1.884222138918735523e-02
3.060079428705905229e+03 1.984523503349199913e+00 1.842987498904532367e-02
3.063139508134612242e+03 1.982945353984120196e+00 1.884991562568118575e-02
3.066202647642748161e+03 1.980954992630038491e+00 1.919753482915655812e-02
3.069268850290391583e+03 1.963348873981241693e+00 2.043745174945641244e-02
3.072338119140682920e+03 1.958492392424962869e+00 2.072764272173645284e-02
3.075410457259824852e+03 1.968449868303238759e+00 2.102340797521753263e-02
3.078485867717085512e+03 1.985251544910215049e+00 2.157679799104518861e-02
3.081564353584803939e+03 1.991241030344938157e+00 2.102293854769789888e-02
3.084645917938389630e+03 2.001243945225119614e+00 2.106233326057084174e-02
3.087730563856328899e+03 2.016021161809462559e+00 2.127131423720718742e-02
3.090818294420186248e+03 2.025672753399988757e+00 2.092632543049921870e-02
3.093909112714607545e+03 2.032566317891225882e+00 2.065037499946685909e-02
3.097003021827323209e+03 2.026402310775007098e+00 2.063522582752493062e-02
3.100100024849151396e+03 2.018658538227310562e+00 2.112089441902635298e-02
3.103200124874001631e+03 2.009297735329764301e+00 2.053135695778446693e-02
3.106303324998876633e+03 2.016772796828329106e+00 2.084285270146525246e-02
3.109409628323876859e+03 2.016374058314991835e+00 2.118653725839625412e-02
3.112519037952201415e+03 2.004960445291192883e+00 2.090942369418723537e-02
3.115631556990154877e+03 1.995657138524890684e+00 2.083686151864816080e-02
3.118747188547145925e+03 1.998052359498453390e+00 2.031281139748019118e-02
3.121865935735694165e+03 2.002855903942710292e+00 2.059074255641278953e-02
3.124987801671431043e+03 2.008163390100256684e+00 2.057495713240948751e-02
3.128112789473103476e+03 1.997155534034266822e+00 2.014619182393473026e-02
3.131240902262577492e+03 1.993529469379419439e+00 2.043811526204287674e-02
3.134372143164840963e+03 1.987738903267804780e+00 2.035984521143462123e-02
3.137506515308006783e+03 1.975685962747911084e+00 2.072134052503455531e-02
3.140644021823316052e+03 1.975335477766010817e+00 2.070550411302277821e-02
3.143784665845140353e+03 1.995979995459354450e+00 2.056468901496224383e-02
3.146928450510986750e+03 1.985224117077516226e+00 2.065778574971157897e-02
3.150075378961498700e+03 1.970887711773843920e+00 1.964048388157307520e-02
3.153225454340461056e+03 1.964392017078355979e+00 1.892235526812158924e-02
3.156378679794802792e+03 1.961159888922696215e+00 1.871825429198772581e-02
3.159535058474598372e+03 1.960320684807028035e+00 1.885708109372271485e-02
3.162694593533074112e+03 1.958248857212564031e+00 1.837630221149550921e-02
3.165857288126608182e+03 1.963257980659659951e+00 1.816998182412885368e-02
3.169023145414736064e+03 1.967030516331104817e+00 1.801246818285909962e-02
3.172192168560151458e+03 1.969640898826241715e+00 1.783431230099461959e-02
3.175364360728712654e+03 1.975891638921464688e+00 1.764222614088754165e-02
3.178539725089442527e+03 1.981383461229243137e+00 1.703225108231941343e-02
3.181718264814533086e+03 2.005525613020691544e+00 1.707295982360075570e-02
3.184899983079348658e+03 2.029421049295565993e+00 1.737607910264920077e-02
3.188084883062429071e+03 2.037003921859424693e+00 1.695678300964344881e-02
3.191272967945492383e+03 2.042516701634240928e+00 1.725960302190181553e-02
3.194464240913438971e+03 2.047772076171339162e+00 1.689737259285441565e-02
3.197658705154353811e+03 2.052541303688189878e+00 1.697042104542511101e-02
3.200856363859509202e+03 2.051799344564213534e+00 1.664476264527786978e-02
3.204057220223369768e+03 2.050159783857712359e+00 1.664100913193131484e-02
3.207261277443593826e+03 2.034126550320085158e+00 1.660354925518275210e-02
3.210468538721038840e+03 2.026956719732681211e+00 1.637088485375310515e-02
3.213679007259760965e+03 2.026528666529654021e+00 1.568527999181439439e-02
3.216892686267021418e+03 2.039894066756911428e+00 1.549529417156613083e-02
3.220109578953289656e+03 2.034363000784458642e+00 1.531153057921594458e-02
3.223329688532243836e+03 2.033000280480256272e+00 1.501560033074415303e-02
3.226553018220777176e+03 2.043136628987372916e+00 1.482315699946378136e-02
3.229779571238999324e+03 2.053389047624889052e+00 1.432417039022630678e-02
3.233009350810239084e+03 2.067208758200855812e+00 1.376954479234811062e-02
3.236242360161050783e+03 2.069651520534927513e+00 1.397561517252877625e-02
3.239478602521212906e+03 2.067099518923120716e+00 1.408799912144769600e-02
3.242718081123734919e+03 2.061648862108195424e+00 1.454802169473373187e-02
3.245960799204859995e+03 2.050362510469834199e+00 1.425173452142404831e-02
3.249206760004065927e+03 2.035840948692902330e+00 1.415777217141402436e-02
3.252455966764071036e+03 2.022175549779169579e+00 1.439915274217312691e-02
3.255708422730835991e+03 2.016103579530576173e+00 1.396832284366312030e-02
3.258964131153567905e+03 2.019177424897553585e+00 1.392923697758741662e-02
3.262223095284722604e+03 2.013278444708927140e+00 1.424390921077186775e-02
3.265485318380008266e+03 2.015273018285573148e+00 1.591896329022102555e-02
3.268750803698389518e+03 2.001069864498270512e+00 1.571886233122029089e-02
3.272019554502088795e+03 1.975550464216170088e+00 1.710285892207425579e-02
3.275291574056592253e+03 1.956621781551035832e+00 1.738647497784190366e-02
3.278566865630649772e+03 1.934278570606814185e+00 1.760140369683355424e-02
3.281845432496281319e+03 1.925283356029086956e+00 1.765971882473360566e-02
3.285127277928778767e+03 1.907633361650359571e+00 1.706168152905737298e-02
3.288412405206708627e+03 1.897057524108946680e+00 1.677711692637308405e-02
3.291700817611916591e+03 1.891709991945828673e+00 1.665403200337556636e-02
3.294992518429529355e+03 1.910863540665956872e+00 1.905625422112426984e-02
3.298287510947960072e+03 1.917999054155008709e+00 1.908873891455117183e-02
3.301585798458909267e+03 1.936028249353425101e+00 1.878051615002289398e-02
3.304887384257369376e+03 1.942001668564881323e+00 1.873176583032045914e-02
3.308192271641627485e+03 1.952946584474336778e+00 1.833032077031926041e-02
3.311500463913270323e+03 1.963992876793945630e+00 1.857108914512017525e-02
3.314811964377184722e+03 1.967017010821994427e+00 1.875354907366752824e-02
3.318126776341563072e+03 1.945978855398819984e+00 1.869080217016884371e-02
3.321444903117905596e+03 1.931747303748664324e+00 1.855760768827922555e-02
3.324766348021024896e+03 1.929287077960362362e+00 1.888676974795934146e-02
3.328091114369046863e+03 1.929904458112777776e+00 1.902959323396728047e-02
3.331419205483417045e+03 1.927119091381093163e+00 1.942114935956240282e-02
3.334750624688901553e+03 1.918802901331549959e+00 1.906184591322823349e-02
3.338085375313591612e+03 1.932928126844623451e+00 1.804221418527647905e-02
3.341423460688906289e+03 1.930332748557520572e+00 1.772287689483805981e-02
3.344764884149596128e+03 1.931983037114996860e+00 1.818198059769766603e-02
3.348109649033746791e+03 1.940007045582877732e+00 1.802636023688349715e-02
3.351457758682781787e+03 1.951985413526563962e+00 1.810555793744486261e-02
3.354809216441465651e+03 1.961107852061799051e+00 1.860283887127373026e-02
3.358164025657908041e+03 1.970471431262164508e+00 1.893896038852427993e-02
3.361522189683567376e+03 1.984993485620867082e+00 1.816508624589757703e-02
3.364883711873251741e+03 1.988408165537732808e+00 1.808456836007779969e-02
3.368248595585126168e+03 1.984911928152691907e+00 1.758475620543206025e-02
3.371616844180712633e+03 1.985808491113793650e+00 1.798126645845073840e-02
3.374988461024894150e+03 1.982887563560250088e+00 1.828139495094116898e-02
3.378363449485920228e+03 1.986783026625728921e+00 1.726483157875004920e-02
3.381741812935407324e+03 1.976308005110043453e+00 1.669853780645344510e-02
3.385123554748343849e+03 1.971509492351120052e+00 1.728260264384084630e-02
3.388508678303093347e+03 1.957533277546390060e+00 1.694341751260298665e-02
3.391897186981397681e+03 1.944925500787377803e+00 1.698331475659619130e-02
3.395289084168380214e+03 1.926993531250491110e+00 1.674312873462465226e-02
3.398684373252549449e+03 1.894110643808125882e+00 1.624682527817272390e-02
3.402083057625803121e+03 1.879183187722510251e+00 1.613179988904417383e-02
3.405485140683430018e+03 1.852311337470506913e+00 1.554081977784830572e-02
3.408890625824114522e+03 1.832242467364640248e+00 1.549188687035146783e-02
3.412299516449939802e+03 1.821153870896631277e+00 1.502635792135489229e-02
3.415711815966390986e+03 1.823244905034721031e+00 1.521661646902189823e-02
3.419127527782358356e+03 1.838438385508472273e+00 1.632819387428777538e-02
3.422546655310141887e+03 1.858441039150501517e+00 1.510842887740012318e-02
3.425969201965453522e+03 1.873286841178193551e+00 1.396977886118114763e-02
3.429395171167419903e+03 1.884950083584074010e+00 1.419739877810283213e-02
3.432824566338588284e+03 1.904582173000490819e+00 1.439671457329698076e-02
3.436257390904928343e+03 1.916258619223084381e+00 1.411806030914669260e-02
3.439693648295834464e+03 1.916378978574614145e+00 1.338103758885854019e-02
3.443133341944131189e+03 1.905097006099530255e+00 1.331601715277665882e-02
3.446576475286076402e+03 1.910410945595936383e+00 1.407056228152673942e-02
3.450023051761363604e+03 1.903206202917776757e+00 1.446300735999323656e-02
3.453473074813126004e+03 1.893250684963047936e+00 1.428938389531515286e-02
3.456926547887940615e+03 1.890738475495605364e+00 1.379549573363960703e-02
3.460383474435829612e+03 1.881998210622864987e+00 1.367058905190588619e-02
3.463843857910266706e+03 1.871515158017681202e+00 1.356173478925495890e-02
3.467307701768178049e+03 1.864277138896868857e+00 1.334318502688881455e-02
3.470775009469947236e+03 1.854248825314263271e+00 1.352041375081120336e-02
3.474245784479418489e+03 1.847077351015365076e+00 1.384748163187883921e-02
3.477720030263898934e+03 1.838174967099502455e+00 1.439533332723130429e-02
3.481197750294164052e+03 1.829641666115481069e+00 1.398807736803951013e-02
3.484678948044459503e+03 1.839190211013088661e+00 1.368709911714305859e-02
3.488163626992504760e+03 1.852156367795887215e+00 1.372229789254430891e-02
3.491651790619498570e+03 1.863845810638940170e+00 1.413068033090496278e-02
3.495143442410119405e+03 1.869247000298640549e+00 1.425356217167435963e-02
3.498638585852530468e+03 1.886365158590964430e+00 1.378835403134307490e-02
3.502137224438384237e+03 1.906852389496537015e+00 1.373443066740359132e-02
3.505639361662823831e+03 1.918441554591945097e+00 1.418458467963287610e-02
3.509145001024487556e+03 1.927325155557800374e+00 1.441974122285099268e-02
3.512654146025513455e+03 1.934333701893643731e+00 1.359577608549086478e-02
3.516166800171540217e+03 1.928503746812327169e+00 1.325956335469974379e-02
3.519682966971712631e+03 1.922217495748886229e+00 1.296378269147081472e-02
3.523202649938685681e+03 1.902357735995157118e+00 1.379735847980271060e-02
3.526725852588625457e+03 1.886658184132688154e+00 1.400203651329249080e-02
3.530252578441215064e+03 1.886158369493575071e+00 1.450988806800863375e-02
3.533782831019657806e+03 1.878777318737751001e+00 1.455180953613833400e-02
3.537316613850678550e+03 1.868247489265904671e+00 1.458378091078582281e-02
3.540853930464530094e+03 1.868550292102928001e+00 1.441249131880249432e-02
3.544394784394995895e+03 1.873270727055597940e+00 1.417942241588634675e-02
3.547939179179392340e+03 1.869137765317435917e+00 1.427918771518653374e-02
3.551487118358572843e+03 1.861431690524289140e+00 1.444716261130294527e-02
3.555038605476932389e+03 1.867375357770592048e+00 1.361646113948331537e-02
3.558593644082410719e+03 1.867022162979094624e+00 1.345700142762552322e-02
3.562152237726494150e+03 1.854244765221621183e+00 1.313509904129367585e-02
3.565714389964221937e+03 1.848273230777131904e+00 1.356642930631626540e-02
3.569280104354187188e+03 1.826325921730245438e+00 1.463323753625012102e-02
