# starting wavelength: 3043.868
# ending wavelength: 8952.731
# wav flux eflux
3.044824825864842296e+03 2.002544362414904633e+00 5.323310843929427438e-01
3.047869650690708113e+03 1.774687909980401601e+00 3.866038179478203940e-01
3.050917520341399722e+03 1.604066180239715589e+00 2.875513714804043275e-01
3.053968437861742132e+03 1.467104027465296223e+00 2.258281556904611076e-01
3.057022406299604881e+03 1.379774991700293718e+00 1.746636105409478668e-01
3.060079428705905229e+03 1.319794221831762426e+00 1.413178692552869709e-01
3.063139508134612242e+03 1.307241233914407275e+00 1.165787642876270069e-01
3.066202647642748161e+03 1.335591881656766899e+00 9.590055632819557974e-02
3.069268850290391583e+03 1.377170500281062582e+00 8.137211153875323344e-02
3.072338119140682920e+03 1.431668565511857949e+00 6.956938304556273267e-02
3.075410457259824852e+03 1.477108945145527708e+00 6.321337731212632594e-02
3.078485867717085512e+03 1.533558260976022547e+00 5.711464408267001580e-02
3.081564353584803939e+03 1.590474152972054300e+00 5.216210955550048406e-02
3.084645917938389630e+03 1.634779469111657280e+00 4.843608287154038683e-02
3.087730563856328899e+03 1.678588357724675850e+00 4.536371961007227421e-02
3.090818294420186248e+03 1.699604056303930966e+00 4.342375649197615511e-02
3.093909112714607545e+03 1.685191242337415574e+00 4.472099157784237278e-02
3.097003021827323209e+03 1.691085575901083660e+00 4.367589368318604975e-02
3.100100024849151396e+03 1.684010712012446787e+00 4.386455401442690416e-02
3.103200124874001631e+03 1.659632726582515927e+00 4.668204053593560249e-02
3.106303324998876633e+03 1.635702092506403638e+00 4.878070257725131836e-02
3.109409628323876859e+03 1.590350594973490406e+00 5.040936161398419657e-02
3.112519037952201415e+03 1.548409126605731601e+00 4.845571442901048381e-02
3.115631556990154877e+03 1.537976807403077961e+00 4.586510297347100307e-02
3.118747188547145925e+03 1.525008942417881208e+00 4.427796569357841244e-02
3.121865935735694165e+03 1.523760400477411681e+00 4.403728970850041835e-02
3.124987801671431043e+03 1.561095777487085945e+00 4.716713898827467472e-02
3.128112789473103476e+03 1.568959055142975512e+00 4.769343374280960585e-02
3.131240902262577492e+03 1.600455762954167138e+00 4.882285151871898488e-02
3.134372143164840963e+03 1.627304764438127105e+00 4.918607346780847628e-02
3.137506515308006783e+03 1.645701890921788202e+00 4.967346242145539298e-02
3.140644021823316052e+03 1.656636573019108383e+00 4.979199540665895513e-02
3.143784665845140353e+03 1.698891622272430846e+00 4.711094362999750790e-02
3.146928450510986750e+03 1.712938890808533676e+00 4.509783598541250438e-02
3.150075378961498700e+03 1.714027951457184784e+00 4.466727690517652977e-02
3.153225454340461056e+03 1.717679802115122500e+00 4.413634554879724420e-02
3.156378679794802792e+03 1.711196245066060051e+00 4.410062743804954444e-02
3.159535058474598372e+03 1.685549105656088287e+00 4.273079072818410096e-02
3.162694593533074112e+03 1.655179793632096219e+00 4.433673568043104002e-02
3.165857288126608182e+03 1.616436907669610568e+00 4.411349487046205969e-02
3.169023145414736064e+03 1.562001249932106317e+00 4.644980883856802967e-02
3.172192168560151458e+03 1.536226991433604638e+00 4.506645457820386558e-02
3.175364360728712654e+03 1.507748115964683722e+00 4.456392510004560797e-02
3.178539725089442527e+03 1.487720700908131244e+00 4.345487401479203315e-02
3.181718264814533086e+03 1.479808447070677158e+00 4.079765945521521969e-02
3.184899983079348658e+03 1.482227552903850221e+00 4.168560303507301557e-02
3.188084883062429071e+03 1.479520023438831489e+00 4.069449532449159052e-02
3.191272967945492383e+03 1.526796269535933837e+00 4.390825145846122962e-02
3.194464240913438971e+03 1.570055864973653348e+00 4.442849615287271930e-02
3.197658705154353811e+03 1.599644838361405919e+00 4.351129118815291741e-02
3.200856363859509202e+03 1.638920705929180155e+00 4.047501849868676005e-02
3.204057220223369768e+03 1.671742493376594085e+00 3.921738270599001153e-02
3.207261277443593826e+03 1.714791630152935342e+00 3.651874559729249153e-02
3.210468538721038840e+03 1.741752849414355042e+00 3.500912137750990943e-02
3.213679007259760965e+03 1.737912928903266430e+00 3.529732228614512746e-02
3.216892686267021418e+03 1.727992121379429147e+00 3.552857357479505263e-02
3.220109578953289656e+03 1.696181398126728634e+00 3.577571892135096576e-02
3.223329688532243836e+03 1.668598528062019914e+00 3.571009423445437037e-02
3.226553018220777176e+03 1.645810777017321147e+00 3.602284303013984779e-02
3.229779571238999324e+03 1.599435435552215123e+00 3.416673386493001424e-02
3.233009350810239084e+03 1.558849087877792083e+00 3.290939722282704843e-02
3.236242360161050783e+03 1.527409550705035368e+00 3.476671091786218831e-02
3.239478602521212906e+03 1.491348893664288688e+00 3.274042894257397918e-02
3.242718081123734919e+03 1.466026756191103786e+00 3.229363773386313002e-02
3.245960799204859995e+03 1.443050096225793721e+00 3.171386886462776444e-02
3.249206760004065927e+03 1.441934523376975363e+00 3.196540202538442760e-02
3.252455966764071036e+03 1.469974486320480889e+00 3.315591809320504041e-02
3.255708422730835991e+03 1.486425702925022296e+00 3.346521422675954177e-02
3.258964131153567905e+03 1.504090023683116062e+00 3.323965191692621751e-02
3.262223095284722604e+03 1.525795925782503559e+00 3.178141608618258868e-02
3.265485318380008266e+03 1.555032677616143610e+00 2.986467384960291016e-02
3.268750803698389518e+03 1.571250342772704478e+00 2.987020006971679090e-02
3.272019554502088795e+03 1.596772886480546383e+00 3.014796322205825357e-02
3.275291574056592253e+03 1.616463007190980905e+00 2.999754167893778009e-02
3.278566865630649772e+03 1.638232436656194002e+00 2.994664766213997117e-02
3.281845432496281319e+03 1.641260252284298726e+00 2.951222616187696920e-02
3.285127277928778767e+03 1.645640729832068105e+00 2.923632134818715186e-02
3.288412405206708627e+03 1.644070496248884794e+00 2.914566798358833935e-02
3.291700817611916591e+03 1.620930026188948325e+00 2.968558584037418388e-02
3.294992518429529355e+03 1.601529503887912487e+00 3.010256765703993309e-02
3.298287510947960072e+03 1.586082996972961512e+00 2.901556279417222620e-02
3.301585798458909267e+03 1.568280389656223184e+00 2.795121143178416062e-02
3.304887384257369376e+03 1.548881115181749424e+00 2.737933079840746894e-02
3.308192271641627485e+03 1.521495081542690642e+00 2.803902168206212978e-02
3.311500463913270323e+03 1.514328120208978667e+00 2.839706502326048293e-02
3.314811964377184722e+03 1.509991908069178823e+00 2.821674149774926893e-02
3.318126776341563072e+03 1.504196289537815590e+00 2.726177763020995806e-02
3.321444903117905596e+03 1.493204340479443726e+00 2.731341922718242068e-02
3.324766348021024896e+03 1.495888879868107368e+00 2.689154106335180094e-02
3.328091114369046863e+03 1.488538934277902293e+00 2.715658831073960652e-02
3.331419205483417045e+03 1.499775780636910305e+00 2.690343984855519260e-02
3.334750624688901553e+03 1.507829938753587617e+00 2.696321491413006602e-02
3.338085375313591612e+03 1.522462180622562666e+00 2.743393989902916455e-02
3.341423460688906289e+03 1.525472553880550253e+00 2.623613053102402670e-02
3.344764884149596128e+03 1.535644418078837337e+00 2.642294162960175108e-02
3.348109649033746791e+03 1.560856086041062740e+00 2.610765868374168713e-02
3.351457758682781787e+03 1.602618876770179668e+00 2.663736092537768649e-02
3.354809216441465651e+03 1.625361377726794343e+00 2.657191588351654962e-02
3.358164025657908041e+03 1.636723325317337663e+00 2.682602748644200355e-02
3.361522189683567376e+03 1.636714771445116456e+00 2.629818395258902083e-02
3.364883711873251741e+03 1.644056377180866058e+00 2.611455376420660293e-02
3.368248595585126168e+03 1.642302615562406309e+00 2.602567205671457717e-02
3.371616844180712633e+03 1.642784406681881304e+00 2.567108957609925621e-02
3.374988461024894150e+03 1.638373566703059225e+00 2.524346985164830151e-02
3.378363449485920228e+03 1.633277836860970833e+00 2.513081435616853349e-02
3.381741812935407324e+03 1.621328485485496795e+00 2.570573042626010662e-02
3.385123554748343849e+03 1.597090814785473212e+00 2.562951069142854407e-02
3.388508678303093347e+03 1.577755103366963674e+00 2.417610662193210233e-02
3.391897186981397681e+03 1.565233992803323426e+00 2.423621930837110972e-02
3.395289084168380214e+03 1.548734381300509222e+00 2.480722916943139261e-02
3.398684373252549449e+03 1.536180026200040905e+00 2.518911666293559976e-02
3.402083057625803121e+03 1.531552114311377277e+00 2.481261697724625528e-02
3.405485140683430018e+03 1.533637854989875038e+00 2.452334263128872274e-02
3.408890625824114522e+03 1.533001484402488401e+00 2.379568767131612014e-02
3.412299516449939802e+03 1.534000855569903843e+00 2.368690861551600579e-02
3.415711815966390986e+03 1.531152230609267084e+00 2.363424942302744594e-02
3.419127527782358356e+03 1.537583485704107966e+00 2.316530681541517298e-02
3.422546655310141887e+03 1.546962344825150604e+00 2.382208868001888663e-02
3.425969201965453522e+03 1.542188807397921080e+00 2.370578699946792808e-02
3.429395171167419903e+03 1.534937086281270791e+00 2.365468209700296795e-02
3.432824566338588284e+03 1.527351861883023743e+00 2.268029256035274804e-02
3.436257390904928343e+03 1.493653701210609475e+00 2.262329319487442134e-02
3.439693648295834464e+03 1.481176765358338310e+00 2.333996387460095245e-02
3.443133341944131189e+03 1.480612505958375458e+00 2.382605601457799330e-02
3.446576475286076402e+03 1.483259104154896590e+00 2.211160734199488567e-02
3.450023051761363604e+03 1.505420619506192992e+00 2.290408716268838019e-02
3.453473074813126004e+03 1.538969124899425944e+00 2.443512018245379627e-02
3.456926547887940615e+03 1.566557555787510436e+00 2.447578530008708703e-02
3.460383474435829612e+03 1.596575672537429158e+00 2.446644523777945571e-02
3.463843857910266706e+03 1.628303945041964296e+00 2.447022366527951479e-02
3.467307701768178049e+03 1.654820775056482063e+00 2.418769718539708416e-02
3.470775009469947236e+03 1.667961023367647400e+00 2.384700136568361495e-02
3.474245784479418489e+03 1.675038678904687606e+00 2.373611126781926053e-02
3.477720030263898934e+03 1.671414639588777673e+00 2.476675182874380973e-02
3.481197750294164052e+03 1.666468095270781991e+00 2.486322468839083366e-02
3.484678948044459503e+03 1.662296722446521047e+00 2.497599840421027909e-02
3.488163626992504760e+03 1.651629083907234508e+00 2.466746375255150087e-02
3.491651790619498570e+03 1.630108455561474212e+00 2.446814926708174368e-02
3.495143442410119405e+03 1.598170359928249074e+00 2.440919902420451981e-02
3.498638585852530468e+03 1.549468492553823573e+00 2.344161813945781075e-02
3.502137224438384237e+03 1.505142713555610356e+00 2.321167008166366216e-02
3.505639361662823831e+03 1.483353562718822127e+00 2.298317508273844262e-02
3.509145001024487556e+03 1.466516012637621991e+00 2.403813475253671963e-02
3.512654146025513455e+03 1.467989371312383495e+00 2.461848440755093348e-02
3.516166800171540217e+03 1.486570047496853952e+00 2.510528110639412280e-02
3.519682966971712631e+03 1.505832683738030253e+00 2.548865182128222731e-02
3.523202649938685681e+03 1.505373782360163837e+00 2.587576290536540424e-02
3.526725852588625457e+03 1.504586813551316959e+00 2.583117158645680325e-02
3.530252578441215064e+03 1.505119872840160467e+00 2.566984848344427972e-02
3.533782831019657806e+03 1.509520063673619683e+00 2.496567922798321321e-02
3.537316613850678550e+03 1.504403172634265928e+00 2.690482755609912083e-02
3.540853930464530094e+03 1.511479088288654404e+00 2.644545060592436506e-02
3.544394784394995895e+03 1.516092025280286082e+00 2.682882073872102854e-02
3.547939179179392340e+03 1.515805807389758453e+00 2.891662612543366428e-02
3.551487118358572843e+03 1.519897191308844375e+00 2.923334093635580194e-02
3.555038605476932389e+03 1.523238078286299313e+00 2.994578441634773713e-02
3.558593644082410719e+03 1.501163415119148414e+00 2.912372974794555716e-02
3.562152237726494150e+03 1.498686281439062462e+00 2.967545444708674998e-02
3.565714389964221937e+03 1.503326239504048312e+00 2.903289420266233836e-02
3.569280104354187188e+03 1.515148804863881482e+00 2.902348461465214038e-02
3.572849384458542772e+03 1.536838107791443475e+00 3.210327635719902040e-02
3.576422233843002232e+03 1.546316635009757468e+00 3.198542158974208849e-02
3.579998656076846601e+03 1.537896728293074666e+00 3.226011738992812933e-02
3.583578654732924406e+03 1.530506848602736447e+00 3.281724164698790469e-02
3.587162233387658489e+03 1.497861804404906128e+00 3.093195779275018792e-02
3.590749395621047370e+03 1.492776194059203254e+00 3.119637257932308602e-02
3.594340145016669794e+03 1.502681213781141834e+00 3.213755582038516773e-02
3.597934485161687462e+03 1.513445053123801731e+00 3.222918221686583290e-02
3.601532419646850485e+03 1.529217708641538387e+00 3.218716571336849991e-02
3.605133952066498296e+03 1.563132529642713875e+00 3.403040514686523493e-02
3.608739086018566013e+03 1.587957784556447871e+00 3.453749819820201711e-02
3.612347825104585809e+03 1.604789988704997006e+00 3.467228831786772769e-02
3.615960172929691907e+03 1.628389409021427259e+00 3.331280167008717624e-02
3.619576133102622407e+03 1.623893305773200124e+00 3.427025821503958819e-02
3.623195709235726554e+03 1.616481634193517980e+00 3.365243495480630537e-02
3.626818904944963379e+03 1.632373944463471060e+00 3.275912461350798111e-02
3.630445723849909427e+03 1.625761961431532177e+00 3.215614113188251105e-02
3.634076169573760581e+03 1.616921019658374314e+00 3.131026291318946692e-02
3.637710245743335690e+03 1.579829335394198564e+00 2.951677729620275081e-02
3.641347955989080219e+03 1.588546485002316766e+00 3.117373364253986368e-02
3.644989303945070333e+03 1.599676343315720617e+00 3.026727892178918133e-02
3.648634293249016537e+03 1.580595957695428933e+00 2.791532051093620348e-02
3.652282927542266862e+03 1.584619341728277009e+00 2.804965759037765516e-02
3.655935210469810499e+03 1.581392583314524147e+00 2.782318151888413249e-02
3.659591145680281443e+03 1.573865934865697813e+00 2.635717226959399459e-02
3.663250736825963031e+03 1.561150811308767539e+00 2.609569911429631198e-02
3.666913987562790226e+03 1.545206339523948591e+00 2.626866087115913018e-02
3.670580901550354156e+03 1.528988867653686023e+00 2.454373031217379000e-02
3.674251482451905758e+03 1.522248441067825420e+00 2.397659348580982730e-02
3.677925733934358959e+03 1.525240578407167424e+00 2.334221699229599781e-02
3.681603659668294313e+03 1.536406703144104213e+00 2.280898853202916257e-02
3.685285263327964003e+03 1.555210223344965392e+00 2.327460629010690701e-02
3.688970548591293209e+03 1.594106121942498344e+00 2.767493160656188042e-02
3.692659519139885560e+03 1.644732299231670192e+00 4.216859009012169368e-02
3.696352178659026777e+03 1.593478455514675929e+00 5.514631438409405007e-02
3.700048530837686940e+03 1.516030584995144981e+00 7.721521699494707236e-02
3.703748579368525952e+03 1.524954857912550255e+00 7.703939838955793651e-02
3.707452327947895355e+03 1.586986653373713363e+00 7.608980920107508150e-02
3.711159780275844696e+03 1.676077935754386239e+00 8.042875180696132387e-02
3.714870940056121526e+03 1.757766379758976205e+00 8.343583984992460068e-02
3.718585810996179134e+03 1.830162894042779431e+00 8.294430894094217965e-02
3.722304396807176545e+03 1.897450731741159524e+00 8.141874073844727888e-02
3.726026701203984885e+03 1.925668588266866932e+00 8.201894225204998945e-02
3.729752727905190113e+03 1.920254519854332154e+00 8.248601763968638201e-02
3.733482480633096657e+03 1.873401231981382198e+00 8.305246894935383595e-02
3.737215963113731050e+03 1.813899864530889250e+00 8.380890919484722257e-02
3.740953179076846027e+03 1.735096325687703445e+00 8.495105375082655230e-02
3.744694132255923705e+03 1.639580746124286392e+00 8.209112135284017675e-02
3.748438826388181042e+03 1.535612103256708716e+00 8.017733962654233215e-02
3.752187265214570289e+03 1.427450943832455188e+00 7.672479835395641656e-02
3.755939452479786269e+03 1.391137058275338623e+00 7.742268661440700195e-02
3.759695391932267285e+03 1.401895946425974149e+00 7.336052744722888763e-02
3.763455087324201031e+03 1.523113467821927358e+00 4.516479701313095424e-02
3.767218542411526414e+03 1.520637865351023965e+00 3.805202221374610894e-02
3.770985760953939007e+03 1.470880424418628873e+00 2.711523152195627340e-02
3.774756746714894234e+03 1.479473394738305192e+00 2.772584320066590752e-02
3.778531503461610555e+03 1.503705839057083660e+00 2.876214849668145418e-02
3.782310034965073100e+03 1.523209957627814637e+00 2.966991464567386022e-02
3.786092345000039586e+03 1.539533889580670944e+00 3.028450076255826545e-02
3.789878437345040766e+03 1.573674727280993224e+00 3.032673493254579855e-02
3.793668315782387253e+03 1.599843778248374315e+00 3.037880614488806461e-02
3.797461984098170888e+03 1.606162149717047738e+00 3.091908496696491732e-02
3.801259446082270188e+03 1.617341314350947856e+00 3.044150877717523643e-02
3.805060705528353537e+03 1.608865316888097308e+00 2.953933881652973104e-02
3.808865766233883278e+03 1.605263553375406271e+00 2.951030727477845644e-02
3.812674632000118436e+03 1.605137691490960528e+00 2.964894152418150880e-02
3.816487306632119726e+03 1.602475436238816719e+00 2.870533219289027674e-02
3.820303793938753188e+03 1.582258320716504185e+00 2.905535207411064774e-02
3.824124097732693372e+03 1.546879475837013462e+00 2.932329473508160991e-02
3.827948221830427428e+03 1.530325573645405557e+00 2.848873800484163707e-02
3.831776170052258749e+03 1.488050952830710871e+00 2.876312586660441373e-02
3.835607946222312421e+03 1.448379929617956918e+00 3.087400591927367058e-02
3.839443554168536139e+03 1.438297298391210566e+00 3.064511898692777805e-02
3.843282997722705659e+03 1.430606684354720937e+00 2.843115110068900400e-02
3.847126280720429804e+03 1.460164283771931970e+00 2.793025506310908845e-02
3.850973407001151372e+03 1.491541510959635275e+00 2.749387349546621867e-02
3.854824380408153957e+03 1.538741877847222828e+00 3.076675893300031064e-02
3.858679204788563311e+03 1.581535206975879460e+00 3.150864628665626943e-02
3.862537883993353262e+03 1.607163043522818802e+00 2.919746703053733780e-02
3.866400421877347981e+03 1.605464283704349571e+00 2.947032499421877935e-02
3.870266822299226533e+03 1.592815762473585028e+00 2.990031744089256815e-02
3.874137089121526969e+03 1.563903596940626306e+00 3.220481069632888382e-02
3.878011226210649966e+03 1.539762008808953198e+00 3.142984187379655597e-02
3.881889237436861549e+03 1.512081548939511855e+00 2.995341675160979530e-02
3.885771126674299921e+03 1.509701928946152849e+00 3.026070726587018478e-02
3.889656897800975457e+03 1.506117953078295546e+00 3.025565991212146935e-02
3.893546554698777527e+03 1.518749848678231151e+00 3.033547433718067690e-02
3.897440101253477678e+03 1.532925669455720286e+00 2.989169542117494846e-02
3.901337541354732366e+03 1.595228354018708661e+00 2.839317702997583640e-02
3.905238878896088409e+03 1.655489892831920828e+00 2.491841916141774096e-02
3.909144117774985716e+03 1.666692405121964926e+00 2.288954069691667703e-02
3.913053261892762293e+03 1.670329400229690453e+00 2.333624941818614532e-02
3.916966315154656058e+03 1.662065077366164045e+00 2.296295962454912229e-02
3.920883281469812118e+03 1.636476283943961052e+00 2.425267082179847350e-02
3.924804164751283224e+03 1.594432583183017949e+00 2.129356985008015735e-02
3.928728968916035683e+03 1.594723787826193062e+00 2.207591430503567931e-02
3.932657697884953450e+03 1.600522284786121130e+00 2.199072041459729579e-02
3.936590355582839493e+03 1.612175748816305543e+00 2.399219960022073994e-02
3.940526945938423523e+03 1.610588551984291517e+00 2.365234881976550907e-02
3.944467472884363360e+03 1.610347615428796786e+00 2.303454164540843022e-02
3.948411940357249023e+03 1.597452172653698321e+00 2.332224112733602417e-02
3.952360352297607733e+03 1.567538403407495951e+00 2.562383455175510152e-02
3.956312712649906643e+03 1.544547550671034220e+00 2.591505812124378361e-02
3.960269025362557841e+03 1.526925485164278617e+00 2.618372178038407341e-02
3.964229294387921527e+03 1.511850441652947241e+00 2.598806590920533371e-02
