# starting wavelength: 3603.908
# ending wavelength: 8191.208
# wav flux eflux
3.605133952066498296e+03 2.534545533602450718e+00 9.639380861290439106e-18
3.608739086018566013e+03 2.764747257817274484e+00 1.513431414441830411e-17
3.612347825104585809e+03 2.995179183756313979e+00 2.063474236082931175e-17
3.615960172929691907e+03 3.225841541621310871e+00 2.614067100545716273e-17
3.619576133102622407e+03 3.456734561844127640e+00 3.165210557872857189e-17
3.623195709235726554e+03 3.687858475087212540e+00 3.716905158657433995e-17
3.626818904944963379e+03 3.904861269262688506e+00 4.237076391840525864e-17
3.630445723849909427e+03 3.840559128191095795e+00 4.128609435015134569e-17
3.634076169573760581e+03 3.776192684978428193e+00 4.020034011232912666e-17
3.637710245743335690e+03 3.711761875322546089e+00 3.911350012026905020e-17
3.641347955989080219e+03 3.647266634857011081e+00 3.802557328821696751e-17
3.644989303945070333e+03 3.582706899151013147e+00 3.693655852933287506e-17
3.648634293249016537e+03 3.518082603709307588e+00 3.584645475568987308e-17
3.652282927542266862e+03 3.506653801730537978e+00 3.511432456643131344e-17
3.655935210469810499e+03 3.506883341463182369e+00 3.446013632839478128e-17
3.659591145680281443e+03 3.507113110735559314e+00 3.380529390212024946e-17
3.663250736825963031e+03 3.507343109777208756e+00 3.314979663341941473e-17
3.666913987562790226e+03 3.507573338817899788e+00 3.249364386744989716e-17
3.670580901550354156e+03 3.507803798087631542e+00 3.183683494871442057e-17
3.674251482451905758e+03 3.606691472058578540e+00 3.175871661788524667e-17
3.677925733934358959e+03 3.769721287682297195e+00 3.205660395804756711e-17
3.681603659668294313e+03 3.932914133121625966e+00 3.235478918555002327e-17
3.685285263327964003e+03 4.096270171406411365e+00 3.265327259828001453e-17
3.688970548591293209e+03 4.259789565729475314e+00 3.295205449442272294e-17
3.692659519139885560e+03 4.423472479446854067e+00 3.325113517246155694e-17
3.696352178659026777e+03 4.461136243310109606e+00 3.286799731779774733e-17
3.700048530837686940e+03 4.332165347199108396e+00 3.158295276522700934e-17
3.703748579368525952e+03 4.203065480191988890e+00 3.029662316810362942e-17
3.707452327947895355e+03 4.073836513317877994e+00 2.900900724138328792e-17
3.711159780275844696e+03 3.944478317476873386e+00 2.772010369873602837e-17
3.714870940056121526e+03 3.814990763440043953e+00 2.642991125254627906e-17
3.718585810996179134e+03 3.730884841825488518e+00 2.537419209936792043e-17
3.722304396807176545e+03 3.744673540395260680e+00 2.482498122413124056e-17
3.726026701203984885e+03 3.758476027663602004e+00 2.427522113801933723e-17
3.729752727905190113e+03 3.772292317419212004e+00 2.372491129182130710e-17
3.733482480633096657e+03 3.786122423464578279e+00 2.317405113577706408e-17
3.737215963113731050e+03 3.799966359615989386e+00 2.262264011957678769e-17
3.740953179076846027e+03 3.794708443862581770e+00 2.194935674275629438e-17
3.744694132255923705e+03 3.720412891893483120e+00 2.083727458828212665e-17
3.748438826388181042e+03 3.646043044372403674e+00 1.972408035165331313e-17
3.752187265214570289e+03 3.571598827003809706e+00 1.860977292078797150e-17
3.755939452479786269e+03 3.497080165417840725e+00 1.749435118249166362e-17
3.759695391932267285e+03 3.422486985170289042e+00 1.637781402245711209e-17
3.763455087324201031e+03 3.381981278600223906e+00 1.552154914712825125e-17
3.767218542411526414e+03 3.529810474014040800e+00 1.610577012740365415e-17
3.770985760953939007e+03 3.677787498623267037e+00 1.669057532865931742e-17
3.774756746714894234e+03 3.825912500257111049e+00 1.727596533511626897e-17
3.778531503461610555e+03 3.974185626892594581e+00 1.786194073157970056e-17
3.782310034965073100e+03 4.122607026654694806e+00 1.844850210343951628e-17
3.786092345000039586e+03 4.227226070004559411e+00 1.891733261152243770e-17
3.789878437345040766e+03 4.028953544727226443e+00 1.857095289868854515e-17
3.793668315782387253e+03 3.830482746924600335e+00 1.822422680614178628e-17
3.797461984098170888e+03 3.631813478324182221e+00 1.787715398750250195e-17
3.801259446082270188e+03 3.432945540455169642e+00 1.752973409604458750e-17
3.805060705528353537e+03 3.233878734648290454e+00 1.718196678469522157e-17
3.808865766233883278e+03 3.082379157549820281e+00 1.700634276723417535e-17
3.812674632000118436e+03 3.182919049924522792e+00 1.774124150435402202e-17
3.816487306632119726e+03 3.283559482191597212e+00 1.847687514021097148e-17
3.820303793938753188e+03 3.384300554890943058e+00 1.921324440970380936e-17
3.824124097732693372e+03 3.485142368662990542e+00 1.995035004846616064e-17
3.827948221830427428e+03 3.586085024248808928e+00 2.068819279286725692e-17
3.831776170052258749e+03 3.647737708475589979e+00 2.149111514729338263e-17
3.835607946222312421e+03 3.555744248516675476e+00 2.254590926933538915e-17
3.839443554168536139e+03 3.463658795097801946e+00 2.360175818549943618e-17
3.843282997722705659e+03 3.371481256225519640e+00 2.465866295057953209e-17
3.847126280720429804e+03 3.279211539814354204e+00 2.571662462042483293e-17
3.850973407001151372e+03 3.186849553686784908e+00 2.677564425193989509e-17
3.854824380408153957e+03 3.111485258820771538e+00 2.736530274795733569e-17
3.858679204788563311e+03 3.079137106370100962e+00 2.676941572912919473e-17
3.862537883993353262e+03 3.046756605766978154e+00 2.617293282328219771e-17
3.866400421877347981e+03 3.014343724663252733e+00 2.557585343452935505e-17
3.870266822299226533e+03 2.981898430678424639e+00 2.497817696638778523e-17
3.874137089121526969e+03 2.949420691399611716e+00 2.437990282177807377e-17
3.878011226210649966e+03 2.936381226777318165e+00 2.377277120702730690e-17
3.881889237436861549e+03 2.950029903495990258e+00 2.315370622728753507e-17
3.885771126674299921e+03 2.963692228891383174e+00 2.253402218256793020e-17
3.889656897800975457e+03 2.977368216612170215e+00 2.191371845380365075e-17
3.893546554698777527e+03 2.991057880320677764e+00 2.129279442131063325e-17
3.897440101253477678e+03 3.004761233692895050e+00 2.067124946478507463e-17
3.901337541354732366e+03 3.000294187156080650e+00 2.015399125135535320e-17
3.905238878896088409e+03 2.982149950372308567e+00 1.971509687509924062e-17
3.909144117774985716e+03 2.963987569351752782e+00 1.927576360446688564e-17
3.913053261892762293e+03 2.945807025950175184e+00 1.883599100056385405e-17
3.916966315154656058e+03 2.927608302005198393e+00 1.839577862405698787e-17
3.920883281469812118e+03 2.909391379336274674e+00 1.795512603517356721e-17
3.924804164751283224e+03 2.966234479837293492e+00 1.913639179372229356e-17
3.928728968916035683e+03 3.047634664449323960e+00 2.084826234283590210e-17
3.932657697884953450e+03 3.129116249245978310e+00 2.256184476249886829e-17
3.936590355582839493e+03 3.210679315627415598e+00 2.427714076458121539e-17
3.940526945938423523e+03 3.292323945075236402e+00 2.599415206266569154e-17
3.944467472884363360e+03 3.374050219152509911e+00 2.771288037204834599e-17
3.948411940357249023e+03 3.265538033634771242e+00 2.671932950794389660e-17
3.952360352297607733e+03 3.151190083063662772e+00 2.564311350256875671e-17
3.956312712649906643e+03 3.036727784541987774e+00 2.456582128118828603e-17
3.960269025362557841e+03 2.922151023721791141e+00 2.348745176758643446e-17
3.964229294387921527e+03 2.807459686140779009e+00 2.240800388447102853e-17
3.968193523682310570e+03 2.736947820844188417e+00 2.156064163545773391e-17
3.972161717205994591e+03 2.804284247571257715e+00 2.143843849065675797e-17
3.976133878923201792e+03 2.871688010725045537e+00 2.131611314271099439e-17
3.980110012802126221e+03 2.939159177641987419e+00 2.119366546941728542e-17
3.984090122814929600e+03 3.006697815725846823e+00 2.107109534845028001e-17
3.988074212937745870e+03 3.074303992447791956e+00 2.094840265736230744e-17
3.992062287150684824e+03 3.133539769589253954e+00 2.027105208272718857e-17
3.996054349437837118e+03 3.185223992094449841e+00 1.909285252503593102e-17
4.000050403787276082e+03 3.236959898822144410e+00 1.791347476778712077e-17
4.004050454191064546e+03 3.288747541456567891e+00 1.673291763278104723e-17
4.008054504645257111e+03 3.340586971733629618e+00 1.555117994063987304e-17
4.012062559149903791e+03 3.392478241440967324e+00 1.436826051080658326e-17
4.016074621709055009e+03 3.287874699002470091e+00 1.450937453950974881e-17
4.020090696330765240e+03 3.153576284202422642e+00 1.490112048154913354e-17
4.024110787027097558e+03 3.019143570987562697e+00 1.529325816953059408e-17
4.028134897814125907e+03 2.884576425059498295e+00 1.568578799520000311e-17
4.032163032711941469e+03 2.749874711985499154e+00 1.607871035069510301e-17
4.036195195744654484e+03 2.654680008226617538e+00 1.629117273060817100e-17
4.040231390940400615e+03 2.708203948165563535e+00 1.582493101682720886e-17
4.044271622331342314e+03 2.761781412044446160e+00 1.535822306133248554e-17
4.048315893953675186e+03 2.815412453387211134e+00 1.489104839788223986e-17
4.052364209847629809e+03 2.869097125771310708e+00 1.442340655976861400e-17
4.056416574057479011e+03 2.922835482827803144e+00 1.395529707981679994e-17
4.060472990631537868e+03 2.903286936265480289e+00 1.347905479214578241e-17
4.064533463622170530e+03 2.832598259298747756e+00 1.299699374236181946e-17
4.068597997085794304e+03 2.761838893655039762e+00 1.251445063152801385e-17
4.072666595082881486e+03 2.691008768645692051e+00 1.203142497758340255e-17
4.076739261677965715e+03 2.620107813511336037e+00 1.154791629798484979e-17
4.080816000939644709e+03 2.549135957421850840e+00 1.106392410970673736e-17
4.084896816940585722e+03 2.575116258995835850e+00 1.099429820192412611e-17
4.088981713757527814e+03 2.601147550037392620e+00 1.092470960211006246e-17
4.093070695471286854e+03 2.627204872369991229e+00 1.085505141369618559e-17
4.097163766166759160e+03 2.653288252024919025e+00 1.078532356709390266e-17
4.101260929932927866e+03 2.679397715059507856e+00 1.071552599264500078e-17
4.105362190862862008e+03 2.691525124212704512e+00 1.092858271606876219e-17
4.109467553053726078e+03 2.687396884387283968e+00 1.147041419315520684e-17
4.113577020606780934e+03 2.683264516322037885e+00 1.201278750171872807e-17
4.117690597627389252e+03 2.679128015888726733e+00 1.255570318359086684e-17
4.121808288225018259e+03 2.674987378954981398e+00 1.309916178114488815e-17
4.125930096513244280e+03 2.670842601384303627e+00 1.364316383729638192e-17
4.130056026609759101e+03 2.635422575787708777e+00 1.287917179213538085e-17
4.134186082636369974e+03 2.597785367397920986e+00 1.202311997648352163e-17
4.138320268719007800e+03 2.560110521799740635e+00 1.116621210901593972e-17
4.142458588987728035e+03 2.522398001355964148e+00 1.030844733368093831e-17
4.146601047576717065e+03 2.484647768391742950e+00 9.449824793570586063e-18
4.150747648624294925e+03 2.476491224702165983e+00 9.051226482338475341e-18
4.154898396272920763e+03 2.506490974259021343e+00 9.245833553376860635e-18
4.159053294669195566e+03 2.536520723565436342e+00 9.440635231486299478e-18
4.163212347963865795e+03 2.566580502621151449e+00 9.635631711273809827e-18
4.167375560311830668e+03 2.596670341455922237e+00 9.830823187541104212e-18
4.171542935872143971e+03 2.626790270129530924e+00 1.002620985528468834e-17
4.175714478808017702e+03 2.563903705726469973e+00 9.838701381193823620e-18
4.179890193286827525e+03 2.498037287528456218e+00 9.638994401217444313e-18
4.184070083480115500e+03 2.432105002912254843e+00 9.439087714261120758e-18
4.188254153563597356e+03 2.366106786011427765e+00 9.238981120617813805e-18
4.192442407717161586e+03 2.300042570893717109e+00 9.038674420380914822e-18
4.196634850124880359e+03 2.282873199695261146e+00 8.959407022938155280e-18
4.200831484975006788e+03 2.305292061856885955e+00 8.978133366626100218e-18
4.205032316459983122e+03 2.327733342880670797e+00 8.996878436657733340e-18
4.209237348776444378e+03 2.350197065185479328e+00 9.015642251759396888e-18
4.213446586125221984e+03 2.372683251212591937e+00 9.034424830676160849e-18
4.217660032711349231e+03 2.387695976790746411e+00 9.015937682125341114e-18
4.221877692744061278e+03 2.358272905281642906e+00 8.776311946591739708e-18
4.226099570436806971e+03 2.328820410701023746e+00 8.536446585322551393e-18
4.230325670007245208e+03 2.299338463625825391e+00 8.296341358692105702e-18
4.234555995677254032e+03 2.269827034603550509e+00 8.055996026835021679e-18
4.238790551672932452e+03 2.240286094152256435e+00 7.815410349646104656e-18
4.243029342224606808e+03 2.248679504200089330e+00 7.770875905977024719e-18
4.247272371566832589e+03 2.268757970759503806e+00 7.786670966337097907e-18
4.251519643938400804e+03 2.288856515785478773e+00 7.802481821757531174e-18
4.255771163582340705e+03 2.308975159356480233e+00 7.818308488033385978e-18
4.260026934745924336e+03 2.329113921571051904e+00 7.834150980975516406e-18
4.264286961680671993e+03 2.332696461568037005e+00 7.806297244645631268e-18
4.268551248642354039e+03 2.314740251254933323e+00 7.721608252721141810e-18
4.272819799890998183e+03 2.296766084731514557e+00 7.636834571804720545e-18
4.277092619690890388e+03 2.278773944041575295e+00 7.551976117207394563e-18
4.281369712310583054e+03 2.260763811210943608e+00 7.467032804155460819e-18
4.285651082022895025e+03 2.241583719526574203e+00 7.377184551826677912e-18
4.289936733104918858e+03 2.213302406598597560e+00 7.249245279057261356e-18
4.294226669838025373e+03 2.184992812357688940e+00 7.121178067015056099e-18
4.298520896507864563e+03 2.156654908522542158e+00 6.992982787760820974e-18
4.302819417404373780e+03 2.128288666783558991e+00 6.864659313227325212e-18
4.307122236821779552e+03 2.099894058802836749e+00 6.736207515219295289e-18
4.311429359058603040e+03 2.073465073051439234e+00 6.486213795763909625e-18
4.315740788417662770e+03 2.047452341082260485e+00 6.209015620717352078e-18
4.320056529206081905e+03 2.021413596381111066e+00 5.931540247495725984e-18
4.324376585735290064e+03 1.995348812935256566e+00 5.653787398900838095e-18
4.328700962321026054e+03 1.969257964705964481e+00 5.375756797457444745e-18
4.333029663283348782e+03 1.997678081043997800e+00 5.326078345973519480e-18
4.337362692946633615e+03 2.070400202878418749e+00 5.461953889400990053e-18
4.341700055639581478e+03 2.143195046834669437e+00 5.597965308371879975e-18
4.346041755695222491e+03 2.216062685634880403e+00 5.734112738761747062e-18
4.350387797450919606e+03 2.289003192073898685e+00 5.870396316582018866e-18
4.354738185248371337e+03 2.321306564043295939e+00 5.883333376818800286e-18
4.359092923433621763e+03 2.272316440032905671e+00 5.649603958355821672e-18
4.363452016357056891e+03 2.223277325898511236e+00 5.415640810474409448e-18
4.367815468373414660e+03 2.174189172649991342e+00 5.181443699445158487e-18
4.372183283841789489e+03 2.125051931248215009e+00 4.947012391304840355e-18
4.376555467125633186e+03 2.082680381488171140e+00 4.736282479411422218e-18
4.380932022592760404e+03 2.089281798027409653e+00 4.697499157243395745e-18
4.385312954615354101e+03 2.095889815983186466e+00 4.658677051753206750e-18
4.389698267569970994e+03 2.102504441956920100e+00 4.619816124157522639e-18
4.394087965837542470e+03 2.109125682556627357e+00 4.580916335634243388e-18
4.398482053803381859e+03 2.115753544396934416e+00 4.541977647322436830e-18
4.402880535857186260e+03 2.100035667628393554e+00 4.901995656864361296e-18
4.407283416393044718e+03 2.082812150770056103e+00 5.288969188858948163e-18
4.411690699809440048e+03 2.065571410394856144e+00 5.676329694385619053e-18
4.416102390509250654e+03 2.048313429279285280e+00 6.064077560417717507e-18
4.420518492899761441e+03 2.031038190182597347e+00 6.452213174315881561e-18
4.424939011392662906e+03 2.019799642390735173e+00 6.373750136179816691e-18
4.429363950404056595e+03 2.010066147800431136e+00 6.178245944837421962e-18
4.433793314354462382e+03 2.000322919715534997e+00 5.982546249303653543e-18
4.438227107668818462e+03 1.990569948402554301e+00 5.786650854074356788e-18
4.442665334776488635e+03 1.980807224118261267e+00 5.590559563449841235e-18
4.447108000111265937e+03 2.011532419826667972e+00 5.519684360271184692e-18
4.451555108111379013e+03 2.062400169203721934e+00 5.511020073289378595e-18
4.456006663219492111e+03 2.113318786330152133e+00 5.502347122020591670e-18
4.460462669882713271e+03 2.164288322073707693e+00 5.493665497800535023e-18
4.464923132552597053e+03 2.215308827353000609e+00 5.484975191956260010e-18
4.469388055685150903e+03 2.214710749864116313e+00 5.499819837664688547e-18
4.473857443740837880e+03 2.173981208050915104e+00 5.532965257898879809e-18
4.478331301184580298e+03 2.133210936695902671e+00 5.566143823553303566e-18
4.482809632485766087e+03 2.092399895069538829e+00 5.599355567773379020e-18
4.487292442118253348e+03 2.051548042401545757e+00 5.632600523737676791e-18
4.491779734560373072e+03 2.024683316910815378e+00 5.606643773737593184e-18
4.496271514294934605e+03 2.012780192168012849e+00 5.517370338166572121e-18
4.500767785809231100e+03 2.000865164300465793e+00 5.428007629159972724e-18
4.505268553595042249e+03 1.988938221405050832e+00 5.338555557444359240e-18
4.509773822148638828e+03 1.976999351566741225e+00 5.249014033657037541e-18
4.514283595970789065e+03 2.004832444398757296e+00 5.137237486106227453e-18
4.518797879566761367e+03 2.081435494318354618e+00 4.998217136252144423e-18
4.523316677446328868e+03 2.158115147287857916e+00 4.859057766048231146e-18
4.527839994123776705e+03 2.234871479910343961e+00 4.719759236474089587e-18
4.532367834117902021e+03 2.311704568865452725e+00 4.580321408370373565e-18
4.536900201952022144e+03 2.304626673286581440e+00 4.463060905406914953e-18
4.541437102153975502e+03 2.182018014970192432e+00 4.376379435341374961e-18
4.545978539256130716e+03 2.059286747995489719e+00 4.289611283805771448e-18
4.550524517795388419e+03 1.936432749753803417e+00 4.202756364118625241e-18
4.555075042313184895e+03 1.813455897513888360e+00 4.115814589511801878e-18
4.559630117355500261e+03 1.760298824252988226e+00 4.058550744468991786e-18
4.564189747472856652e+03 1.804602889458562176e+00 4.042727864038429646e-18
4.568753937220330954e+03 1.848951258729347069e+00 4.026889160727434745e-18
4.573322691157552981e+03 1.893343976369405324e+00 4.011034618713128260e-18
4.577896013848711846e+03 1.937781086727099700e+00 3.995164222156808699e-18
4.582473909862562323e+03 1.953926658931674387e+00 3.965838509294209541e-18
4.587056383772426670e+03 1.936646620276603725e+00 3.920622408146774495e-18
4.591643440156200086e+03 1.919349301582880862e+00 3.875361090898199530e-18
4.596235083596357981e+03 1.902034685570461514e+00 3.830054512332369620e-18
4.600831318679955984e+03 1.884702754942030101e+00 3.784702627187974326e-18
4.605432149998637215e+03 1.876408404579828160e+00 3.683077306355377206e-18
4.610037582148637739e+03 1.876987291640548783e+00 3.526198912900078141e-18
4.614647619730787483e+03 1.877566757588329915e+00 3.369163641051350342e-18
4.619262267350520233e+03 1.878146803002059162e+00 3.211971333930744410e-18
4.623881529617872729e+03 1.878727428461202109e+00 3.054621834503017518e-18
4.628505411147491941e+03 1.880989350122640014e+00 3.056302760924776625e-18
4.633133916558640522e+03 1.884493762979481346e+00 3.175452798057382972e-18
4.637767050475200449e+03 1.888001680249179692e+00 3.294721985227126945e-18
4.642404817525677572e+03 1.891513105436148257e+00 3.414110441584056943e-18
4.647047222343205249e+03 1.895028042048303885e+00 3.533618286397345911e-18
4.651694269565549803e+03 1.871956395583815880e+00 3.469275516878188786e-18
4.656345963835116891e+03 1.836874272533792984e+00 3.321930600068092589e-18
4.661002309798953320e+03 1.801757067360721720e+00 3.174438338341193255e-18
4.665663312108753416e+03 1.766604744982478659e+00 3.026798584352572565e-18
4.670328975420864481e+03 1.731417270281848442e+00 2.879011190609926269e-18
4.674999304396286789e+03 1.731296107480962521e+00 2.962318995217333153e-18
4.679674303700684504e+03 1.739522947276379572e+00 3.100706193204523951e-18
4.684353978004386590e+03 1.747758013911591801e+00 3.239231778389701106e-18
4.689038331982392265e+03 1.756001315613439084e+00 3.377895889160060030e-18
4.693727370314376458e+03 1.764252860616989160e+00 3.516698664041203862e-18
