# starting wavelength: 3488.370
# ending wavelength: 7294.350
# wav flux eflux
3.491651790619498570e+03 1.206089619880037711e+00 2.593584989749566066e-03
3.495143442410119405e+03 1.201247340237032502e+00 1.864413380428162374e-03
3.498638585852530468e+03 1.196950708554074261e+00 1.366341249795249022e-03
3.502137224438384237e+03 1.193008707384744627e+00 1.024027449598938645e-03
3.505639361662823831e+03 1.189377619179027512e+00 8.025327318854292213e-04
3.509145001024487556e+03 1.185980046239889729e+00 7.568646809621702200e-04
3.512654146025513455e+03 1.182529527009605008e+00 7.631585456596850798e-04
3.516166800171540217e+03 1.178906176075108947e+00 8.461123738645980183e-04
3.519682966971712631e+03 1.174954520578928019e+00 6.916866134935657946e-04
3.523202649938685681e+03 1.170881269332979535e+00 6.904438569244623815e-04
3.526725852588625457e+03 1.166657827569225425e+00 6.800481509201146673e-04
3.530252578441215064e+03 1.162480609612910332e+00 6.296449863598107275e-04
3.533782831019657806e+03 1.158536646164091799e+00 5.715939938865594386e-04
3.537316613850678550e+03 1.154966042580892971e+00 5.363887293837771731e-04
3.540853930464530094e+03 1.151801284488082056e+00 5.385439538331969391e-04
3.544394784394995895e+03 1.148912246563163597e+00 5.366657143733316203e-04
3.547939179179392340e+03 1.146167354451194997e+00 5.146265721812721050e-04
3.551487118358572843e+03 1.143559323203999556e+00 5.080785896829012735e-04
3.555038605476932389e+03 1.141063844108541003e+00 5.241958200442248857e-04
3.558593644082410719e+03 1.139247896266282867e+00 5.274050441277733717e-04
3.562152237726494150e+03 1.137682343101590110e+00 5.647035479864017564e-04
3.565714389964221937e+03 1.136513111633695505e+00 6.356896774008277511e-04
3.569280104354187188e+03 1.135908880180795721e+00 6.667232112530474238e-04
3.572849384458542772e+03 1.135973320698951738e+00 6.494437332071818000e-04
3.576422233843002232e+03 1.136681541975485432e+00 6.655424717477439285e-04
3.579998656076846601e+03 1.138107553238424607e+00 7.221505029547860711e-04
3.583578654732924406e+03 1.140011750940372659e+00 7.920435294558282255e-04
3.587162233387658489e+03 1.142226675759129950e+00 8.332318720490063894e-04
3.590749395621047370e+03 1.144746508039863109e+00 8.742839736042862806e-04
3.594340145016669794e+03 1.147462834314572078e+00 9.204347337659913577e-04
3.597934485161687462e+03 1.149896122462248815e+00 9.412228157115715534e-04
3.601532419646850485e+03 1.152601812483647903e+00 9.981249813096899470e-04
3.605133952066498296e+03 1.155179143963591448e+00 1.042227331896838525e-03
3.608739086018566013e+03 1.157512122463774107e+00 1.044514236061806897e-03
3.612347825104585809e+03 1.159691424764934142e+00 1.043557653608906876e-03
3.615960172929691907e+03 1.161186436545540879e+00 1.022532965876711769e-03
3.619576133102622407e+03 1.162112877477453399e+00 9.636265134128762112e-04
3.623195709235726554e+03 1.162357873342835246e+00 8.676031610000470556e-04
3.626818904944963379e+03 1.161806365498795790e+00 7.847100486507538764e-04
3.630445723849909427e+03 1.160343393517987431e+00 8.235821067241202130e-04
3.634076169573760581e+03 1.158468067788670952e+00 8.458375863760465678e-04
3.637710245743335690e+03 1.155387092587737863e+00 9.971167920269339863e-04
3.641347955989080219e+03 1.151558265835694650e+00 1.086912946077705101e-03
3.644989303945070333e+03 1.147272815061226359e+00 1.092652222458119363e-03
3.648634293249016537e+03 1.142171512282007528e+00 7.744176168692388585e-04
3.652282927542266862e+03 1.137868831637096623e+00 6.309157105254679021e-04
3.655935210469810499e+03 1.133990581558861344e+00 5.675494021347619964e-04
3.659591145680281443e+03 1.130627002945685966e+00 5.605152395952001619e-04
3.663250736825963031e+03 1.127752103701954223e+00 5.704396894142518739e-04
3.666913987562790226e+03 1.125439124867477769e+00 5.671496834282152523e-04
3.670580901550354156e+03 1.123756256763919215e+00 5.415964641023085415e-04
3.674251482451905758e+03 1.122798861361459011e+00 5.143238614813956753e-04
3.677925733934358959e+03 1.122608801133735179e+00 4.854804017988911357e-04
3.681603659668294313e+03 1.123199829106130254e+00 4.971040727091641589e-04
3.685285263327964003e+03 1.124705283864098293e+00 6.547133874243558525e-04
3.688970548591293209e+03 1.127374003363156074e+00 7.369297906039536062e-04
3.692659519139885560e+03 1.130399778924798593e+00 7.861714225017730475e-04
3.696352178659026777e+03 1.133583164258154641e+00 8.026372894571152114e-04
3.700048530837686940e+03 1.136624723543735005e+00 7.868240992624847205e-04
3.703748579368525952e+03 1.139418735441665387e+00 7.058901293162259463e-04
3.707452327947895355e+03 1.141763075782268544e+00 6.113900691672538058e-04
3.711159780275844696e+03 1.143676410715520175e+00 5.678655940540661097e-04
3.714870940056121526e+03 1.144839888635408087e+00 6.198417681166527382e-04
3.718585810996179134e+03 1.145339453805676921e+00 7.634765825938749639e-04
3.722304396807176545e+03 1.145439522407329491e+00 8.764071553588132163e-04
3.726026701203984885e+03 1.145072376347805676e+00 9.724692904462960315e-04
3.729752727905190113e+03 1.144547907578574941e+00 9.645182389170249820e-04
3.733482480633096657e+03 1.143721381381352487e+00 9.126077624640124581e-04
3.737215963113731050e+03 1.142719290015796529e+00 8.248363035678136970e-04
3.740953179076846027e+03 1.141659731478900541e+00 7.876991115257740705e-04
3.744694132255923705e+03 1.140544084764772981e+00 8.055959027880497079e-04
3.748438826388181042e+03 1.139427074787904726e+00 8.461693632532254821e-04
3.752187265214570289e+03 1.138221915280184904e+00 8.736186378109559022e-04
3.755939452479786269e+03 1.137346879775395392e+00 8.351301503334325601e-04
3.759695391932267285e+03 1.136459313610690858e+00 7.202487791076742562e-04
3.763455087324201031e+03 1.135688045302536864e+00 6.055929882895842416e-04
3.767218542411526414e+03 1.134269222713988556e+00 7.157169633736542094e-04
3.770985760953939007e+03 1.132637628913636174e+00 8.252103089980344572e-04
3.774756746714894234e+03 1.131071109972368038e+00 8.072484472133839399e-04
3.778531503461610555e+03 1.129900538359007500e+00 7.225217007915439929e-04
3.782310034965073100e+03 1.129102606892486760e+00 6.703191824810975650e-04
3.786092345000039586e+03 1.128680616300821615e+00 7.275419937389185788e-04
3.789878437345040766e+03 1.128348406606854093e+00 7.626792936808424964e-04
3.793668315782387253e+03 1.128717559650266100e+00 8.114765511111595234e-04
3.797461984098170888e+03 1.129393392320816147e+00 7.719582512528456748e-04
3.801259446082270188e+03 1.130701977991709573e+00 6.618893585651320450e-04
3.805060705528353537e+03 1.131631495420222899e+00 7.918417205522120233e-04
3.808865766233883278e+03 1.132663679896220410e+00 9.481407426921455075e-04
3.812674632000118436e+03 1.134283913422575507e+00 9.291643306325184440e-04
3.816487306632119726e+03 1.136266667048930978e+00 8.934522427281089713e-04
3.820303793938753188e+03 1.138625655627183653e+00 9.683223918776920564e-04
3.824124097732693372e+03 1.141042526060113582e+00 1.120914063542232655e-03
3.827948221830427428e+03 1.142913751305749681e+00 1.186035131577382884e-03
3.831776170052258749e+03 1.145027867406934519e+00 1.282987132973346499e-03
3.835607946222312421e+03 1.146590604338401986e+00 1.269579404773164269e-03
3.839443554168536139e+03 1.148023490474503028e+00 1.039114212443760770e-03
3.843282997722705659e+03 1.147919711945003751e+00 9.293709257211923026e-04
3.847126280720429804e+03 1.146569856700254908e+00 9.884055965691516434e-04
3.850973407001151372e+03 1.143931778021742396e+00 1.077704780589617542e-03
3.854824380408153957e+03 1.140091490308777100e+00 1.012107386673551622e-03
3.858679204788563311e+03 1.135601849633239624e+00 7.504646478343106678e-04
3.862537883993353262e+03 1.131028690118592861e+00 5.025782574462436293e-04
3.866400421877347981e+03 1.126605583833254931e+00 4.371750672664820856e-04
3.870266822299226533e+03 1.122812756481779362e+00 4.704819357055332624e-04
3.874137089121526969e+03 1.119490486247773253e+00 4.481561510495924946e-04
3.878011226210649966e+03 1.116621320674188622e+00 3.690091113602389050e-04
3.881889237436861549e+03 1.114176863872219592e+00 3.448627788106203569e-04
3.885771126674299921e+03 1.112109007453680576e+00 3.575295616258740471e-04
3.889656897800975457e+03 1.110399600207705229e+00 2.896575423427374734e-04
3.893546554698777527e+03 1.109484114609808891e+00 5.321084062594156434e-04
3.897440101253477678e+03 1.108738882410044813e+00 6.189222802455733238e-04
3.901337541354732366e+03 1.108240766078246065e+00 5.744622275322550575e-04
3.905238878896088409e+03 1.107804209684153829e+00 6.120124507963141175e-04
3.909144117774985716e+03 1.107508785758398284e+00 8.302506242565252034e-04
3.913053261892762293e+03 1.107700483831397742e+00 9.301134833362233569e-04
3.916966315154656058e+03 1.108526304634959825e+00 9.033322437592432221e-04
3.920883281469812118e+03 1.110137280700575824e+00 8.511386694434272147e-04
3.924804164751283224e+03 1.112376810259884774e+00 8.781479202745593772e-04
3.928728968916035683e+03 1.115054614444954906e+00 9.823172975821699727e-04
3.932657697884953450e+03 1.117881432400697372e+00 1.100317295754958897e-03
3.936590355582839493e+03 1.120654441120183975e+00 1.145290262399471272e-03
3.940526945938423523e+03 1.122935396157016985e+00 1.021991269517292904e-03
3.944467472884363360e+03 1.124405023047621688e+00 7.895688518733785192e-04
3.948411940357249023e+03 1.124678384823362132e+00 6.952912172903547711e-04
3.952360352297607733e+03 1.123547014396859334e+00 8.405867936515965281e-04
3.956312712649906643e+03 1.121180795196395907e+00 8.629039204293328371e-04
3.960269025362557841e+03 1.118046681891868177e+00 6.165390721051142381e-04
3.964229294387921527e+03 1.114700336958273752e+00 3.263832910836178981e-04
3.968193523682310570e+03 1.111525256213301116e+00 3.063943579084726964e-04
3.972161717205994591e+03 1.108558825723871211e+00 3.184393293950033032e-04
3.976133878923201792e+03 1.105806589215794888e+00 3.418903092804998867e-04
3.980110012802126221e+03 1.103301974999362001e+00 5.795275337124594639e-04
3.984090122814929600e+03 1.101448234077526900e+00 6.911577538569729090e-04
3.988074212937745870e+03 1.100662872493782807e+00 6.585839068009366601e-04
3.992062287150684824e+03 1.100919198199274085e+00 6.467424573841197913e-04
3.996054349437837118e+03 1.102129065980040235e+00 7.786494883676890267e-04
4.000050403787276082e+03 1.103996742084386140e+00 9.997214057283509460e-04
4.004050454191064546e+03 1.106124095612123881e+00 1.155043217248945958e-03
4.008054504645257111e+03 1.108142713486403474e+00 1.141218940770588651e-03
4.012062559149903791e+03 1.109604837954109691e+00 9.826953383849802021e-04
4.016074621709055009e+03 1.110314511891478340e+00 9.898385170915961501e-04
4.020090696330765240e+03 1.110323510303394823e+00 1.175724706570728311e-03
4.024110787027097558e+03 1.109737778484806814e+00 1.283613768642988522e-03
4.028134897814125907e+03 1.108676349613022749e+00 1.172225407148742935e-03
4.032163032711941469e+03 1.107423311031480839e+00 9.744593500826376859e-04
4.036195195744654484e+03 1.106194281374887733e+00 1.009603703704514991e-03
4.040231390940400615e+03 1.104964897749364905e+00 1.179956435692956773e-03
4.044271622331342314e+03 1.103556991893885897e+00 1.229702891083258231e-03
4.048315893953675186e+03 1.101751526197062736e+00 9.800967062763750199e-04
4.052364209847629809e+03 1.099103744534164706e+00 8.143748405198035847e-04
4.056416574057479011e+03 1.095560550568257963e+00 9.474837181690376345e-04
4.060472990631537868e+03 1.091439553632428838e+00 1.085302039186631816e-03
4.064533463622170530e+03 1.087089320390237202e+00 1.099118316268375695e-03
4.068597997085794304e+03 1.082893363384524799e+00 9.182372116669060324e-04
4.072666595082881486e+03 1.079318550466368043e+00 6.352142497076454508e-04
4.076739261677965715e+03 1.076798540206924226e+00 5.210850827356351992e-04
4.080816000939644709e+03 1.075558865106261752e+00 5.484864730315437784e-04
4.084896816940585722e+03 1.075563180822767251e+00 4.796809424642143249e-04
4.088981713757527814e+03 1.076579903540942240e+00 3.923788901125686433e-04
4.093070695471286854e+03 1.078395816214938741e+00 3.771680144505166750e-04
4.097163766166759160e+03 1.080979622838396326e+00 3.878354285572043207e-04
4.101260929932927866e+03 1.084069982400395871e+00 5.208808011035898642e-04
4.105362190862862008e+03 1.087300651557905562e+00 7.147586654204500945e-04
4.109467553053726078e+03 1.090365427211776872e+00 8.761157256787051794e-04
4.113577020606780934e+03 1.092893117282206061e+00 8.978773938581540402e-04
4.117690597627389252e+03 1.094524094377216095e+00 7.856850332235913552e-04
4.121808288225018259e+03 1.095135273265934517e+00 6.847351343646359634e-04
4.125930096513244280e+03 1.094578567088034804e+00 8.313522821617040951e-04
4.130056026609759101e+03 1.093034651659382961e+00 1.039747822661113213e-03
4.134186082636369974e+03 1.090833264837001826e+00 1.077577834985727831e-03
4.138320268719007800e+03 1.088461270923894109e+00 9.589787471344413160e-04
4.142458588987728035e+03 1.086295554536469865e+00 7.021501372738458459e-04
4.146601047576717065e+03 1.084799767711963403e+00 5.214021013862518445e-04
4.150747648624294925e+03 1.084122904103511198e+00 5.621125589716915527e-04
4.154898396272920763e+03 1.084221119963396429e+00 6.205712282600006277e-04
4.159053294669195566e+03 1.084974202218539796e+00 5.771427061670229668e-04
4.163212347963865795e+03 1.085962990683093210e+00 4.526411834138412897e-04
4.167375560311830668e+03 1.086685730122894933e+00 2.348937134295300681e-04
4.171542935872143971e+03 1.086731816820211582e+00 1.819139735106165934e-04
4.175714478808017702e+03 1.086207159293121727e+00 1.271973094479952860e-04
4.179890193286827525e+03 1.084966344516881565e+00 1.245268276995316282e-04
4.184070083480115500e+03 1.083088272354606474e+00 1.456492445568868951e-04
4.188254153563597356e+03 1.080573818601083591e+00 1.478322188050694712e-04
4.192442407717161586e+03 1.077432204432956508e+00 2.018143830190500187e-04
4.196634850124880359e+03 1.073791760942907514e+00 3.960750718593210838e-04
4.200831484975006788e+03 1.069993438847917089e+00 5.838379279751953034e-04
4.205032316459983122e+03 1.066403770547872609e+00 6.642474227882297442e-04
4.209237348776444378e+03 1.063440246575309667e+00 6.346756029147293358e-04
4.213446586125221984e+03 1.061590417507266348e+00 5.312038204791894209e-04
4.217660032711349231e+03 1.060804849221548274e+00 5.132716313298090003e-04
4.221877692744061278e+03 1.061089111741392754e+00 6.186282877586084727e-04
4.226099570436806971e+03 1.062325199962502742e+00 7.218702134676068709e-04
4.230325670007245208e+03 1.064146404934918522e+00 7.414117524031189552e-04
4.234555995677254032e+03 1.066256972426746774e+00 6.882141992685382285e-04
4.238790551672932452e+03 1.068464435836233850e+00 5.722885186851114697e-04
4.243029342224606808e+03 1.070491238314879912e+00 4.665405055435173560e-04
4.247272371566832589e+03 1.072033372707621668e+00 4.794055321299855511e-04
4.251519643938400804e+03 1.073023709631672373e+00 4.732377540386451583e-04
4.255771163582340705e+03 1.073334064671975785e+00 4.195340273417806935e-04
4.260026934745924336e+03 1.073056672078627649e+00 4.601404883163303467e-04
4.264286961680671993e+03 1.072234213039738204e+00 5.654870302732624551e-04
4.268551248642354039e+03 1.070659044238032598e+00 5.471941849018497782e-04
4.272819799890998183e+03 1.068234341889930050e+00 4.531009846428398738e-04
4.277092619690890388e+03 1.065026427433028111e+00 3.917001567239708579e-04
4.281369712310583054e+03 1.061026401910724948e+00 5.146196412629116005e-04
4.285651082022895025e+03 1.056454673744986028e+00 7.338803542824180867e-04
4.289936733104918858e+03 1.051810796095238310e+00 8.312695712078057046e-04
4.294226669838025373e+03 1.047969771701857677e+00 7.517986551056646217e-04
4.298520896507864563e+03 1.045054185349056253e+00 5.798512327652538371e-04
4.302819417404373780e+03 1.043607946974287604e+00 3.908980193080803457e-04
4.307122236821779552e+03 1.043980581994101042e+00 2.947677624066406734e-04
4.311429359058603040e+03 1.046183579582762979e+00 3.612687310139369216e-04
4.315740788417662770e+03 1.050066618044209532e+00 4.511382501359047356e-04
4.320056529206081905e+03 1.055266242161486456e+00 4.468652352120416416e-04
4.324376585735290064e+03 1.061245824235944601e+00 3.725502560021914803e-04
4.328700962321026054e+03 1.067841698520527238e+00 5.133035633380613133e-04
4.333029663283348782e+03 1.074401696505399961e+00 7.109372292308425599e-04
4.337362692946633615e+03 1.080145257527888702e+00 8.295727042203338399e-04
4.341700055639581478e+03 1.084562095588457176e+00 7.411889325305694122e-04
4.346041755695222491e+03 1.087133549165470336e+00 6.114938125496555523e-04
4.350387797450919606e+03 1.087672389335431866e+00 6.009951805794100420e-04
4.354738185248371337e+03 1.086245958195531935e+00 7.412684748689862607e-04
4.359092923433621763e+03 1.083212409117641828e+00 9.276808162955829488e-04
4.363452016357056891e+03 1.078823280353115921e+00 1.014012787099209277e-03
4.367815468373414660e+03 1.073539599143874312e+00 9.335740008250466857e-04
4.372183283841789489e+03 1.067911815927891750e+00 7.669689254901694521e-04
4.376555467125633186e+03 1.062778804221974793e+00 6.469788690311468332e-04
4.380932022592760404e+03 1.058372349233662968e+00 4.596371832318591464e-04
4.385312954615354101e+03 1.055121804078082315e+00 4.699563081312937529e-04
4.389698267569970994e+03 1.053156667613042830e+00 5.861741624979452912e-04
4.394087965837542470e+03 1.052253892799257295e+00 5.605056449653207217e-04
4.398482053803381859e+03 1.052107854953489241e+00 3.820727502818796039e-04
4.402880535857186260e+03 1.052374005708163640e+00 2.734260818433537706e-04
4.407283416393044718e+03 1.052768676398492476e+00 2.781233890106377419e-04
4.411690699809440048e+03 1.053769158530322159e+00 2.837232109529376207e-04
4.416102390509250654e+03 1.054997539066306445e+00 2.845180272908429684e-04
4.420518492899761441e+03 1.056239392660287324e+00 2.670788558595971348e-04
4.424939011392662906e+03 1.057358414285231030e+00 2.741815285293227613e-04
4.429363950404056595e+03 1.058326522859526886e+00 3.303981535137394572e-04
4.433793314354462382e+03 1.059242580072663920e+00 3.819384036214913875e-04
4.438227107668818462e+03 1.060223799527505895e+00 3.539719300665176331e-04
4.442665334776488635e+03 1.061320691873253841e+00 3.328131643225629892e-04
4.447108000111265937e+03 1.062585638969593571e+00 4.373073073509696051e-04
4.451555108111379013e+03 1.063657255179226713e+00 5.217836558532439484e-04
4.456006663219492111e+03 1.064175238001638713e+00 5.997287401265063078e-04
4.460462669882713271e+03 1.063995465211575731e+00 6.085676325264890475e-04
4.464923132552597053e+03 1.063010176431870457e+00 5.837320449640133078e-04
4.469388055685150903e+03 1.061338962481036319e+00 6.169391730311573783e-04
4.473857443740837880e+03 1.059130546945039386e+00 6.980755882734148311e-04
4.478331301184580298e+03 1.056479390341741098e+00 7.664307148400838470e-04
4.482809632485766087e+03 1.053531469995470760e+00 7.580314478072143177e-04
4.487292442118253348e+03 1.050547742757607983e+00 6.444168069996744196e-04
4.491779734560373072e+03 1.047715298024502584e+00 4.442789332672175120e-04
4.496271514294934605e+03 1.045523217872890598e+00 4.462539947521891202e-04
4.500767785809231100e+03 1.043921350561282546e+00 4.823538394876909861e-04
4.505268553595042249e+03 1.042867321444056694e+00 4.409589013397441359e-04
4.509773822148638828e+03 1.042294530845039979e+00 3.195400281069827176e-04
4.514283595970789065e+03 1.041956572018738036e+00 2.509932284470741109e-04
4.518797879566761367e+03 1.041771075910971511e+00 2.664496726429056586e-04
4.523316677446328868e+03 1.041780845450272830e+00 2.555300085682132654e-04
4.527839994123776705e+03 1.041929669500299083e+00 2.015902471276856650e-04
4.532367834117902021e+03 1.042347301008363480e+00 2.275914505417533159e-04
4.536900201952022144e+03 1.042901606743252829e+00 2.646936102023676198e-04
4.541437102153975502e+03 1.043563955623706407e+00 2.331465590066482288e-04
4.545978539256130716e+03 1.044207716192853574e+00 1.716919880273616334e-04
