# starting wavelength: 3484.880
# ending wavelength: 7287.060
# wav flux eflux
3.488163626992504760e+03 1.235220339709047321e+00 5.382904396016106180e-02
3.491651790619498570e+03 1.148079321727287549e+00 4.672683879999840056e-02
3.495143442410119405e+03 1.095797195209678776e+00 3.743935917772078792e-02
3.498638585852530468e+03 1.064393815732588289e+00 2.919340754344230959e-02
3.502137224438384237e+03 1.046687048153193356e+00 2.251221663080963178e-02
3.505639361662823831e+03 1.039757098844271921e+00 1.805076186831711810e-02
3.509145001024487556e+03 1.043839279553997246e+00 1.559464893843852049e-02
3.512654146025513455e+03 1.058755096396170048e+00 1.405719476590336879e-02
3.516166800171540217e+03 1.082140850091852124e+00 1.158527436001648321e-02
3.519682966971712631e+03 1.111679653797357448e+00 1.082741600101894131e-02
3.523202649938685681e+03 1.144318369961283555e+00 9.924046506407184151e-03
3.526725852588625457e+03 1.176411865913005173e+00 8.990822300109613252e-03
3.530252578441215064e+03 1.204632408591604031e+00 8.245516345133121344e-03
3.533782831019657806e+03 1.226311570138183704e+00 8.126496029809337704e-03
3.537316613850678550e+03 1.240686304979281340e+00 8.767278901394691404e-03
3.540853930464530094e+03 1.248260504432657125e+00 9.829449170465400995e-03
3.544394784394995895e+03 1.249566716728792715e+00 1.118149221117198042e-02
3.547939179179392340e+03 1.246211341001185691e+00 1.243876245451224112e-02
3.551487118358572843e+03 1.237605097172536750e+00 1.312297084872937787e-02
3.555038605476932389e+03 1.231598269219160935e+00 1.306278816764143771e-02
3.558593644082410719e+03 1.216045516115874081e+00 1.332969177708051567e-02
3.562152237726494150e+03 1.199271285254312813e+00 1.328991778118677677e-02
3.565714389964221937e+03 1.181309360069204839e+00 1.294498489304068620e-02
3.569280104354187188e+03 1.162809415050514605e+00 1.250692976077072936e-02
3.572849384458542772e+03 1.140927956327312254e+00 1.183231433544193120e-02
3.576422233843002232e+03 1.121721922203741784e+00 1.109952442900400196e-02
3.579998656076846601e+03 1.102959121121519948e+00 1.019861428084330342e-02
3.583578654732924406e+03 1.085948698406173918e+00 9.306213958955068810e-03
3.587162233387658489e+03 1.072305431526067387e+00 8.698770098016372562e-03
3.590749395621047370e+03 1.063257343965068991e+00 8.506416589841787543e-03
3.594340145016669794e+03 1.058002698873063530e+00 8.767315740394812651e-03
3.597934485161687462e+03 1.059588167101686018e+00 8.789183292375190790e-03
3.601532419646850485e+03 1.066321867421550218e+00 8.597040365869543233e-03
3.605133952066498296e+03 1.077567889076054719e+00 7.916974022209311013e-03
3.608739086018566013e+03 1.095042062510613867e+00 6.013727626647772696e-03
3.612347825104585809e+03 1.109571340671481554e+00 5.589574210626507486e-03
3.615960172929691907e+03 1.123612288140519722e+00 5.491250065685106263e-03
3.619576133102622407e+03 1.136583965225379522e+00 5.469482228976900277e-03
3.623195709235726554e+03 1.148265864910032796e+00 5.324175976239076992e-03
3.626818904944963379e+03 1.158875473973731474e+00 5.104973479432613030e-03
3.630445723849909427e+03 1.168846925115236024e+00 5.180084625740671682e-03
3.634076169573760581e+03 1.178707735416022029e+00 5.143953723139485512e-03
3.637710245743335690e+03 1.188556905661271701e+00 5.111463275722983625e-03
3.641347955989080219e+03 1.198344695830813489e+00 4.932890471459895967e-03
3.644989303945070333e+03 1.209140428644277510e+00 4.268900833539333861e-03
3.648634293249016537e+03 1.216633026624568847e+00 3.924915351879107624e-03
3.652282927542266862e+03 1.221474831592217480e+00 3.854468674785149849e-03
3.655935210469810499e+03 1.223538162441891730e+00 3.860206685322229228e-03
3.659591145680281443e+03 1.222725001048454496e+00 3.790446689666169926e-03
3.663250736825963031e+03 1.219037929971937162e+00 3.451129531437483258e-03
3.666913987562790226e+03 1.213422005385337732e+00 2.995075144922575497e-03
3.670580901550354156e+03 1.207276925893282948e+00 2.703274827596205843e-03
3.674251482451905758e+03 1.200098069035688830e+00 2.588022447947798364e-03
3.677925733934358959e+03 1.192898993332332624e+00 2.885264745079781090e-03
3.681603659668294313e+03 1.186347138065461548e+00 3.485543984384237553e-03
3.685285263327964003e+03 1.180859351055098205e+00 4.178086785701152703e-03
3.688970548591293209e+03 1.176689379658284684e+00 4.382852738250421314e-03
3.692659519139885560e+03 1.174747510048733457e+00 4.139613235814852341e-03
3.696352178659026777e+03 1.175366168159427849e+00 4.072406576525328982e-03
3.700048530837686940e+03 1.178160239048251512e+00 4.662994603253417004e-03
3.703748579368525952e+03 1.182599166218307962e+00 5.661548326758375320e-03
3.707452327947895355e+03 1.184743919516846322e+00 5.879814132361414064e-03
3.711159780275844696e+03 1.191098134750957049e+00 6.787563317218595071e-03
3.714870940056121526e+03 1.196625979626734004e+00 6.895949155921812963e-03
3.718585810996179134e+03 1.200845341243158115e+00 6.362782834763258503e-03
3.722304396807176545e+03 1.204927671985683402e+00 5.148754487335739649e-03
3.726026701203984885e+03 1.202831823134884681e+00 5.639951564353803959e-03
3.729752727905190113e+03 1.198109384067621352e+00 6.831827137934425552e-03
3.733482480633096657e+03 1.191728734302820225e+00 7.727927981944025977e-03
3.737215963113731050e+03 1.184836916830433573e+00 7.904149212151189915e-03
3.740953179076846027e+03 1.178763762853301422e+00 7.401548195725688242e-03
3.744694132255923705e+03 1.174087922894925029e+00 6.614992920497572357e-03
3.748438826388181042e+03 1.169369158738804204e+00 6.097278860880653469e-03
3.752187265214570289e+03 1.167373349514836400e+00 5.757162813460284939e-03
3.755939452479786269e+03 1.167756769140383177e+00 6.081578138339574849e-03
3.759695391932267285e+03 1.171713942887649074e+00 6.982085272480820747e-03
3.763455087324201031e+03 1.177569768002166173e+00 7.094586005923066672e-03
3.767218542411526414e+03 1.183692809380486155e+00 6.275526011089456631e-03
3.770985760953939007e+03 1.187985498002239071e+00 4.647262646865455392e-03
3.774756746714894234e+03 1.188131171118079532e+00 3.287212916224538373e-03
3.778531503461610555e+03 1.183269850859202554e+00 3.721913291056097930e-03
3.782310034965073100e+03 1.173786525127953118e+00 5.079248155823242079e-03
3.786092345000039586e+03 1.164414111799702667e+00 5.079282963990520289e-03
3.789878437345040766e+03 1.149631391456978013e+00 5.680451104166272386e-03
3.793668315782387253e+03 1.135012694556736257e+00 5.495952965060741519e-03
3.797461984098170888e+03 1.119840117206002184e+00 3.309717391734764633e-03
3.801259446082270188e+03 1.112159254821190046e+00 2.497245998265216951e-03
3.805060705528353537e+03 1.108967307651917977e+00 2.120892239032124912e-03
3.808865766233883278e+03 1.113225932703265197e+00 3.801690414221253582e-03
3.812674632000118436e+03 1.122396506660790827e+00 5.639791125909177083e-03
3.816487306632119726e+03 1.133841555662439937e+00 6.677885583355716755e-03
3.820303793938753188e+03 1.145420414783437923e+00 6.635703921281869110e-03
3.824124097732693372e+03 1.154826419496856937e+00 6.105959646676412285e-03
3.827948221830427428e+03 1.163548237417160625e+00 5.104483939490793258e-03
3.831776170052258749e+03 1.168527452424005020e+00 5.217583944093835691e-03
3.835607946222312421e+03 1.169301639077987787e+00 7.069364229733337245e-03
3.839443554168536139e+03 1.167130632773799359e+00 7.703574905949024491e-03
3.843282997722705659e+03 1.165975391466132827e+00 7.018282636906389427e-03
3.847126280720429804e+03 1.167688976303230763e+00 5.763982276516095571e-03
3.850973407001151372e+03 1.173613143301116324e+00 5.294346549240979208e-03
3.854824380408153957e+03 1.184084769564788031e+00 6.152860382947567333e-03
3.858679204788563311e+03 1.198087632543828773e+00 7.459269972377067896e-03
3.862537883993353262e+03 1.209889634126209312e+00 7.542169739132911603e-03
3.866400421877347981e+03 1.225121624944599974e+00 7.412484876936622710e-03
3.870266822299226533e+03 1.236519442045028283e+00 5.991776181541612345e-03
3.874137089121526969e+03 1.241673168047993547e+00 4.342238294584203386e-03
3.878011226210649966e+03 1.239203715722105859e+00 4.434540432132956858e-03
3.881889237436861549e+03 1.228516125472194576e+00 5.815419003036672967e-03
3.885771126674299921e+03 1.211610158922793445e+00 5.526673746846590823e-03
3.889656897800975457e+03 1.194547263915982871e+00 4.517822738288110665e-03
3.893546554698777527e+03 1.178828697580227125e+00 2.985508545743859824e-03
3.897440101253477678e+03 1.166481929885890167e+00 2.112788937134692756e-03
3.901337541354732366e+03 1.158696835100910150e+00 2.406930655839284190e-03
3.905238878896088409e+03 1.154906932010822951e+00 2.693356766093627820e-03
3.909144117774985716e+03 1.154231470799099268e+00 2.672521217528644587e-03
3.913053261892762293e+03 1.156000985527826375e+00 2.364569888038526788e-03
3.916966315154656058e+03 1.159392661743523956e+00 1.773074646152649099e-03
3.920883281469812118e+03 1.163456416596171383e+00 1.360053931130150804e-03
3.924804164751283224e+03 1.167540803634483204e+00 1.313023420054652921e-03
3.928728968916035683e+03 1.170876691216814036e+00 1.253384760942726980e-03
3.932657697884953450e+03 1.173499260715072268e+00 1.253470090062615370e-03
3.936590355582839493e+03 1.175480015314995796e+00 1.524393696521223482e-03
3.940526945938423523e+03 1.176173646029489372e+00 1.581303180948079919e-03
3.944467472884363360e+03 1.175196255516113286e+00 1.445644365824325962e-03
3.948411940357249023e+03 1.172484887530357289e+00 1.174207875540687722e-03
3.952360352297607733e+03 1.167741286421748459e+00 1.311588505140452937e-03
3.956312712649906643e+03 1.161063084557792502e+00 1.757156225878535880e-03
3.960269025362557841e+03 1.153459120487017042e+00 1.922668559188321505e-03
3.964229294387921527e+03 1.146458021915184977e+00 2.113684819737806503e-03
3.968193523682310570e+03 1.141203448831625167e+00 1.857543579961983080e-03
3.972161717205994591e+03 1.138673490508256281e+00 1.249045980082179970e-03
3.976133878923201792e+03 1.139733460300733414e+00 9.651350935676740028e-04
3.980110012802126221e+03 1.144473864617093550e+00 1.653958854539302895e-03
3.984090122814929600e+03 1.152131030544978119e+00 2.437137687906410465e-03
3.988074212937745870e+03 1.161041775843786539e+00 2.600379360217791678e-03
3.992062287150684824e+03 1.169668570414081232e+00 2.516333838519242694e-03
3.996054349437837118e+03 1.176190516781532303e+00 2.124867010431795520e-03
4.000050403787276082e+03 1.179699301031054803e+00 1.549205079290747475e-03
4.004050454191064546e+03 1.179595654263189575e+00 1.655662514394695478e-03
4.008054504645257111e+03 1.176313718358490856e+00 2.075438852599317732e-03
4.012062559149903791e+03 1.170310041518261901e+00 2.419037395668210619e-03
4.016074621709055009e+03 1.162473919308387060e+00 2.306014237086752468e-03
4.020090696330765240e+03 1.154117108709082684e+00 1.866000189855182177e-03
4.024110787027097558e+03 1.146332918300588810e+00 1.314860126734962529e-03
4.028134897814125907e+03 1.140278002537277846e+00 6.855760401778181277e-04
4.032163032711941469e+03 1.136788611925034331e+00 8.569613720642457830e-04
4.036195195744654484e+03 1.135725486217406432e+00 1.571788671441011693e-03
4.040231390940400615e+03 1.136029542639776402e+00 2.399607762815323710e-03
4.044271622331342314e+03 1.136124680763681338e+00 2.536502753161062971e-03
4.048315893953675186e+03 1.134402544931013557e+00 2.134116621139099060e-03
4.052364209847629809e+03 1.130289921898481875e+00 1.891514702105575674e-03
4.056416574057479011e+03 1.124271313884118495e+00 2.145821649074500757e-03
4.060472990631537868e+03 1.116831918394992629e+00 2.562629297130590827e-03
4.064533463622170530e+03 1.108625586135239871e+00 2.718781822212871548e-03
4.068597997085794304e+03 1.101215030610169565e+00 2.595778153690471782e-03
4.072666595082881486e+03 1.094804692758908127e+00 2.346835053060204908e-03
4.076739261677965715e+03 1.090295130086415876e+00 1.910194389371919947e-03
4.080816000939644709e+03 1.089009199521221216e+00 1.492948921631010893e-03
4.084896816940585722e+03 1.091702643072952839e+00 1.554233325546152886e-03
4.088981713757527814e+03 1.098083969376530300e+00 1.844824060645526695e-03
4.093070695471286854e+03 1.107395400344582503e+00 1.835061897139250936e-03
4.097163766166759160e+03 1.118141453020232268e+00 1.450042015350494441e-03
4.101260929932927866e+03 1.128437639151790739e+00 1.110071632870409958e-03
4.105362190862862008e+03 1.138190785894281021e+00 1.054253042518379880e-03
4.109467553053726078e+03 1.146797698075648464e+00 1.131803122602556165e-03
4.113577020606780934e+03 1.153914970111560967e+00 1.266080175106051777e-03
4.117690597627389252e+03 1.159276811749845981e+00 1.169524466022115556e-03
4.121808288225018259e+03 1.161980279958447104e+00 9.542967826087880899e-04
4.125930096513244280e+03 1.161470719343717484e+00 1.088264936598797462e-03
4.130056026609759101e+03 1.157936663785760878e+00 1.489183987321677149e-03
4.134186082636369974e+03 1.152652539147531519e+00 1.582719925137463174e-03
4.138320268719007800e+03 1.146455001476780033e+00 1.467345286636485705e-03
4.142458588987728035e+03 1.140165637554038769e+00 1.336053667806890105e-03
4.146601047576717065e+03 1.134525745523418561e+00 1.306064051203933247e-03
4.150747648624294925e+03 1.129244092991426252e+00 1.223871650034081757e-03
4.154898396272920763e+03 1.124655027713039823e+00 1.092217873218812290e-03
4.159053294669195566e+03 1.121318932595728457e+00 1.016542060642151727e-03
4.163212347963865795e+03 1.119946777532861093e+00 1.127809905057432878e-03
4.167375560311830668e+03 1.120051746578606178e+00 1.160114552151755808e-03
4.171542935872143971e+03 1.121106431161717820e+00 1.034346012144298594e-03
4.175714478808017702e+03 1.122075864526959510e+00 8.579129400993067318e-04
4.179890193286827525e+03 1.121890754529468515e+00 8.952336695349072783e-04
4.184070083480115500e+03 1.120993910194316712e+00 8.756269647872842515e-04
4.188254153563597356e+03 1.119138194271365849e+00 8.517332836846795057e-04
4.192442407717161586e+03 1.116414804509572978e+00 8.530562793645213564e-04
4.196634850124880359e+03 1.112956079589995984e+00 9.078544744388072907e-04
4.200831484975006788e+03 1.108637568210726787e+00 1.241895873825157653e-03
4.205032316459983122e+03 1.103910172019947789e+00 1.414365342774100880e-03
4.209237348776444378e+03 1.099450420820713648e+00 1.135767478015275566e-03
4.213446586125221984e+03 1.096032257886193850e+00 8.454324476402615748e-04
4.217660032711349231e+03 1.093936552092661829e+00 1.029320440245285340e-03
4.221877692744061278e+03 1.092945579115245813e+00 1.381602876540897811e-03
4.226099570436806971e+03 1.092474561375413211e+00 1.328663124707709113e-03
4.230325670007245208e+03 1.092084142826397875e+00 1.078575056577553209e-03
4.234555995677254032e+03 1.091416717162168259e+00 1.063292122150063688e-03
4.238790551672932452e+03 1.090549934946610344e+00 1.207687405392334108e-03
4.243029342224606808e+03 1.090061138957037379e+00 1.270878523783767252e-03
4.247272371566832589e+03 1.089750017957914485e+00 1.218695619632696823e-03
4.251519643938400804e+03 1.089716024503897263e+00 1.153883803037168958e-03
4.255771163582340705e+03 1.090042393466386539e+00 1.153338017504562099e-03
4.260026934745924336e+03 1.090575069700127742e+00 1.234178101496611734e-03
4.264286961680671993e+03 1.091188220366881012e+00 1.262439901770978602e-03
4.268551248642354039e+03 1.091992812586901840e+00 1.212145866571016743e-03
4.272819799890998183e+03 1.092981199960890715e+00 1.024748150607206632e-03
4.277092619690890388e+03 1.093696738842152127e+00 8.004283362236931480e-04
4.281369712310583054e+03 1.093518882931062253e+00 8.970113881769560408e-04
4.285651082022895025e+03 1.092794079549473052e+00 9.105385298168209652e-04
4.289936733104918858e+03 1.091820055236849107e+00 7.947715384566587070e-04
4.294226669838025373e+03 1.091154041923951379e+00 4.676360359400974216e-04
4.298520896507864563e+03 1.091380532440386464e+00 2.997035194162000604e-04
4.302819417404373780e+03 1.092602553769757456e+00 4.038852673558504438e-04
4.307122236821779552e+03 1.094174075231017174e+00 3.829832200988840399e-04
4.311429359058603040e+03 1.096286837944557835e+00 5.562047647111762480e-04
4.315740788417662770e+03 1.098302938128673745e+00 8.188841464090056621e-04
4.320056529206081905e+03 1.099739525451864930e+00 9.182648476419756145e-04
4.324376585735290064e+03 1.100256504619944176e+00 8.538994963836068304e-04
4.328700962321026054e+03 1.099606251912032873e+00 7.044351205781974922e-04
4.333029663283348782e+03 1.097393019865256170e+00 8.835282122744689054e-04
4.337362692946633615e+03 1.094331818861837391e+00 1.236807945983940844e-03
4.341700055639581478e+03 1.090749298114252586e+00 1.517378000550174922e-03
4.346041755695222491e+03 1.087078159069795324e+00 1.490817102289857324e-03
4.350387797450919606e+03 1.084123019189041637e+00 1.237031147258853096e-03
4.354738185248371337e+03 1.082616277413684047e+00 9.674491140310278927e-04
4.359092923433621763e+03 1.082752557375816549e+00 8.969192300702083639e-04
4.363452016357056891e+03 1.084552800407065476e+00 1.239333765732785787e-03
4.367815468373414660e+03 1.087636066488602005e+00 1.638579482357634337e-03
4.372183283841789489e+03 1.091080093902831338e+00 1.836969517526364356e-03
4.376555467125633186e+03 1.093928036560530392e+00 1.571424968322240184e-03
4.380932022592760404e+03 1.095330826728145857e+00 1.071494694064199001e-03
4.385312954615354101e+03 1.094805227561058247e+00 1.147406577049730168e-03
4.389698267569970994e+03 1.092178486277812333e+00 1.665597730383106640e-03
4.394087965837542470e+03 1.088757364183198462e+00 1.841923721898709081e-03
4.398482053803381859e+03 1.084995111902863796e+00 1.656150578899413328e-03
4.402880535857186260e+03 1.081318864351709319e+00 1.374785570352067120e-03
4.407283416393044718e+03 1.078103467328050291e+00 1.393105560470064841e-03
4.411690699809440048e+03 1.075499579906715741e+00 1.664326767227652763e-03
4.416102390509250654e+03 1.072728880768229809e+00 1.721053371717639908e-03
4.420518492899761441e+03 1.070206015239782094e+00 1.615202445384344250e-03
4.424939011392662906e+03 1.067716425770727673e+00 1.431874377901383227e-03
4.429363950404056595e+03 1.065169303488750163e+00 1.439719660350399257e-03
4.433793314354462382e+03 1.062582441749891915e+00 1.619364205580648948e-03
4.438227107668818462e+03 1.059859552285412176e+00 1.903551189848442160e-03
4.442665334776488635e+03 1.057936538609821397e+00 1.782130906644490429e-03
4.447108000111265937e+03 1.057751501802496330e+00 1.233567785086937601e-03
4.451555108111379013e+03 1.059975615653274916e+00 1.063233921760299615e-03
4.456006663219492111e+03 1.064828592173582944e+00 2.183509770601156814e-03
4.460462669882713271e+03 1.071094694469159281e+00 3.314153477452059897e-03
4.464923132552597053e+03 1.076628112050172392e+00 3.471607175636219362e-03
4.469388055685150903e+03 1.079760241943480858e+00 2.904645050703001663e-03
4.473857443740837880e+03 1.079142522355496681e+00 2.990744153815615668e-03
4.478331301184580298e+03 1.076253682246842258e+00 3.836906986617118903e-03
4.482809632485766087e+03 1.071954822191363066e+00 4.882950001382347846e-03
4.487292442118253348e+03 1.067988027773330684e+00 5.343314010539077473e-03
4.491779734560373072e+03 1.066504626510447196e+00 4.890416734929859885e-03
4.496271514294934605e+03 1.068628769290121072e+00 4.149587235294121580e-03
4.500767785809231100e+03 1.075177628077385705e+00 3.683307530633869124e-03
4.505268553595042249e+03 1.086628282344313190e+00 4.769011679644437167e-03
4.509773822148638828e+03 1.101414785421410913e+00 6.134518117387240815e-03
4.514283595970789065e+03 1.117064853232929478e+00 6.503366926982669452e-03
4.518797879566761367e+03 1.130540082054297457e+00 5.216389079236234856e-03
4.523316677446328868e+03 1.138216724836052851e+00 3.558526626805298427e-03
4.527839994123776705e+03 1.138807633188976487e+00 3.685341716912858903e-03
4.532367834117902021e+03 1.132455762613183925e+00 5.040690678652373462e-03
4.536900201952022144e+03 1.121093467624954654e+00 5.437712920925080913e-03
4.541437102153975502e+03 1.107417885268068281e+00 4.927193931751008664e-03
