# starting wavelength: 3484.880
# ending wavelength: 7071.790
# wav flux eflux
3.488163626992504760e+03 1.067750279686138226e+00 1.258447105367736666e-03
3.491651790619498570e+03 1.070155603675402300e+00 1.039300706079839291e-03
3.495143442410119405e+03 1.071952428155947823e+00 8.541900901965990018e-04
3.498638585852530468e+03 1.073024341339422261e+00 6.491229651599059050e-04
3.502137224438384237e+03 1.073438826176867256e+00 5.055786848641204015e-04
3.505639361662823831e+03 1.073408253705544935e+00 4.363111364623934590e-04
3.509145001024487556e+03 1.073122386922904958e+00 4.496484229460953304e-04
3.512654146025513455e+03 1.072883934798798844e+00 3.597725798138753624e-04
3.516166800171540217e+03 1.072608495833189401e+00 4.198813446980198972e-04
3.519682966971712631e+03 1.072522294939894705e+00 4.555072555033326987e-04
3.523202649938685681e+03 1.072626270771658730e+00 4.580140511152022090e-04
3.526725852588625457e+03 1.072866200619015720e+00 4.391519379215834819e-04
3.530252578441215064e+03 1.073191775007774629e+00 4.141851525157100419e-04
3.533782831019657806e+03 1.073560273646015029e+00 3.878136665310417128e-04
3.537316613850678550e+03 1.073939054916905667e+00 3.634169905256823957e-04
3.540853930464530094e+03 1.074336040831505468e+00 3.439825806249880856e-04
3.544394784394995895e+03 1.074758540767798642e+00 3.291127762595954511e-04
3.547939179179392340e+03 1.075212478428143381e+00 3.181320943765933418e-04
3.551487118358572843e+03 1.075773567011715226e+00 3.200367799705093456e-04
3.555038605476932389e+03 1.076380508228500288e+00 3.085169260330599111e-04
3.558593644082410719e+03 1.077046249948858447e+00 2.973453777173471120e-04
3.562152237726494150e+03 1.077747684071113765e+00 2.898412649068677553e-04
3.565714389964221937e+03 1.078480810246249311e+00 2.956283081453480333e-04
3.569280104354187188e+03 1.079174520986948771e+00 2.970320959942886608e-04
3.572849384458542772e+03 1.079874063673484041e+00 2.970602440974195015e-04
3.576422233843002232e+03 1.080504848731830725e+00 2.921250752869485631e-04
3.579998656076846601e+03 1.081127726242315568e+00 2.961341750785404588e-04
3.583578654732924406e+03 1.081723800597143459e+00 3.168588702453425791e-04
3.587162233387658489e+03 1.082102580204535647e+00 3.223280933797312829e-04
3.590749395621047370e+03 1.082508550824708982e+00 3.515024308944585249e-04
3.594340145016669794e+03 1.082822876414588631e+00 3.803163434369783010e-04
3.597934485161687462e+03 1.083063229791307647e+00 3.959776268902638684e-04
3.601532419646850485e+03 1.083339676348604730e+00 3.547530648321669481e-04
3.605133952066498296e+03 1.083274338575556328e+00 3.112446015325838521e-04
3.608739086018566013e+03 1.083038019523698825e+00 2.655506500600419593e-04
3.612347825104585809e+03 1.082567671695080280e+00 2.677588510255232116e-04
3.615960172929691907e+03 1.081886665711026430e+00 2.857733483940552125e-04
3.619576133102622407e+03 1.080984071857409967e+00 2.979570557955314508e-04
3.623195709235726554e+03 1.079943567064351351e+00 2.960308728173246780e-04
3.626818904944963379e+03 1.078664778778376521e+00 2.709409679279236346e-04
3.630445723849909427e+03 1.077302541948257142e+00 2.321237736573124625e-04
3.634076169573760581e+03 1.075921633567375357e+00 2.401026430348535677e-04
3.637710245743335690e+03 1.074524981792430944e+00 2.854277128125293152e-04
3.641347955989080219e+03 1.073091436515736463e+00 2.930341264844482543e-04
3.644989303945070333e+03 1.071583096039485428e+00 2.950064717683479666e-04
3.648634293249016537e+03 1.070058095709075285e+00 3.297292321761619363e-04
3.652282927542266862e+03 1.068570535578691194e+00 4.113215639335460476e-04
3.655935210469810499e+03 1.067215390217703952e+00 5.085905257634600659e-04
3.659591145680281443e+03 1.066380541331564347e+00 5.258567559683090037e-04
3.663250736825963031e+03 1.065587303732275837e+00 6.027318691082363469e-04
3.666913987562790226e+03 1.065176525230849602e+00 6.472825989303257997e-04
3.670580901550354156e+03 1.065254879374494479e+00 6.424142053055880743e-04
3.674251482451905758e+03 1.065566148157983672e+00 5.893494149748466655e-04
3.677925733934358959e+03 1.066742011783570643e+00 5.559834390897086228e-04
3.681603659668294313e+03 1.068448423795518742e+00 5.593394098508789897e-04
3.685285263327964003e+03 1.070688026557295780e+00 6.110774942724131638e-04
3.688970548591293209e+03 1.073396794891792849e+00 6.961605928942119458e-04
3.692659519139885560e+03 1.076571107589128884e+00 7.835131774376587546e-04
3.696352178659026777e+03 1.079712141008625892e+00 7.797577485526073320e-04
3.700048530837686940e+03 1.083319018498042574e+00 7.838547624320072382e-04
3.703748579368525952e+03 1.086845874502300635e+00 7.035738372749492228e-04
3.707452327947895355e+03 1.090353006482439602e+00 4.385617201349413345e-04
3.711159780275844696e+03 1.092973870606552600e+00 3.790583003840728013e-04
3.714870940056121526e+03 1.095052067576256949e+00 3.677750129593104181e-04
3.718585810996179134e+03 1.096499849518253189e+00 3.741805114140180121e-04
3.722304396807176545e+03 1.097228719977227929e+00 3.640653975276011739e-04
3.726026701203984885e+03 1.097233572152135572e+00 3.209553367276621848e-04
3.729752727905190113e+03 1.096564073963865793e+00 2.771815899351932400e-04
3.733482480633096657e+03 1.095222301041283819e+00 2.753309682013383385e-04
3.737215963113731050e+03 1.093433014388437430e+00 2.907959325562109606e-04
3.740953179076846027e+03 1.091114008773787170e+00 2.856835411308544900e-04
3.744694132255923705e+03 1.088231186265514294e+00 3.172633177358216228e-04
3.748438826388181042e+03 1.084793136630413990e+00 4.176200456070129066e-04
3.752187265214570289e+03 1.080997503766427226e+00 5.507460794537418327e-04
3.755939452479786269e+03 1.077055484548074205e+00 6.508307618847259095e-04
3.759695391932267285e+03 1.073196316817481843e+00 6.785288515942582924e-04
3.763455087324201031e+03 1.069593776079899472e+00 6.367346597815896252e-04
3.767218542411526414e+03 1.066470609196554342e+00 5.905010923394459887e-04
3.770985760953939007e+03 1.063729234710189209e+00 4.798997495299970359e-04
3.774756746714894234e+03 1.061791201824551889e+00 4.741831203253118717e-04
3.778531503461610555e+03 1.060501530065578013e+00 6.158729904974856277e-04
3.782310034965073100e+03 1.060062773416512449e+00 7.528104054099141055e-04
3.786092345000039586e+03 1.060131920293162722e+00 7.558918268741038728e-04
3.789878437345040766e+03 1.060469660883865517e+00 6.155567544447039345e-04
3.793668315782387253e+03 1.060745996814674408e+00 4.340465373156168023e-04
3.797461984098170888e+03 1.060712540927122749e+00 4.404283320036596772e-04
3.801259446082270188e+03 1.060526619312554875e+00 5.406899749950365430e-04
3.805060705528353537e+03 1.060493223622527958e+00 5.698483275923949118e-04
3.808865766233883278e+03 1.060071181699975496e+00 6.245450466028574284e-04
3.812674632000118436e+03 1.059362097119358248e+00 4.673621426347239396e-04
3.816487306632119726e+03 1.059243833962240089e+00 3.554248754724832629e-04
3.820303793938753188e+03 1.059533568146414195e+00 3.309115697223530923e-04
3.824124097732693372e+03 1.060282172794342781e+00 3.680552156520498189e-04
3.827948221830427428e+03 1.061334349689268430e+00 3.965540465117119336e-04
3.831776170052258749e+03 1.062710274734774751e+00 3.880712620356253266e-04
3.835607946222312421e+03 1.064238516633539300e+00 3.403948381067893668e-04
3.839443554168536139e+03 1.065812133015640262e+00 2.673664151916765592e-04
3.843282997722705659e+03 1.067259740854869854e+00 1.951532469386634396e-04
3.847126280720429804e+03 1.068439548536639583e+00 1.718700774408801442e-04
3.850973407001151372e+03 1.069170270349900198e+00 1.761938938869326524e-04
3.854824380408153957e+03 1.069544826380958158e+00 1.533381545736168877e-04
3.858679204788563311e+03 1.069818048967745572e+00 1.684318381300211698e-04
3.862537883993353262e+03 1.069968463440838180e+00 1.564452124420321027e-04
3.866400421877347981e+03 1.070080792210654774e+00 1.545729107565684793e-04
3.870266822299226533e+03 1.070229126882178639e+00 1.553352813767169458e-04
3.874137089121526969e+03 1.070382109088102274e+00 1.587269183292369114e-04
3.878011226210649966e+03 1.070488701857409186e+00 1.658390457149011121e-04
3.881889237436861549e+03 1.070550269295602819e+00 1.813434838333163087e-04
3.885771126674299921e+03 1.070615792854477499e+00 1.975510950932770227e-04
3.889656897800975457e+03 1.070638493606412611e+00 1.786841987372795345e-04
3.893546554698777527e+03 1.070582099010136901e+00 1.499865708505522771e-04
3.897440101253477678e+03 1.070422018301230072e+00 1.668730625938250338e-04
3.901337541354732366e+03 1.070183162940622656e+00 2.066582510572000661e-04
3.905238878896088409e+03 1.069913527982901069e+00 2.139004862210722429e-04
3.909144117774985716e+03 1.069747880090340608e+00 1.725082131466168208e-04
3.913053261892762293e+03 1.069712286490962949e+00 1.680896921272245206e-04
3.916966315154656058e+03 1.069835902855052590e+00 2.256559985084330346e-04
3.920883281469812118e+03 1.070025148558113592e+00 2.208576007711575970e-04
3.924804164751283224e+03 1.070162908498656584e+00 2.204112872135398447e-04
3.928728968916035683e+03 1.070327360926599081e+00 2.653100493300212886e-04
3.932657697884953450e+03 1.070608872890995045e+00 3.002540275061901039e-04
3.936590355582839493e+03 1.071044676455201516e+00 3.019543894466520132e-04
3.940526945938423523e+03 1.071565396834132100e+00 2.890512331539591600e-04
3.944467472884363360e+03 1.072152625588544961e+00 3.004697550524341901e-04
3.948411940357249023e+03 1.072757698927327752e+00 3.537492078838460328e-04
3.952360352297607733e+03 1.073243624009314834e+00 4.011604960241765545e-04
3.956312712649906643e+03 1.073485977469966768e+00 3.951489900397238192e-04
3.960269025362557841e+03 1.073452364970325146e+00 3.531801959333968704e-04
3.964229294387921527e+03 1.073011821712786196e+00 2.845766443986229299e-04
3.968193523682310570e+03 1.072006142342006196e+00 2.274773510178952694e-04
3.972161717205994591e+03 1.070386811319885778e+00 2.772524584667446245e-04
3.976133878923201792e+03 1.068271146629438118e+00 3.232110407666005506e-04
3.980110012802126221e+03 1.065829930698749761e+00 2.870199782429674906e-04
3.984090122814929600e+03 1.063351991123032692e+00 2.301518226606868317e-04
3.988074212937745870e+03 1.061114383984398835e+00 1.790187484503320380e-04
3.992062287150684824e+03 1.059332797676442173e+00 1.649305063382244222e-04
3.996054349437837118e+03 1.058056059083525069e+00 1.604983754655732583e-04
4.000050403787276082e+03 1.057322559781072036e+00 1.320887001971342279e-04
4.004050454191064546e+03 1.057257703385230840e+00 1.447344882085194152e-04
4.008054504645257111e+03 1.057803154742523510e+00 2.368792642061429458e-04
4.012062559149903791e+03 1.058831022000843669e+00 3.189162310503577545e-04
4.016074621709055009e+03 1.060121689195419936e+00 3.496549145499092430e-04
4.020090696330765240e+03 1.061461946274605772e+00 3.120247671418707454e-04
4.024110787027097558e+03 1.062654309162206712e+00 2.225225525574352811e-04
4.028134897814125907e+03 1.063512162983071718e+00 1.556323631559520366e-04
4.032163032711941469e+03 1.063909464253583348e+00 1.600320975108949497e-04
4.036195195744654484e+03 1.063917851612673271e+00 1.665576046817581813e-04
4.040231390940400615e+03 1.063537696887863149e+00 1.686175153820982742e-04
4.044271622331342314e+03 1.062722711465623249e+00 1.586460345675646838e-04
4.048315893953675186e+03 1.061528443785797915e+00 1.389481460268867481e-04
4.052364209847629809e+03 1.060135209762559594e+00 1.478166730040313245e-04
4.056416574057479011e+03 1.058665622848805610e+00 2.009050197136613692e-04
4.060472990631537868e+03 1.057280999924726128e+00 2.502830699135892567e-04
4.064533463622170530e+03 1.056185642331567198e+00 2.710357867808977392e-04
4.068597997085794304e+03 1.055546778802628038e+00 2.543426550463083317e-04
4.072666595082881486e+03 1.055294315943291927e+00 2.703850094356060447e-04
4.076739261677965715e+03 1.055367752662385916e+00 3.342257001845147578e-04
4.080816000939644709e+03 1.055730861751375205e+00 3.928424896711810079e-04
4.084896816940585722e+03 1.056236140905312482e+00 3.890576015862905472e-04
4.088981713757527814e+03 1.056783159702465946e+00 3.385429475648922180e-04
4.093070695471286854e+03 1.057276272930004035e+00 2.969234857796433885e-04
4.097163766166759160e+03 1.057670546308046244e+00 2.911410200247549354e-04
4.101260929932927866e+03 1.057902846088607962e+00 3.006713471556679497e-04
4.105362190862862008e+03 1.057955244643400183e+00 2.893374023927572695e-04
4.109467553053726078e+03 1.057826069201329044e+00 2.487323969465097227e-04
4.113577020606780934e+03 1.057570526227712193e+00 2.239467646466888624e-04
4.117690597627389252e+03 1.057221292220652975e+00 2.348280624156091889e-04
4.121808288225018259e+03 1.056751396562957135e+00 2.324714724284517367e-04
4.125930096513244280e+03 1.056171441550326273e+00 2.081332990577690757e-04
4.130056026609759101e+03 1.055398645241360400e+00 1.538469116317294600e-04
4.134186082636369974e+03 1.054335589730015510e+00 1.567931142040358643e-04
4.138320268719007800e+03 1.052994552444197707e+00 1.781545444111639655e-04
4.142458588987728035e+03 1.051468187831244183e+00 1.369417864896273738e-04
4.146601047576717065e+03 1.049890135779062650e+00 1.250743235072352441e-04
4.150747648624294925e+03 1.048250283202482480e+00 1.464322257791591186e-04
4.154898396272920763e+03 1.046527837887765822e+00 1.451489339698732828e-04
4.159053294669195566e+03 1.044794807618153909e+00 1.785559276666540520e-04
4.163212347963865795e+03 1.043120427204442979e+00 2.423608679498312057e-04
4.167375560311830668e+03 1.041633668626063658e+00 2.591613638111157762e-04
4.171542935872143971e+03 1.040406723690303181e+00 2.395303841308424558e-04
4.175714478808017702e+03 1.039455519353564172e+00 2.401938371462721802e-04
4.179890193286827525e+03 1.038756442643937961e+00 2.836796303741670965e-04
4.184070083480115500e+03 1.038226554627297293e+00 3.221891770712155610e-04
4.188254153563597356e+03 1.037776296743537996e+00 3.245031081203283031e-04
4.192442407717161586e+03 1.037359468111280769e+00 2.977839087957700613e-04
4.196634850124880359e+03 1.036926195056437461e+00 2.736084027923024417e-04
4.200831484975006788e+03 1.036453535526564718e+00 2.666804293537906271e-04
4.205032316459983122e+03 1.035947452714391259e+00 2.680177105316065389e-04
4.209237348776444378e+03 1.035334467527946112e+00 2.791434720694970254e-04
4.213446586125221984e+03 1.034634238808934459e+00 2.536633120810112617e-04
4.217660032711349231e+03 1.033938020775794664e+00 1.795277659489058811e-04
4.221877692744061278e+03 1.033389953186678589e+00 1.336228381935160216e-04
4.226099570436806971e+03 1.033042168695017970e+00 1.407434793371679438e-04
4.230325670007245208e+03 1.032887633846310660e+00 1.235508439501674491e-04
4.234555995677254032e+03 1.032752972930509383e+00 8.463067594549312188e-05
4.238790551672932452e+03 1.032581082375576997e+00 5.778905219978760881e-05
4.243029342224606808e+03 1.032320094955910816e+00 6.102893884108066212e-05
4.247272371566832589e+03 1.031961084969972742e+00 7.056201611381744015e-05
4.251519643938400804e+03 1.031487539078573823e+00 8.163340535172346917e-05
4.255771163582340705e+03 1.030857653041659994e+00 8.503780651016448549e-05
4.260026934745924336e+03 1.030105616578664618e+00 6.692055253728288464e-05
4.264286961680671993e+03 1.029193498274919127e+00 4.275483958960845309e-05
4.268551248642354039e+03 1.028100312547342243e+00 3.900420327188121468e-05
4.272819799890998183e+03 1.026906046852315679e+00 4.255681640768541019e-05
4.277092619690890388e+03 1.025590738548901815e+00 8.017436192641180911e-05
4.281369712310583054e+03 1.024305424395784980e+00 1.706919623328501492e-04
4.285651082022895025e+03 1.023222633378758850e+00 2.213879812664309576e-04
4.289936733104918858e+03 1.022453368818989849e+00 2.654604782027650614e-04
4.294226669838025373e+03 1.022183377226621337e+00 2.695225277727068434e-04
4.298520896507864563e+03 1.022558100070779075e+00 2.282387272820998248e-04
4.302819417404373780e+03 1.023707969041819155e+00 1.862133834977205732e-04
4.307122236821779552e+03 1.025597370198984004e+00 2.236474552145956683e-04
4.311429359058603040e+03 1.028155385637413044e+00 3.157981121450163103e-04
4.315740788417662770e+03 1.031053204051725958e+00 3.169284045893680968e-04
4.320056529206081905e+03 1.034275288894993317e+00 3.211349781000578615e-04
4.324376585735290064e+03 1.037580372244509164e+00 3.137323836640353264e-04
4.328700962321026054e+03 1.040655605569317910e+00 2.812708800838989009e-04
4.333029663283348782e+03 1.043206082585074412e+00 2.226492273882589405e-04
4.337362692946633615e+03 1.044941771539529274e+00 1.732859360790975822e-04
4.341700055639581478e+03 1.045862479209748175e+00 1.653228695125934645e-04
4.346041755695222491e+03 1.045844796314563618e+00 1.659116509362584856e-04
4.350387797450919606e+03 1.044876133980331856e+00 1.673569030599480166e-04
4.354738185248371337e+03 1.043086823373439831e+00 1.940777344579821899e-04
4.359092923433621763e+03 1.040547183240319473e+00 2.268923411888970360e-04
4.363452016357056891e+03 1.037389076472098326e+00 3.420479108819246290e-04
4.367815468373414660e+03 1.033981689571323637e+00 4.466869210621003542e-04
4.372183283841789489e+03 1.030588972858084595e+00 4.715162009693805718e-04
4.376555467125633186e+03 1.027548056720043013e+00 4.116999926196191124e-04
4.380932022592760404e+03 1.025168559661967294e+00 2.907329968701497219e-04
4.385312954615354101e+03 1.023626985501939091e+00 2.375031877943563656e-04
4.389698267569970994e+03 1.023019391111246179e+00 2.583144703824122139e-04
4.394087965837542470e+03 1.023307372608441845e+00 2.986492037014360965e-04
4.398482053803381859e+03 1.024217404693514855e+00 3.643858275984243091e-04
4.402880535857186260e+03 1.025770584688705744e+00 4.002291647197537259e-04
4.407283416393044718e+03 1.027685521882659714e+00 4.013783408719480503e-04
4.411690699809440048e+03 1.029583703549177942e+00 3.261511014570744058e-04
4.416102390509250654e+03 1.031129663048517608e+00 2.184030773860179116e-04
4.420518492899761441e+03 1.032063839531659255e+00 1.947434529310122103e-04
4.424939011392662906e+03 1.032473790623275489e+00 2.436922202180935679e-04
4.429363950404056595e+03 1.032361325372035843e+00 3.086951877815219923e-04
4.433793314354462382e+03 1.031839181904877334e+00 3.272966584825772536e-04
4.438227107668818462e+03 1.031045357560241849e+00 3.200439301557809015e-04
4.442665334776488635e+03 1.030171156138653510e+00 3.153922206103241762e-04
4.447108000111265937e+03 1.029227689893986941e+00 2.525611030326202467e-04
4.451555108111379013e+03 1.028358083512382670e+00 2.001855247564550270e-04
4.456006663219492111e+03 1.027693827706292584e+00 1.730531149869450397e-04
4.460462669882713271e+03 1.027391355757354185e+00 1.692582000232456996e-04
4.464923132552597053e+03 1.027508505537822359e+00 1.560375894691389844e-04
4.469388055685150903e+03 1.027894600266451297e+00 1.538963997495342473e-04
4.473857443740837880e+03 1.028484509537122449e+00 1.683159782207810341e-04
4.478331301184580298e+03 1.029132580670401254e+00 1.757604459949422421e-04
4.482809632485766087e+03 1.029757137775385356e+00 1.855685685048739778e-04
4.487292442118253348e+03 1.030330355392029773e+00 1.925167512840254131e-04
4.491779734560373072e+03 1.030847660868850157e+00 1.817389918058242638e-04
4.496271514294934605e+03 1.031244672212994429e+00 1.722041563397509528e-04
4.500767785809231100e+03 1.031368160878895601e+00 1.450548739202469977e-04
4.505268553595042249e+03 1.031051955253414532e+00 1.239817429877604045e-04
4.509773822148638828e+03 1.030275190330969259e+00 1.251167135695359920e-04
4.514283595970789065e+03 1.029085085329518590e+00 1.420359285635692614e-04
4.518797879566761367e+03 1.027558733002180702e+00 1.731964963358220244e-04
4.523316677446328868e+03 1.025796748877910725e+00 1.902439348893383223e-04
4.527839994123776705e+03 1.023957716010743368e+00 1.982783918189049864e-04
4.532367834117902021e+03 1.022166258726681098e+00 2.081066123162835359e-04
4.536900201952022144e+03 1.020398049290852871e+00 1.945844513672024363e-04
4.541437102153975502e+03 1.018745015490669203e+00 1.616928965570318857e-04
