# starting wavelength: 3552.866
# ending wavelength: 8392.448
# wav flux eflux
3.555038605476932389e+03 1.409416216817089618e+00 6.766969126771924632e-19
3.558593644082410719e+03 1.345933829439591278e+00 1.782195152281891890e-18
3.562152237726494150e+03 1.282387959674722078e+00 2.888798890126078100e-18
3.565714389964221937e+03 1.218778544040083123e+00 3.996509231708192992e-18
3.569280104354187188e+03 1.155105518989814506e+00 5.105327283631808464e-18
3.572849384458542772e+03 1.091368820914488946e+00 6.215254153607462010e-18
3.576422233843002232e+03 1.031815121824547710e+00 7.246393374979304894e-18
3.579998656076846601e+03 1.010966965250856164e+00 7.549241867795980488e-18
3.583578654732924406e+03 9.900979605205934009e-01 7.852393209105438856e-18
3.587162233387658489e+03 9.692080867855991100e-01 8.155847701756222528e-18
3.590749395621047370e+03 9.482973231768695443e-01 8.459605648899662580e-18
3.594340145016669794e+03 9.273656488045303181e-01 8.763667353990259193e-18
3.597934485161687462e+03 9.064130427578209748e-01 9.068033120785914308e-18
3.601532419646850485e+03 8.989540848721672139e-01 9.034655357299784168e-18
3.605133952066498296e+03 9.003962255519096791e-01 8.778409729151867368e-18
3.608739086018566013e+03 9.018398083723319081e-01 8.521907855375782182e-18
3.612347825104585809e+03 9.032848347755746410e-01 8.265149479725922424e-18
3.615960172929691907e+03 9.047313062052206867e-01 8.008134345700389941e-18
3.619576133102622407e+03 9.061792241062961439e-01 7.750862196540883671e-18
3.623195709235726554e+03 8.967711062485403950e-01 7.516709216774324931e-18
3.626818904944963379e+03 8.252030669357537374e-01 7.416133737363038649e-18
3.630445723849909427e+03 7.535634595836544491e-01 7.315457682472342785e-18
3.634076169573760581e+03 6.818522126241999270e-01 7.214680951526750572e-18
3.637710245743335690e+03 6.100692544177839238e-01 7.113803443850210880e-18
3.641347955989080219e+03 5.382145132531646059e-01 7.012825058665998832e-18
3.644989303945070333e+03 4.662879173473838401e-01 6.911745695096606405e-18
3.648634293249016537e+03 4.604351360466100718e-01 6.861852624043200196e-18
3.652282927542266862e+03 4.753527293809928778e-01 6.828018907202332159e-18
3.655935210469810499e+03 4.902852403087103461e-01 6.794151356644621982e-18
3.659591145680281443e+03 5.052326837473545273e-01 6.760249938536356998e-18
3.663250736825963031e+03 5.201950746294381478e-01 6.726314619009982095e-18
3.666913987562790226e+03 5.351724279024034914e-01 6.692345364164081236e-18
3.670580901550354156e+03 5.561018806114728097e-01 6.702073525617726133e-18
3.674251482451905758e+03 5.863795414636212566e-01 6.780513863134533794e-18
3.677925733934358959e+03 6.166874799766223214e-01 6.859032640988860009e-18
3.681603659668294313e+03 6.470257264281338294e-01 6.937629937621033422e-18
3.685285263327964003e+03 6.773943111261001571e-01 7.016305831549847374e-18
3.688970548591293209e+03 7.077932644087632230e-01 7.095060401372586866e-18
3.692659519139885560e+03 7.365377117368960835e-01 7.136490086873668488e-18
3.696352178659026777e+03 7.376272287073472045e-01 6.563404160416400082e-18
3.700048530837686940e+03 7.387178351947686350e-01 5.989745148032703412e-18
3.703748579368525952e+03 7.398095322886776293e-01 5.415512476636594168e-18
3.707452327947895355e+03 7.409023210796803482e-01 4.840705572569159319e-18
3.711159780275844696e+03 7.419962026594743021e-01 4.265323861597567185e-18
3.714870940056121526e+03 7.430911781208479061e-01 3.689366768915075911e-18
3.718585810996179134e+03 7.754705669588408679e-01 3.540405720725323984e-18
3.722304396807176545e+03 8.174680110162402258e-01 3.522310156594185088e-18
3.726026701203984885e+03 8.595074525176962243e-01 3.504196496898915732e-18
3.729752727905190113e+03 9.015889334606544958e-01 3.486064723543950397e-18
3.733482480633096657e+03 9.437124958845570788e-01 3.467914818415629452e-18
3.737215963113731050e+03 9.858781818708828304e-01 3.449746763382181050e-18
3.740953179076846027e+03 1.013274023299703508e+00 3.500178070722494130e-18
3.744694132255923705e+03 1.027938342824970430e+00 3.609766265024220090e-18
3.748438826388181042e+03 1.042617326669764921e+00 3.719464047520264463e-18
3.752187265214570289e+03 1.057310989498402742e+00 3.829271527798795165e-18
3.755939452479786269e+03 1.072019345989870809e+00 3.939188815557614057e-18
3.759695391932267285e+03 1.086742410837829409e+00 4.049216020604186995e-18
3.763455087324201031e+03 1.098454482424985112e+00 4.056786597748971472e-18
3.767218542411526414e+03 1.103847878917721070e+00 3.849775350013076964e-18
3.770985760953939007e+03 1.109246668806949554e+00 3.642557091029452814e-18
3.774756746714894234e+03 1.114650857486067626e+00 3.435131613786832661e-18
3.778531503461610555e+03 1.120060450353865145e+00 3.227498711066962366e-18
3.782310034965073100e+03 1.125475452814529653e+00 3.019658175444399327e-18
3.786092345000039586e+03 1.125116624695712941e+00 2.850022481225520722e-18
3.789878437345040766e+03 1.091472674930956677e+00 2.901449661580219795e-18
3.793668315782387253e+03 1.057795081216432731e+00 2.952928269115277610e-18
3.797461984098170888e+03 1.024083809908196141e+00 3.004458355257868167e-18
3.801259446082270188e+03 9.903388273286521937e-01 3.056039971486599349e-18
3.805060705528353537e+03 9.565600997665293370e-01 3.107673169331558764e-18
3.808865766233883278e+03 9.231692353331640843e-01 3.154117936635004813e-18
3.812674632000118436e+03 9.016243157736933966e-01 3.052975616795462947e-18
3.816487306632119726e+03 8.800578512946637399e-01 2.951732154636083808e-18
3.820303793938753188e+03 8.584698203511541559e-01 2.850387449014541310e-18
3.824124097732693372e+03 8.368602013767005854e-01 2.748941398687374548e-18
3.827948221830427428e+03 8.152289727832728872e-01 2.647393902309882259e-18
3.831776170052258749e+03 7.935761129612544096e-01 2.545744858436025368e-18
3.835607946222312421e+03 8.446703514357633003e-01 2.590316073937978489e-18
3.839443554168536139e+03 9.009640353488298503e-01 2.645284059378652152e-18
3.843282997722705659e+03 9.573140129458033165e-01 2.700307012804760787e-18
3.847126280720429804e+03 1.013720340520380514e+00 2.755384989184301754e-18
3.850973407001151372e+03 1.070183074422527580e+00 2.810518043540218035e-18
3.854824380408153957e+03 1.126702271058581450e+00 2.865706230950494536e-18
3.858679204788563311e+03 1.109674860112189965e+00 2.797876917142455518e-18
3.862537883993353262e+03 1.081684000331889939e+00 2.711676128742926487e-18
3.866400421877347981e+03 1.053665149691810132e+00 2.625389139554998716e-18
3.870266822299226533e+03 1.025618280201091137e+00 2.539015863377886659e-18
3.874137089121526969e+03 9.975433638408814918e-01 2.452556213924597062e-18
3.878011226210649966e+03 9.694403725643097047e-01 2.366010104821848463e-18
3.881889237436861549e+03 1.032633162394993809e+00 2.322292980503890818e-18
3.885771126674299921e+03 1.112809908295299355e+00 2.286483657401521276e-18
3.889656897800975457e+03 1.193066830941499346e+00 2.250638524976051809e-18
3.893546554698777527e+03 1.273404010510342799e+00 2.214757547418158131e-18
3.897440101253477678e+03 1.353821527258760815e+00 2.178840688882704056e-18
3.901337541354732366e+03 1.434319461523923867e+00 2.142887913488716084e-18
3.905238878896088409e+03 1.376303007116853161e+00 2.139735891904500990e-18
3.909144117774985716e+03 1.298658600670704155e+00 2.141217341253696055e-18
3.913053261892762293e+03 1.220936549818101735e+00 2.142700272052240719e-18
3.916966315154656058e+03 1.143136776914658537e+00 2.144184685781583405e-18
3.920883281469812118e+03 1.065259204238303781e+00 2.145670583924655506e-18
3.924804164751283224e+03 9.873037539892750569e-01 2.147157967965870991e-18
3.928728968916035683e+03 1.009598392542251366e+00 2.266285433198442510e-18
3.932657697884953450e+03 1.040515088918974484e+00 2.395615587832726454e-18
3.936590355582839493e+03 1.071462701992069277e+00 2.525075072621623224e-18
3.940526945938423523e+03 1.102441262678237832e+00 2.654664016895312178e-18
3.944467472884363360e+03 1.133450801925094620e+00 2.784382550113282310e-18
3.948411940357249023e+03 1.164537904610063679e+00 2.914124622168608997e-18
3.952360352297607733e+03 1.238386324039820297e+00 2.946537729339135604e-18
3.956312712649906643e+03 1.312308591889003839e+00 2.978983249616831414e-18
3.960269025362557841e+03 1.386304782006036129e+00 3.011461215414804648e-18
3.964229294387921527e+03 1.460374968313182586e+00 3.043971659178575004e-18
3.968193523682310570e+03 1.534519224806635940e+00 3.076514613386108708e-18
3.972161717205994591e+03 1.588904172962342765e+00 3.078523096092449727e-18
3.976133878923201792e+03 1.520259400159337915e+00 2.890838241672527237e-18
3.980110012802126221e+03 1.451545982583529737e+00 2.702965702398183502e-18
3.984090122814929600e+03 1.382763851590145254e+00 2.514905290584564101e-18
3.988074212937745870e+03 1.313912938465765956e+00 2.326656818359126964e-18
3.992062287150684824e+03 1.244993174428264515e+00 2.138220097661470961e-18
3.996054349437837118e+03 1.198929760064875616e+00 2.036158431187173893e-18
4.000050403787276082e+03 1.209541060958963854e+00 2.148166607291439104e-18
4.004050454191064546e+03 1.220162973153946506e+00 2.260286791571810045e-18
4.008054504645257111e+03 1.230795507261124744e+00 2.372519096036469962e-18
4.012062559149903791e+03 1.241438673902410139e+00 2.484863632805592618e-18
4.016074621709055009e+03 1.252092483710336435e+00 2.597320514111481341e-18
4.020090696330765240e+03 1.246804602676692575e+00 2.615611495409030157e-18
4.024110787027097558e+03 1.223590435261687315e+00 2.528007666550944660e-18
4.028134897814125907e+03 1.200353053679268811e+00 2.440316233864007522e-18
4.032163032711941469e+03 1.177092434715266700e+00 2.352537109744379364e-18
4.036195195744654484e+03 1.153808555132302738e+00 2.264670206500639530e-18
4.040231390940400615e+03 1.130501391669753497e+00 2.176715436353647029e-18
4.044271622331342314e+03 1.123102813135728129e+00 2.111486570815268792e-18
4.048315893953675186e+03 1.122931678941346156e+00 2.056552494418608780e-18
4.052364209847629809e+03 1.122760373612769591e+00 2.001563483945559984e-18
4.056416574057479011e+03 1.122588896978864659e+00 1.946519484462029887e-18
4.060472990631537868e+03 1.122417248868325501e+00 1.891420440979018864e-18
4.064533463622170530e+03 1.122245429109676174e+00 1.836266298452528126e-18
4.068597997085794304e+03 1.115822949148018717e+00 1.907273773655840787e-18
4.072666595082881486e+03 1.109134797962407326e+00 1.983587293594227064e-18
4.076739261677965715e+03 1.102439958625610394e+00 2.059977127052550992e-18
4.080816000939644709e+03 1.095738424449477222e+00 2.136443350344327533e-18
4.084896816940585722e+03 1.089030188739167349e+00 2.212986039859402030e-18
4.088981713757527814e+03 1.088340116403178515e+00 2.174217847271229773e-18
4.093070695471286854e+03 1.106436890337702872e+00 1.775594847723372372e-18
4.097163766166759160e+03 1.124551761046159504e+00 1.376573225176015082e-18
4.101260929932927866e+03 1.142684746625328707e+00 9.771525810060201304e-19
4.105362190862862008e+03 1.160835865190073868e+00 5.773325161919264092e-19
4.109467553053726078e+03 1.179005134873383875e+00 1.771126313130190584e-19
4.113577020606780934e+03 1.186457328679002554e+00 2.231913353956936080e-19
4.117690597627389252e+03 1.185412927478702638e+00 6.231736875571394756e-19
4.121808288225018259e+03 1.184367481877202311e+00 1.023556022070754445e-18
4.125930096513244280e+03 1.183320990830100561e+00 1.424338738918823252e-18
4.130056026609759101e+03 1.182273453291951659e+00 1.825522238483796311e-18
4.134186082636369974e+03 1.181224868216264712e+00 2.227106921548289042e-18
4.138320268719007800e+03 1.211856257333700615e+00 2.107246975981122167e-18
4.142458588987728035e+03 1.244997927655846492e+00 1.946422659996813954e-18
4.146601047576717065e+03 1.278172739648315348e+00 1.785437519696518609e-18
4.150747648624294925e+03 1.311380726452775258e+00 1.624291394255928748e-18
4.154898396272920763e+03 1.344621921244042673e+00 1.462984122689882935e-18
4.159053294669195566e+03 1.367965982994570284e+00 1.375966511769476161e-18
4.163212347963865795e+03 1.368842501689887081e+00 1.457482750433938105e-18
4.167375560311830668e+03 1.369719896903899059e+00 1.539080505337063920e-18
4.171542935872143971e+03 1.370598169513125297e+00 1.620759857995101914e-18
4.175714478808017702e+03 1.371477320394960842e+00 1.702520890005800356e-18
4.179890193286827525e+03 1.372357350427678258e+00 1.784363683048513595e-18
4.184070083480115500e+03 1.323411305094078561e+00 1.734654480226716432e-18
4.188254153563597356e+03 1.254715984507761561e+00 1.632850847914519847e-18
4.192442407717161586e+03 1.185951968600876372e+00 1.530945411970038038e-18
4.196634850124880359e+03 1.117119188678068253e+00 1.428938070589587896e-18
4.200831484975006788e+03 1.048217575975338267e+00 1.326828721867758883e-18
4.205032316459983122e+03 9.906223647068110871e-01 1.245871165510589664e-18
4.209237348776444378e+03 9.848797319782417459e-01 1.261822923089948883e-18
4.213446586125221984e+03 9.791313566169439486e-01 1.277790632426886996e-18
4.217660032711349231e+03 9.733772328802836604e-01 1.293774309473165479e-18
4.221877692744061278e+03 9.676173550198885476e-01 1.309773970196485190e-18
4.226099570436806971e+03 9.618517172816317684e-01 1.325789630580531626e-18
4.230325670007245208e+03 9.785861902440438076e-01 1.325911579801629642e-18
4.234555995677254032e+03 1.007365079422761989e+00 1.317531110214270603e-18
4.238790551672932452e+03 1.036172747490656132e+00 1.309142260157324878e-18
4.243029342224606808e+03 1.065009223226619950e+00 1.300745021250321898e-18
4.247272371566832589e+03 1.093874535438318141e+00 1.292339385104412339e-18
4.251519643938400804e+03 1.115245695093828759e+00 1.282986346965801402e-18
4.255771163582340705e+03 1.095354363254551266e+00 1.268471050758761073e-18
4.260026934745924336e+03 1.075443140083435667e+00 1.253941239255514381e-18
4.264286961680671993e+03 1.055512005689146715e+00 1.239396897940762981e-18
4.268551248642354039e+03 1.035560940160465071e+00 1.224838012284698186e-18
4.272819799890998183e+03 1.015589923566253105e+00 1.210264567742975737e-18
4.277092619690890388e+03 1.010072433865323971e+00 1.244434209499549997e-18
4.281369712310583054e+03 1.011158350245015436e+00 1.300901861243509768e-18
4.285651082022895025e+03 1.012245352541086607e+00 1.357425980639208684e-18
4.289936733104918858e+03 1.013333441839453730e+00 1.414006624154297187e-18
4.294226669838025373e+03 1.014422619227119293e+00 1.470643848312909392e-18
4.298520896507864563e+03 1.025776436572736428e+00 1.475309189949915781e-18
4.302819417404373780e+03 1.064911810456547814e+00 1.339205056331771880e-18
4.307122236821779552e+03 1.104086319714243203e+00 1.202964818580008697e-18
4.311429359058603040e+03 1.143300003481199312e+00 1.066588340590483644e-18
4.315740788417662770e+03 1.182552900931917117e+00 9.300754861229875646e-19
4.320056529206081905e+03 1.221845051280088690e+00 7.934261188010130507e-19
4.324376585735290064e+03 1.199374215501162189e+00 6.507542758677284460e-19
4.328700962321026054e+03 1.166929781420143808e+00 5.069920515761332542e-19
4.333029663283348782e+03 1.134452902905036753e+00 3.630860650602130963e-19
4.337362692946633615e+03 1.101943547511416099e+00 2.190361725577843306e-19
4.341700055639581478e+03 1.069401682762403771e+00 7.484223016286154098e-20
4.346041755695222491e+03 1.048454766528390314e+00 6.744902010561534818e-20
4.350387797450919606e+03 1.039995198154387346e+00 2.073671803959130793e-19
4.354738185248371337e+03 1.031527170212012567e+00 3.474252588464662901e-19
4.359092923433621763e+03 1.023050674241692715e+00 4.876233953755101411e-19
4.363452016357056891e+03 1.014565701775403728e+00 6.279617300410653287e-19
4.367815468373414660e+03 1.003574245018222788e+00 7.258008751567623946e-19
4.372183283841789489e+03 9.786282821835814438e-01 5.857294355995976482e-19
4.376555467125633186e+03 9.536573733861027913e-01 4.455179246028599671e-19
4.380932022592760404e+03 9.286614936798283093e-01 3.051662020951358101e-19
4.385312954615354101e+03 9.036406180938514332e-01 1.646741278649246920e-19
4.389698267569970994e+03 8.785947216322850251e-01 2.404156156046421270e-20
4.394087965837542470e+03 8.754763461284955639e-01 1.313421101698129469e-19
4.398482053803381859e+03 8.768654243554542260e-01 2.897214258130863744e-19
4.402880535857186260e+03 8.782558916606396648e-01 4.482591207719732302e-19
4.407283416393044718e+03 8.796477494331303992e-01 6.069553534258280476e-19
4.411690699809440048e+03 8.810409990633938371e-01 7.658102823123733275e-19
4.416102390509250654e+03 9.062861365867243002e-01 8.277459076533704651e-19
4.420518492899761441e+03 9.522623056700623145e-01 8.054651487899066854e-19
4.424939011392662906e+03 9.982844509224855223e-01 7.831621091675784856e-19
4.429363950404056595e+03 1.044352618320154136e+00 7.608367665056314807e-19
4.433793314354462382e+03 1.090466853885227572e+00 7.384890985010189351e-19
4.438227107668818462e+03 1.117536166977575407e+00 7.180851970452152828e-19
4.442665334776488635e+03 1.092745972629658890e+00 7.030044954835660656e-19
4.447108000111265937e+03 1.067930988087397504e+00 6.879087132203570388e-19
4.451555108111379013e+03 1.043091188560588023e+00 6.727978351748814107e-19
4.456006663219492111e+03 1.018226549234252598e+00 6.576718462513605431e-19
4.460462669882713271e+03 9.948286151826539747e-01 6.437916557819777175e-19
4.464923132552597053e+03 9.993408100226781610e-01 6.535116754998632246e-19
4.469388055685150903e+03 1.003857517057542559e+00 6.632414152374668919e-19
4.473857443740837880e+03 1.008378740799442452e+00 6.729808847148094300e-19
4.478331301184580298e+03 1.012904485765083962e+00 6.827300936616288288e-19
4.482809632485766087e+03 1.017434756475690705e+00 6.924890518173942247e-19
4.487292442118253348e+03 1.042583174503939780e+00 7.123742979128100429e-19
4.491779734560373072e+03 1.071710579107024719e+00 7.342198513651237269e-19
4.496271514294934605e+03 1.100867111114710584e+00 7.560872503708881063e-19
4.500767785809231100e+03 1.130052799654406970e+00 7.779765167756602803e-19
4.505268553595042249e+03 1.159267673882645067e+00 7.998876724468389348e-19
4.509773822148638828e+03 1.170614775878157543e+00 7.796801355894210743e-19
4.514283595970789065e+03 1.172523096045471336e+00 7.372009286650164553e-19
4.518797879566761367e+03 1.174433324532952350e+00 6.946792425336883248e-19
4.523316677446328868e+03 1.176345463248920531e+00 6.521150347162360497e-19
4.527839994123776705e+03 1.178259514103604966e+00 6.095082626909591157e-19
4.532367834117902021e+03 1.190234258633420250e+00 5.973993119012705037e-19
4.536900201952022144e+03 1.211630617094321405e+00 6.138477624680883099e-19
4.541437102153975502e+03 1.233048371913679553e+00 6.303126614854697844e-19
4.545978539256130716e+03 1.254487544487856265e+00 6.467940254018682468e-19
4.550524517795388419e+03 1.275948156234608888e+00 6.632918706821843625e-19
4.555075042313184895e+03 1.291664136562440168e+00 6.781059559013008959e-19
4.559630117355500261e+03 1.298192001300380483e+00 6.902209048708314031e-19
4.564189747472856652e+03 1.304726393903057113e+00 7.023479687893280122e-19
4.568753937220330954e+03 1.311267320898336974e+00 7.144871597717446083e-19
4.573322691157552981e+03 1.317814788820612426e+00 7.266384899451443613e-19
4.577896013848711846e+03 1.327122305077834685e+00 7.417444380615172410e-19
4.582473909862562323e+03 1.343523728591803801e+00 7.644362898879027945e-19
4.587056383772426670e+03 1.359941553529286917e+00 7.871508335661148337e-19
4.591643440156200086e+03 1.376375796291704701e+00 8.098880917880010536e-19
4.596235083596357981e+03 1.392826473296887357e+00 8.326480872681127813e-19
4.600831318679955984e+03 1.404076839557046430e+00 8.477993301346717790e-19
4.605432149998637215e+03 1.394537268009410802e+00 8.325360156584548150e-19
4.610037582148637739e+03 1.384988156890226252e+00 8.172574378677595522e-19
4.614647619730787483e+03 1.375429496659924311e+00 8.019635814992762919e-19
4.619262267350520233e+03 1.365861277769390147e+00 7.866544312744216513e-19
4.623881529617872729e+03 1.354927286774600059e+00 7.676094623267193502e-19
4.628505411147491941e+03 1.337191731734417299e+00 7.299165354611005506e-19
