# starting wavelength: 2592.624
# ending wavelength: 8559.797
# wav flux eflux
2.594836004151308316e+03 3.874288637408066727e+00 8.833863829925617250e-02
2.597430840155460373e+03 3.842902397732790298e+00 8.760768938564815478e-02
2.600028270995616822e+03 3.766570064377658067e+00 8.708323312855358045e-02
2.602628299266613340e+03 3.726891632427215217e+00 8.533256426077019674e-02
2.605230927565880847e+03 3.654198073841663952e+00 8.385829908675197786e-02
2.607836158493447329e+03 3.632501702603442961e+00 8.002496634336334069e-02
2.610443994651941921e+03 3.621342193226531947e+00 8.155071324350231243e-02
2.613054438646594463e+03 3.647884682587258620e+00 7.158213968581912667e-02
2.615667493085241858e+03 3.656651431061966218e+00 7.180000123946538026e-02
2.618283160578328079e+03 3.673022750037790107e+00 7.310931317223129389e-02
2.620901443738907346e+03 3.631132136146179246e+00 7.172858134820792042e-02
2.623522345182646859e+03 3.591447887818578710e+00 7.148139809628488439e-02
2.626145867527830433e+03 3.524709550869160157e+00 6.889814395089879917e-02
2.628772013395359409e+03 3.471839789355181782e+00 6.933393869701232060e-02
2.631400785408755382e+03 3.420824392344106180e+00 6.718056223879757816e-02
2.634032186194165206e+03 3.366417196080051077e+00 6.617641168120315387e-02
2.636666218380360078e+03 3.319720010377064767e+00 6.435229910207955484e-02
2.639302884598741457e+03 3.266681712058583820e+00 6.341877984405290547e-02
2.641942187483341058e+03 3.213971921039036950e+00 6.163271529066653015e-02
2.644584129670825405e+03 3.154100472742670469e+00 5.681838575969455629e-02
2.647228713800496735e+03 3.083566094326710250e+00 5.441141538669517358e-02
2.649875942514298458e+03 3.006436465988016060e+00 5.430153698372539028e-02
2.652525818456813340e+03 2.965546408630901798e+00 5.286150689791579982e-02
2.655178344275271229e+03 2.913430618233626035e+00 5.150018789924694362e-02
2.657833522619547239e+03 2.880695390967499492e+00 5.126436548052974024e-02
2.660491356142167660e+03 2.864349663658189993e+00 5.436637336480971971e-02
2.663151847498310872e+03 2.862302638442284941e+00 5.598145896029355084e-02
2.665814999345810065e+03 2.856372154840891575e+00 5.472567756122317245e-02
2.668480814345156887e+03 2.814692994807212578e+00 5.637021672480795054e-02
2.671149295159502799e+03 2.804470839270154947e+00 5.646234059620174051e-02
2.673820444454663175e+03 2.843311694270816314e+00 5.619530537938841747e-02
2.676494264899118662e+03 2.850297341658154515e+00 5.667396417829796001e-02
2.679170759164018818e+03 2.862977713917500111e+00 5.491293623760864356e-02
2.681849929923183481e+03 2.887426150085876664e+00 5.491392049019259286e-02
2.684531779853107764e+03 2.923755089110128935e+00 5.338458194760074133e-02
2.687216311632961606e+03 2.985983771231634609e+00 5.419320198453270870e-02
2.689903527944595680e+03 3.030168134260158297e+00 5.250373889798098243e-02
2.692593431472540942e+03 3.062834943492803941e+00 5.234145771372393507e-02
2.695286024904014539e+03 3.110864793747747825e+00 5.162206626660025693e-02
2.697981310928919356e+03 3.173995118343891697e+00 5.056561785402256121e-02
2.700679292239849019e+03 3.220834552745498236e+00 4.947004182981899062e-02
2.703379971532089712e+03 3.301343789734095591e+00 4.731793724701020831e-02
2.706083351503622907e+03 3.379477900392272360e+00 4.832406928508982402e-02
2.708789434855127183e+03 3.464970141126141101e+00 4.624716745518085703e-02
2.711498224289983227e+03 3.521762037217632368e+00 4.587677352392049296e-02
2.714209722514274290e+03 3.568666543852327511e+00 4.373246947031801668e-02
2.716923932236789369e+03 3.634719059992833845e+00 4.165606844246493023e-02
2.719640856169027302e+03 3.685436906947378244e+00 4.152653935805793173e-02
2.722360497025197219e+03 3.733610857325843746e+00 4.274187435426233389e-02
2.725082857522223094e+03 3.782647818423563457e+00 4.381839774425397294e-02
2.727807940379746015e+03 3.816296800324789462e+00 4.568008152061579091e-02
2.730535748320126913e+03 3.882037612377113867e+00 4.485386989373472272e-02
2.733266284068447931e+03 3.933798916701535475e+00 4.540221470816026977e-02
2.735999550352517417e+03 4.001353201785399882e+00 4.573775387855937014e-02
2.738735549902870844e+03 4.046148632835579129e+00 4.527787230226746479e-02
2.741474285452774438e+03 4.077239689798164868e+00 4.601402793256800794e-02
2.744215759738227916e+03 4.104605234125506819e+00 4.959053144203243862e-02
2.746959975497967207e+03 4.163077921316251206e+00 4.985904425176720944e-02
2.749706935473466274e+03 4.211702620975628975e+00 5.080617853634650238e-02
2.752456642408940297e+03 4.281302468819855100e+00 5.047411041958638211e-02
2.755209099051350222e+03 4.391846339649622344e+00 6.078485396402415891e-02
2.757964308150402758e+03 4.464750194910137360e+00 6.210343638971217717e-02
2.760722272458554016e+03 4.526761542365020929e+00 6.228436490356112354e-02
2.763482994731013605e+03 4.652091793917032980e+00 7.152682334552584731e-02
2.766246477725745535e+03 4.697287210618473097e+00 7.415113843969164953e-02
2.769012724203471862e+03 4.706618867004211282e+00 7.160571777458561715e-02
2.771781736927676320e+03 4.698566423798185454e+00 7.104687371494443349e-02
2.774553518664604780e+03 4.644565270174991767e+00 7.437883822249567733e-02
2.777328072183270706e+03 4.563468339866102674e+00 7.941003973650044567e-02
2.780105400255454697e+03 4.480917672666430818e+00 8.241728854374029412e-02
2.782885505655710858e+03 4.361811997956360543e+00 8.608921989522912155e-02
2.785668391161367708e+03 4.290967682543527673e+00 8.654876592031743310e-02
2.788454059552529998e+03 4.211171120542059221e+00 8.584372583223515152e-02
2.791242513612083258e+03 4.143367745317769746e+00 8.432257509854557131e-02
2.794033756125696527e+03 4.089287740550096473e+00 8.508427187302158856e-02
2.796827789881823264e+03 4.051009682051478045e+00 8.194393711954742199e-02
2.799624617671705892e+03 4.021992134505806504e+00 8.130122907129802567e-02
2.802424242289378526e+03 4.039975465963641099e+00 8.368041596531777815e-02
2.805226666531668798e+03 4.087633088979283791e+00 8.641532220178908819e-02
2.808031893198201487e+03 4.125406373021660578e+00 8.724906292575196343e-02
2.810839925091400346e+03 4.177670912635186085e+00 8.793846846789926675e-02
2.813650765016492642e+03 4.253112928852583963e+00 8.920019029212263029e-02
2.816464415781510070e+03 4.375592987076112550e+00 8.139438682089852883e-02
2.819280880197292845e+03 4.444434976296191664e+00 7.659318778000312467e-02
2.822100161077491066e+03 4.539356698740636631e+00 6.847021075425634151e-02
2.824922261238569263e+03 4.589083365030781181e+00 6.763951388389941033e-02
2.827747183499808671e+03 4.609508988844925881e+00 6.858951345164179814e-02
2.830574930683309503e+03 4.585006185991008287e+00 6.672079245383896740e-02
2.833405505613993682e+03 4.543422703885609870e+00 6.647863611445146981e-02
2.836238911119608929e+03 4.460158780720230531e+00 5.086238243266213294e-02
2.839075150030729219e+03 4.413860177660541062e+00 4.879837680177581682e-02
2.841914225180761150e+03 4.383000261579898194e+00 4.989671367591429207e-02
2.844756139405942577e+03 4.321592274942994472e+00 4.357695377104660317e-02
2.847600895545349431e+03 4.322919682552382348e+00 3.343271161638134564e-02
2.850448496440895724e+03 4.308518024435029403e+00 3.303004984264186483e-02
2.853298944937337637e+03 4.300908992477673110e+00 3.528511197423984252e-02
2.856152243882275798e+03 4.283574028797484168e+00 3.540708977489909898e-02
2.859008396126159369e+03 4.272944327083496141e+00 3.603815767537475734e-02
2.861867404522286051e+03 4.276849084012765090e+00 3.614888332342908878e-02
2.864729271926809361e+03 4.274667769180956256e+00 3.682954796948662013e-02
2.867594001198737260e+03 4.282555966007785209e+00 3.709115897327541073e-02
2.870461595199936710e+03 4.284628077898725351e+00 3.358120130700174844e-02
2.873332056795137760e+03 4.292281508896299336e+00 3.101971444204829759e-02
2.876205388851934003e+03 4.284479261312206688e+00 3.162845817147567906e-02
2.879081594240786671e+03 4.252496600364179535e+00 3.259180384784093887e-02
2.881960675835028724e+03 4.264885841328906579e+00 3.382044671709314582e-02
2.884842636510864395e+03 4.263059681404877566e+00 3.380657681728276714e-02
2.887727479147376471e+03 4.278766828137176681e+00 3.490630096775627217e-02
2.890615206626524468e+03 4.281027744694622328e+00 3.461609980083454885e-02
2.893505821833151913e+03 4.283996932749198905e+00 3.394507832510779838e-02
2.896399327654986337e+03 4.296461760297303201e+00 3.413184126200813351e-02
2.899295726982642009e+03 4.289829665015392202e+00 3.499499525844203263e-02
2.902195022709625846e+03 4.277441055655192947e+00 3.540832617531111670e-02
2.905097217732336503e+03 4.274891819135954840e+00 3.560348361716592774e-02
2.908002314950069831e+03 4.280925544854329523e+00 3.445547306263604947e-02
2.910910317265020694e+03 4.289419683730217869e+00 3.533752175282196123e-02
2.913821227582286610e+03 4.292061358641636737e+00 3.537865232602167148e-02
2.916735048809870023e+03 4.288272977391391017e+00 3.494786542794945522e-02
2.919651783858680574e+03 4.281297948339208403e+00 3.556883208674747887e-02
2.922571435642540564e+03 4.275288071764340003e+00 3.436089030935068900e-02
2.925494007078184040e+03 4.247070315915548733e+00 3.528171727581927430e-02
2.928419501085263164e+03 4.219303695211134020e+00 3.508162775934608318e-02
2.931347920586349119e+03 4.192112825314001867e+00 3.466687391181884348e-02
2.934279268506936660e+03 4.172344465013525294e+00 3.458926320895645140e-02
2.937213547775444567e+03 4.149528185857674245e+00 3.305590831078606545e-02
2.940150761323221104e+03 4.132406860020337191e+00 3.296476133271544068e-02
2.943090912084544925e+03 4.120662521201126083e+00 3.371326017004549341e-02
2.946034002996630534e+03 4.129244195966586872e+00 3.441734405417092024e-02
2.948980036999628283e+03 4.123206322131499846e+00 3.387061494020887631e-02
2.951929017036628920e+03 4.119046414019708280e+00 3.453589521057659484e-02
2.954880946053666321e+03 4.104332976552517387e+00 3.308046368379230495e-02
2.957835826999721121e+03 4.101357619637012952e+00 3.054182512257694326e-02
2.960793662826721629e+03 4.106382857887959759e+00 2.991987553208438552e-02
2.963754456489549284e+03 4.104767062706062397e+00 3.199346787489452948e-02
2.966718210946040017e+03 4.112077294379621328e+00 2.799793932497701698e-02
2.969684929156986982e+03 4.114235904963001289e+00 2.837450159416938719e-02
2.972654614086145102e+03 4.103772546850096958e+00 2.743993324012986706e-02
2.975627268700231980e+03 4.070160671425590238e+00 2.767512047223524840e-02
2.978602895968933353e+03 4.028648639629570205e+00 2.576655627834777834e-02
2.981581498864903097e+03 3.998274768544577640e+00 2.523154560230435328e-02
2.984563080363769132e+03 3.963345247646874903e+00 2.462386770140529216e-02
2.987547643444133882e+03 3.932153521642118399e+00 2.532645225023532135e-02
2.990535191087578823e+03 3.914950012362279796e+00 2.518890198083966955e-02
2.993525726278667662e+03 3.884583706784537682e+00 2.442443703390990636e-02
2.996519252004947248e+03 3.878603020822946945e+00 2.675848696764322743e-02
2.999515771256953030e+03 3.854879577753900222e+00 2.680185251578355576e-02
3.002515287028211333e+03 3.846500839507291492e+00 2.605683804895797193e-02
3.005517802315240260e+03 3.826811454920671096e+00 2.586092502371981766e-02
3.008523320117556523e+03 3.798720802039384559e+00 2.628583982876154038e-02
3.011531843437674979e+03 3.782084372905166081e+00 2.557844321241358951e-02
3.014543375281113640e+03 3.739146566036412267e+00 2.544737926223448674e-02
3.017557918656395941e+03 3.710375411764371911e+00 2.520026522802362723e-02
3.020575476575053472e+03 3.669203105027987188e+00 2.431119152994791824e-02
3.023596052051629158e+03 3.637625717029576489e+00 2.455382125161406637e-02
3.026619648103681811e+03 3.608435475498563250e+00 2.405411829367232537e-02
3.029646267751786581e+03 3.568112259838184919e+00 2.398325528920376010e-02
3.032675914019539505e+03 3.539739305300444450e+00 2.349555978617891630e-02
3.035708589933559779e+03 3.534817619933023902e+00 2.220971604693863788e-02
3.038744298523494763e+03 3.526735719335075903e+00 2.200846022627082205e-02
3.041783042822019070e+03 3.527434617609156664e+00 2.129045029425437330e-02
3.044824825864842296e+03 3.516446549630761975e+00 2.094607583673209830e-02
3.047869650690708113e+03 3.507396063653770213e+00 2.070474693810939529e-02
3.050917520341399722e+03 3.512009929212859483e+00 2.072927931778715052e-02
3.053968437861742132e+03 3.498032744441614827e+00 2.366305212668696339e-02
3.057022406299604881e+03 3.487689889247195474e+00 2.361857512392636846e-02
3.060079428705905229e+03 3.471914099077334281e+00 2.386446823732333439e-02
3.063139508134612242e+03 3.449992179862536368e+00 2.323626183468332010e-02
3.066202647642748161e+03 3.430533356167445813e+00 2.337385878054299565e-02
3.069268850290391583e+03 3.398356384081994808e+00 2.311917190593378718e-02
3.072338119140682920e+03 3.378643450816009697e+00 2.395936553118024892e-02
3.075410457259824852e+03 3.364259930032152290e+00 2.302040467470251039e-02
3.078485867717085512e+03 3.355344509201058312e+00 2.291809615402691166e-02
3.081564353584803939e+03 3.340682172559986896e+00 2.221041580949048577e-02
3.084645917938389630e+03 3.343064902467082433e+00 2.372575255482584772e-02
3.087730563856328899e+03 3.345921711487903405e+00 2.430963673141843875e-02
3.090818294420186248e+03 3.360053598865078150e+00 2.478279507555707431e-02
3.093909112714607545e+03 3.363427513482090347e+00 2.321428383376071547e-02
3.097003021827323209e+03 3.352274061193843302e+00 2.259006523783895631e-02
3.100100024849151396e+03 3.355314183909896109e+00 2.345856401566194516e-02
3.103200124874001631e+03 3.342886741460906475e+00 2.506645878823310011e-02
3.106303324998876633e+03 3.333641115022777601e+00 2.558254352520580518e-02
3.109409628323876859e+03 3.325645859952292227e+00 2.552583320280409074e-02
3.112519037952201415e+03 3.314614032708288249e+00 2.505699653987578449e-02
3.115631556990154877e+03 3.302588430539217690e+00 2.515609835983324133e-02
3.118747188547145925e+03 3.298240072382814247e+00 2.537420438963136626e-02
3.121865935735694165e+03 3.306843005692785109e+00 2.286522280032112983e-02
3.124987801671431043e+03 3.304255547265857906e+00 2.262796519102576454e-02
3.128112789473103476e+03 3.303754574627650875e+00 2.280243523297080521e-02
3.131240902262577492e+03 3.297352057618674781e+00 2.450864217368025136e-02
3.134372143164840963e+03 3.292714986451552583e+00 2.326953862278189483e-02
3.137506515308006783e+03 3.306036242414404747e+00 2.365137454997159189e-02
3.140644021823316052e+03 3.308928357743416093e+00 2.424647471338908095e-02
3.143784665845140353e+03 3.285810138151338045e+00 2.482801733522541771e-02
3.146928450510986750e+03 3.279402125191819728e+00 2.534845984218853446e-02
3.150075378961498700e+03 3.270092427650620692e+00 2.330639237160191113e-02
3.153225454340461056e+03 3.261376408738951849e+00 2.325027585265458663e-02
3.156378679794802792e+03 3.258636380669563071e+00 2.329748067231794673e-02
3.159535058474598372e+03 3.245156237817937495e+00 2.341780970994573538e-02
3.162694593533074112e+03 3.258564020732007016e+00 2.361145182439699022e-02
3.165857288126608182e+03 3.240857471509644760e+00 2.247939674501145402e-02
3.169023145414736064e+03 3.237289815893750866e+00 2.211136134464291789e-02
3.172192168560151458e+03 3.240654270065613574e+00 2.205116115337373353e-02
3.175364360728712654e+03 3.248103542371666652e+00 2.302339978021322384e-02
3.178539725089442527e+03 3.253111779250410063e+00 2.258541035022689630e-02
3.181718264814533086e+03 3.251443695963541991e+00 2.357059222019897496e-02
3.184899983079348658e+03 3.254946283007514207e+00 2.354197745489799293e-02
3.188084883062429071e+03 3.257882137663746569e+00 2.216109504693122151e-02
3.191272967945492383e+03 3.262319685478479059e+00 2.254854945025645124e-02
3.194464240913438971e+03 3.268151395052343311e+00 2.246512493287846496e-02
3.197658705154353811e+03 3.275227290873575114e+00 2.183964015729136787e-02
3.200856363859509202e+03 3.283818937832550855e+00 2.249833663134522682e-02
3.204057220223369768e+03 3.284624091030399207e+00 2.078712177264719838e-02
3.207261277443593826e+03 3.293562238581109192e+00 2.128392983742003267e-02
3.210468538721038840e+03 3.318848907697044215e+00 2.224888158372191269e-02
3.213679007259760965e+03 3.326450272654740026e+00 2.199050909127969744e-02
3.216892686267021418e+03 3.337793209676972239e+00 2.179760057817228466e-02
3.220109578953289656e+03 3.333742438041583434e+00 2.153893195310881137e-02
3.223329688532243836e+03 3.343333030390103655e+00 2.088921521825229388e-02
3.226553018220777176e+03 3.329200479284080139e+00 2.079193496377537351e-02
3.229779571238999324e+03 3.320842564523248441e+00 2.100046834407577959e-02
3.233009350810239084e+03 3.313082297037047041e+00 2.057617377283474727e-02
3.236242360161050783e+03 3.294124981187816381e+00 2.173007703296068668e-02
3.239478602521212906e+03 3.285589858680409758e+00 2.260215686785858186e-02
3.242718081123734919e+03 3.273861256298473243e+00 2.150419541262093767e-02
3.245960799204859995e+03 3.259432103244761514e+00 2.144947177322901674e-02
3.249206760004065927e+03 3.242504235207889440e+00 2.214399639720024057e-02
3.252455966764071036e+03 3.227909039834167881e+00 2.242009791003118924e-02
3.255708422730835991e+03 3.220823060595493281e+00 2.179433212228032435e-02
3.258964131153567905e+03 3.215715810981666145e+00 2.049681421593686770e-02
3.262223095284722604e+03 3.210347748704140969e+00 2.035390052811601735e-02
3.265485318380008266e+03 3.195086412874120541e+00 2.007343144110470406e-02
3.268750803698389518e+03 3.180727583637165790e+00 2.083512550856357962e-02
3.272019554502088795e+03 3.188265196930292422e+00 2.106212487270188796e-02
3.275291574056592253e+03 3.187867795719454556e+00 2.061635849819661720e-02
3.278566865630649772e+03 3.193752957100534307e+00 2.200003052219452401e-02
3.281845432496281319e+03 3.184759602724837713e+00 2.221211485631691476e-02
3.285127277928778767e+03 3.186135267339310406e+00 2.290074684070534175e-02
3.288412405206708627e+03 3.196601488859541096e+00 2.367078543200258275e-02
3.291700817611916591e+03 3.186507180429995145e+00 2.298793126401491721e-02
3.294992518429529355e+03 3.174384962651069841e+00 2.313099954233127642e-02
3.298287510947960072e+03 3.145590191366511412e+00 2.162187740422082116e-02
3.301585798458909267e+03 3.121274860327519107e+00 2.106749795493911837e-02
3.304887384257369376e+03 3.100039130489342654e+00 2.013450203109542688e-02
3.308192271641627485e+03 3.074346424489083240e+00 2.213693977437029836e-02
3.311500463913270323e+03 3.040560570772830928e+00 2.197401974133147973e-02
3.314811964377184722e+03 3.011300341610312792e+00 2.146373379101941883e-02
3.318126776341563072e+03 2.988183583808483590e+00 2.137943278719395268e-02
3.321444903117905596e+03 2.975856107999443889e+00 2.232217512343012689e-02
3.324766348021024896e+03 2.965819760358437307e+00 2.217012440780547280e-02
3.328091114369046863e+03 2.954419286855847204e+00 2.276641561287922819e-02
3.331419205483417045e+03 2.954090355962839531e+00 2.198751063937491243e-02
3.334750624688901553e+03 2.967959481014977197e+00 2.056152847801896028e-02
3.338085375313591612e+03 2.978370395819180061e+00 2.033015458815719961e-02
3.341423460688906289e+03 3.002798762748233319e+00 1.988961121117787181e-02
3.344764884149596128e+03 2.994302149826588710e+00 1.973250025775293709e-02
3.348109649033746791e+03 2.984590645509843654e+00 1.959322086495089363e-02
3.351457758682781787e+03 2.990013888859061275e+00 1.914490822349470406e-02
3.354809216441465651e+03 2.981375899707902732e+00 1.841514133588832008e-02
3.358164025657908041e+03 2.969943967255562534e+00 1.835094531059580647e-02
3.361522189683567376e+03 2.957043366820174324e+00 1.790261893798799839e-02
3.364883711873251741e+03 2.937585560783008809e+00 1.816087312949084612e-02
3.368248595585126168e+03 2.921595505380567559e+00 1.794880379858995387e-02
3.371616844180712633e+03 2.913806546936013042e+00 1.740286288092406444e-02
3.374988461024894150e+03 2.904634627642046940e+00 1.539695883205330525e-02
3.378363449485920228e+03 2.900512646639722636e+00 1.519188173017345725e-02
