# starting wavelength: 3432.620
# ending wavelength: 7626.654
# wav flux eflux
3.432824566338588284e+03 2.726498550489896644e+00 5.599458372228167252e-02
3.436257390904928343e+03 2.675433171136756716e+00 4.934259936082153325e-02
3.439693648295834464e+03 2.622995345180928695e+00 4.299270930950618852e-02
3.443133341944131189e+03 2.578025619186258943e+00 3.818821832365582730e-02
3.446576475286076402e+03 2.541633313108895731e+00 3.455928592962129176e-02
3.450023051761363604e+03 2.510974319063257187e+00 3.302538214031742331e-02
3.453473074813126004e+03 2.499274343573129720e+00 3.292160056707942734e-02
3.456926547887940615e+03 2.488579440200810566e+00 3.147776428710227781e-02
3.460383474435829612e+03 2.475242974565406318e+00 3.005145730609929539e-02
3.463843857910266706e+03 2.471006261155435535e+00 2.903794202178118858e-02
3.467307701768178049e+03 2.461689785317280776e+00 2.817719082042778253e-02
3.470775009469947236e+03 2.465347867082246403e+00 2.780702868780265610e-02
3.474245784479418489e+03 2.456053132727198829e+00 2.723733532087812409e-02
3.477720030263898934e+03 2.455284276900343787e+00 2.753188729697740589e-02
3.481197750294164052e+03 2.465029274303097040e+00 2.642185773363164153e-02
3.484678948044459503e+03 2.475860966360968529e+00 2.384721173823146217e-02
3.488163626992504760e+03 2.481845141588102877e+00 2.333743486939992076e-02
3.491651790619498570e+03 2.497114255870835464e+00 2.222339349432219877e-02
3.495143442410119405e+03 2.498357113801719098e+00 2.118858174287209864e-02
3.498638585852530468e+03 2.508932142316623537e+00 1.952846340005366318e-02
3.502137224438384237e+03 2.514849872539611120e+00 1.854234032774945001e-02
3.505639361662823831e+03 2.519272267074855520e+00 1.883967669630883315e-02
3.509145001024487556e+03 2.517496218813221276e+00 1.827060924199182257e-02
3.512654146025513455e+03 2.509256290077360951e+00 1.815837577606300643e-02
3.516166800171540217e+03 2.507142593249523710e+00 1.786680178658751547e-02
3.519682966971712631e+03 2.498588526653541475e+00 1.808298352481386984e-02
3.523202649938685681e+03 2.497027382902619941e+00 1.787809967328422844e-02
3.526725852588625457e+03 2.492344795069436625e+00 1.714467388960786917e-02
3.530252578441215064e+03 2.484611683328303844e+00 1.734584699466033483e-02
3.533782831019657806e+03 2.478900031926630554e+00 1.677717917276133966e-02
3.537316613850678550e+03 2.480369343770652435e+00 1.649090586158797125e-02
3.540853930464530094e+03 2.481201504100481792e+00 1.634394431283087146e-02
3.544394784394995895e+03 2.480300348320099157e+00 1.613167977115740129e-02
3.547939179179392340e+03 2.479083485971773637e+00 1.488993779752598515e-02
3.551487118358572843e+03 2.481105612664833426e+00 1.495850813889446941e-02
3.555038605476932389e+03 2.476056005247030622e+00 1.407348767902663611e-02
3.558593644082410719e+03 2.476828746177733631e+00 1.405273136548114074e-02
3.562152237726494150e+03 2.479094118029527394e+00 1.428260523130519578e-02
3.565714389964221937e+03 2.476645958670688596e+00 1.422283753908397744e-02
3.569280104354187188e+03 2.481575932657763772e+00 1.339403751492987925e-02
3.572849384458542772e+03 2.483223719239870952e+00 1.323764545408875545e-02
3.576422233843002232e+03 2.480264145043867163e+00 1.340959467915472589e-02
3.579998656076846601e+03 2.485144273069303189e+00 1.348365485079583252e-02
3.583578654732924406e+03 2.477466702766915940e+00 1.406528490156312185e-02
3.587162233387658489e+03 2.479726744027340057e+00 1.406535991533979651e-02
3.590749395621047370e+03 2.469788387973191668e+00 1.286965822369191999e-02
3.594340145016669794e+03 2.465690562401029240e+00 1.269332589780663989e-02
3.597934485161687462e+03 2.459956262482510425e+00 1.236647268910247462e-02
3.601532419646850485e+03 2.452607984310993583e+00 1.214555041472663993e-02
3.605133952066498296e+03 2.447829081869199896e+00 1.254849120747573120e-02
3.608739086018566013e+03 2.439889059757123224e+00 1.210397376529720979e-02
3.612347825104585809e+03 2.438272085413565993e+00 1.207257798654539672e-02
3.615960172929691907e+03 2.438512003489225588e+00 1.298246456099601265e-02
3.619576133102622407e+03 2.428152511222909649e+00 1.288916813863321895e-02
3.623195709235726554e+03 2.416727989628274287e+00 1.288424903133590302e-02
3.626818904944963379e+03 2.405358378390580754e+00 1.273507851782029049e-02
3.630445723849909427e+03 2.392320408191027870e+00 1.285706475627915353e-02
3.634076169573760581e+03 2.375670353905456000e+00 1.366748095225430934e-02
3.637710245743335690e+03 2.360802225932875587e+00 1.219087846079284533e-02
3.641347955989080219e+03 2.352015390372699244e+00 1.242745338612138463e-02
3.644989303945070333e+03 2.339897611046086290e+00 1.285065102742876351e-02
3.648634293249016537e+03 2.329881119598228079e+00 1.324773960114780137e-02
3.652282927542266862e+03 2.321371341056247761e+00 1.273408702897106150e-02
3.655935210469810499e+03 2.306823419576996770e+00 1.307220871494183499e-02
3.659591145680281443e+03 2.297184980670818444e+00 1.313108876557964565e-02
3.663250736825963031e+03 2.289086023299618411e+00 1.290886456054795260e-02
3.666913987562790226e+03 2.277608246254070767e+00 1.297060901705670774e-02
3.670580901550354156e+03 2.265744940444348376e+00 1.258508891220753816e-02
3.674251482451905758e+03 2.256384387240817802e+00 1.238310258528087238e-02
3.677925733934358959e+03 2.247543726563583366e+00 1.226809583787181329e-02
3.681603659668294313e+03 2.245290779828643224e+00 1.211233978443011262e-02
3.685285263327964003e+03 2.236867189596251304e+00 1.194975210627451621e-02
3.688970548591293209e+03 2.223322471787401167e+00 1.155854804209190990e-02
3.692659519139885560e+03 2.209869344931146173e+00 1.142239460946931420e-02
3.696352178659026777e+03 2.194088269181891704e+00 1.178416723147836763e-02
3.700048530837686940e+03 2.185175435554915335e+00 1.238418966736988362e-02
3.703748579368525952e+03 2.172799374009220852e+00 1.230639972963047668e-02
3.707452327947895355e+03 2.162847283312043789e+00 1.206426612287756286e-02
3.711159780275844696e+03 2.156320177511219516e+00 1.151026155582706920e-02
3.714870940056121526e+03 2.148896818974675771e+00 1.135042625680381459e-02
3.718585810996179134e+03 2.145301804316105621e+00 1.203932887865435952e-02
3.722304396807176545e+03 2.134335965559902348e+00 1.272061364351050397e-02
3.726026701203984885e+03 2.124237498425755710e+00 1.185915564349266857e-02
3.729752727905190113e+03 2.116585393059584597e+00 1.183158444577171557e-02
3.733482480633096657e+03 2.110057296703891527e+00 1.226618042752201758e-02
3.737215963113731050e+03 2.108733279073351508e+00 1.183121011482853036e-02
3.740953179076846027e+03 2.103504413709666121e+00 1.186930900589094895e-02
3.744694132255923705e+03 2.091579380506274788e+00 1.219479702996557891e-02
3.748438826388181042e+03 2.088471441995455535e+00 1.157763921659527885e-02
3.752187265214570289e+03 2.080320873100934165e+00 1.152682912413735723e-02
3.755939452479786269e+03 2.067219577357059190e+00 1.142214810663316760e-02
3.759695391932267285e+03 2.056048821436727181e+00 1.165772330694409692e-02
3.763455087324201031e+03 2.047143439061351877e+00 1.095775364857230240e-02
3.767218542411526414e+03 2.042335399826771702e+00 1.093260623031019028e-02
3.770985760953939007e+03 2.044643452507692416e+00 1.086164942229755556e-02
3.774756746714894234e+03 2.051117594390808208e+00 1.399362167566787357e-02
3.778531503461610555e+03 2.048476725961327016e+00 1.476056531747944878e-02
3.782310034965073100e+03 2.053316692331756510e+00 1.286268061012055437e-02
3.786092345000039586e+03 2.050571892422126119e+00 1.293398124364355563e-02
3.789878437345040766e+03 2.048773179684358237e+00 1.356208200480193450e-02
3.793668315782387253e+03 2.046178615456239136e+00 1.349447276367054215e-02
3.797461984098170888e+03 2.046667224460342993e+00 1.341850791632089208e-02
3.801259446082270188e+03 2.040646423643488028e+00 1.365809714202630143e-02
3.805060705528353537e+03 2.030695081507920108e+00 1.263111462510197944e-02
3.808865766233883278e+03 2.017523443344779288e+00 1.369707467991151256e-02
3.812674632000118436e+03 2.013416848430057637e+00 1.479457479818967018e-02
3.816487306632119726e+03 1.999688321412002701e+00 1.614914057220229182e-02
3.820303793938753188e+03 1.986918636057515952e+00 1.625040980765505433e-02
3.824124097732693372e+03 1.987192781159649480e+00 1.601302812250700661e-02
3.827948221830427428e+03 1.992513440804090097e+00 1.596344040495302485e-02
3.831776170052258749e+03 2.000039152592935743e+00 1.593064854715185372e-02
3.835607946222312421e+03 2.010102247391264640e+00 1.619718715150037652e-02
3.839443554168536139e+03 2.022906992945581628e+00 1.701980606230277943e-02
3.843282997722705659e+03 2.030552454172294574e+00 1.729964595043742212e-02
3.847126280720429804e+03 2.039500500620621715e+00 1.661552110145982086e-02
3.850973407001151372e+03 2.042971233255993280e+00 1.466276882441349370e-02
3.854824380408153957e+03 2.032977663940045421e+00 1.433484098738615348e-02
3.858679204788563311e+03 2.024200015034383959e+00 1.447077193497561809e-02
3.862537883993353262e+03 2.009590900894782539e+00 1.393062914885048569e-02
3.866400421877347981e+03 1.997394226925723215e+00 1.341714789222688692e-02
3.870266822299226533e+03 1.988789762303415865e+00 1.375445732614532894e-02
3.874137089121526969e+03 1.973141341255006287e+00 1.305023451954909729e-02
3.878011226210649966e+03 1.967771844027199624e+00 1.253661547123433202e-02
3.881889237436861549e+03 1.960905751639874683e+00 1.220362976779782414e-02
3.885771126674299921e+03 1.968639458084038285e+00 7.904351004690880061e-03
3.889656897800975457e+03 1.968601700081455963e+00 7.632493991995459477e-03
3.893546554698777527e+03 1.969329572186441446e+00 7.624475563675886698e-03
3.897440101253477678e+03 1.974796946989730184e+00 8.202172531372927192e-03
3.901337541354732366e+03 1.973679427717495827e+00 9.140196633707315527e-03
3.905238878896088409e+03 1.978382407557230493e+00 9.374402597049481464e-03
3.909144117774985716e+03 1.982086378167154272e+00 9.351571987066783706e-03
3.913053261892762293e+03 1.988645245222093960e+00 9.109201632057181697e-03
3.916966315154656058e+03 1.995666982697989145e+00 9.068026091667612601e-03
3.920883281469812118e+03 2.000188717820684303e+00 8.535019391774126621e-03
3.924804164751283224e+03 1.992617994295096118e+00 8.367390891865323505e-03
3.928728968916035683e+03 1.986776196118138937e+00 8.827403413214052544e-03
3.932657697884953450e+03 1.982992069650912015e+00 8.756119241974813158e-03
3.936590355582839493e+03 1.983573544079908935e+00 1.020169638701678635e-02
3.940526945938423523e+03 1.977619807752510228e+00 1.039331112511739617e-02
3.944467472884363360e+03 1.977176846257170384e+00 1.012581833216288918e-02
3.948411940357249023e+03 1.974995985097313334e+00 1.042511985149609938e-02
3.952360352297607733e+03 1.968159968957356565e+00 1.069518797453111562e-02
3.956312712649906643e+03 1.961904613757980531e+00 1.099024445043941464e-02
3.960269025362557841e+03 1.961092537398574809e+00 1.093897051285372575e-02
3.964229294387921527e+03 1.960444075911401463e+00 1.090117860331690260e-02
3.968193523682310570e+03 1.959733047496702074e+00 1.096009288351541475e-02
3.972161717205994591e+03 1.965492339450438886e+00 1.095414672802098172e-02
3.976133878923201792e+03 1.966012284706569302e+00 9.627027577333873223e-03
3.980110012802126221e+03 1.968269730791778471e+00 9.485386330544409716e-03
3.984090122814929600e+03 1.971868109126356128e+00 9.810675139225646241e-03
3.988074212937745870e+03 1.974727443583669695e+00 9.768528109557028660e-03
3.992062287150684824e+03 1.977048258497481781e+00 9.513629874408782369e-03
3.996054349437837118e+03 1.980157054096817859e+00 9.317852988204427742e-03
4.000050403787276082e+03 1.983502863392368587e+00 9.424905946941140866e-03
4.004050454191064546e+03 1.973522527351045053e+00 9.732927194961493722e-03
4.008054504645257111e+03 1.972098207809710457e+00 9.739385639401592146e-03
4.012062559149903791e+03 1.974908347717837298e+00 9.726802253266225370e-03
4.016074621709055009e+03 1.967752550524961563e+00 8.816761446394903029e-03
4.020090696330765240e+03 1.967477525547862038e+00 8.690746040126682420e-03
4.024110787027097558e+03 1.971549387547332666e+00 7.958526421701543965e-03
4.028134897814125907e+03 1.974460162116360218e+00 7.883764919950738553e-03
4.032163032711941469e+03 1.976855761460163396e+00 7.895457457502315368e-03
4.036195195744654484e+03 1.984413861262587453e+00 9.271504387202554598e-03
4.040231390940400615e+03 1.981795667035781694e+00 9.432506021465447699e-03
4.044271622331342314e+03 1.977289296713571565e+00 9.509669521716473950e-03
4.048315893953675186e+03 1.972708727682338070e+00 9.877337756987479567e-03
4.052364209847629809e+03 1.969944703427944033e+00 9.945228084799001556e-03
4.056416574057479011e+03 1.959303342572272122e+00 1.045027467150781188e-02
4.060472990631537868e+03 1.955706334297297344e+00 1.036310171332353348e-02
4.064533463622170530e+03 1.946235228583925725e+00 9.756476886577547525e-03
4.068597997085794304e+03 1.941435388913238969e+00 9.976788420945672739e-03
4.072666595082881486e+03 1.936028831722285348e+00 9.947818346951704110e-03
4.076739261677965715e+03 1.932407992141378372e+00 9.599822317231989852e-03
4.080816000939644709e+03 1.926224088304014037e+00 9.486177373029161530e-03
4.084896816940585722e+03 1.922770149553545416e+00 8.675278857065430588e-03
4.088981713757527814e+03 1.920070322759068304e+00 8.084896018707037058e-03
4.093070695471286854e+03 1.912222077389131636e+00 8.560015150634918413e-03
4.097163766166759160e+03 1.905776149948402498e+00 8.189963436880987740e-03
4.101260929932927866e+03 1.901011442694042763e+00 8.300971103803799628e-03
4.105362190862862008e+03 1.894649706618825480e+00 8.674856893192479934e-03
4.109467553053726078e+03 1.892482671001140648e+00 8.741646103824652486e-03
4.113577020606780934e+03 1.895720556630633435e+00 7.587633438872655976e-03
4.117690597627389252e+03 1.892366886178392660e+00 7.430017360351271090e-03
4.121808288225018259e+03 1.890622801564626698e+00 7.384130323158251928e-03
4.125930096513244280e+03 1.887412601092471442e+00 7.469893414286054266e-03
4.130056026609759101e+03 1.884335212218420486e+00 6.716402426692645415e-03
4.134186082636369974e+03 1.875089009148278363e+00 6.674564727030122754e-03
4.138320268719007800e+03 1.865747902960827265e+00 6.946692698300563178e-03
4.142458588987728035e+03 1.854804481979920094e+00 6.127070181809864124e-03
4.146601047576717065e+03 1.844157634459621109e+00 6.435727860146000026e-03
4.150747648624294925e+03 1.835337119667343142e+00 6.245550272629677400e-03
4.154898396272920763e+03 1.828568837718189233e+00 6.469374981260316015e-03
4.159053294669195566e+03 1.824717097301308488e+00 7.263911080884710887e-03
4.163212347963865795e+03 1.814799525380055512e+00 7.245145238453530936e-03
4.167375560311830668e+03 1.798519256340639805e+00 8.070803226902487776e-03
4.171542935872143971e+03 1.787729906261648294e+00 7.877912474119680084e-03
4.175714478808017702e+03 1.779096730528879178e+00 7.793062656225971906e-03
4.179890193286827525e+03 1.772749858828705838e+00 7.345814252066994003e-03
4.184070083480115500e+03 1.762810821276991735e+00 7.344550578427949672e-03
4.188254153563597356e+03 1.755570330746578200e+00 7.526653129940252471e-03
4.192442407717161586e+03 1.744353181345586812e+00 8.168869276671460525e-03
4.196634850124880359e+03 1.734752011664551841e+00 8.269301522676530264e-03
4.200831484975006788e+03 1.733183250089378236e+00 8.189460033357402746e-03
4.205032316459983122e+03 1.733159776423956577e+00 8.595678059123973772e-03
4.209237348776444378e+03 1.728141951816850153e+00 8.633559025633409309e-03
4.213446586125221984e+03 1.725205035847824586e+00 8.526966568590555254e-03
4.217660032711349231e+03 1.721794835435253912e+00 8.373254438962425550e-03
4.221877692744061278e+03 1.713179709339726298e+00 8.926659204830289865e-03
4.226099570436806971e+03 1.704131589873428165e+00 8.313699909520086764e-03
4.230325670007245208e+03 1.703377016716659309e+00 8.271696512995757242e-03
4.234555995677254032e+03 1.703881742376455399e+00 8.617790658444715590e-03
4.238790551672932452e+03 1.704235308229827384e+00 7.769753767034800161e-03
4.243029342224606808e+03 1.702069883138539019e+00 7.794931679147420328e-03
4.247272371566832589e+03 1.696190458402822454e+00 7.615080006056633259e-03
4.251519643938400804e+03 1.693078823410680833e+00 7.540983075524125383e-03
4.255771163582340705e+03 1.692020967754797045e+00 7.570919241983027972e-03
4.260026934745924336e+03 1.691014837884899702e+00 7.605854204073481638e-03
4.264286961680671993e+03 1.690963443780402642e+00 6.732291980961539919e-03
4.268551248642354039e+03 1.685085345761309972e+00 7.220321031322514058e-03
4.272819799890998183e+03 1.675184883353358023e+00 6.142311075673858797e-03
4.277092619690890388e+03 1.667694068723824419e+00 5.910654097380273544e-03
4.281369712310583054e+03 1.657081858202185787e+00 7.232718111206010506e-03
4.285651082022895025e+03 1.655337470644053122e+00 7.616830008268135090e-03
4.289936733104918858e+03 1.654289161651090190e+00 7.863646349390228732e-03
4.294226669838025373e+03 1.655134850835573879e+00 7.843073785327496494e-03
4.298520896507864563e+03 1.654965446609987900e+00 8.126261651448949547e-03
4.302819417404373780e+03 1.650151140902406999e+00 8.086988920966538957e-03
4.307122236821779552e+03 1.644764191492707583e+00 7.775518246201546489e-03
4.311429359058603040e+03 1.641957953639194390e+00 7.886182762272559571e-03
4.315740788417662770e+03 1.643323931349750078e+00 8.102033096006957397e-03
4.320056529206081905e+03 1.640918253445568187e+00 7.999488426699147281e-03
4.324376585735290064e+03 1.639315069127341706e+00 7.982606437296629193e-03
4.328700962321026054e+03 1.634271873566685240e+00 7.701282342486995627e-03
4.333029663283348782e+03 1.634508283581243449e+00 7.741563740771224660e-03
4.337362692946633615e+03 1.631979652284799132e+00 7.778185555118857092e-03
4.341700055639581478e+03 1.628521721453722870e+00 8.186136717727941423e-03
4.346041755695222491e+03 1.626233135462827883e+00 8.235538357220961725e-03
4.350387797450919606e+03 1.625294521069673870e+00 8.299989374060083927e-03
4.354738185248371337e+03 1.624815339555697458e+00 8.090930215419492658e-03
4.359092923433621763e+03 1.622368817187766821e+00 7.792523843495293562e-03
4.363452016357056891e+03 1.618184354050222540e+00 7.311262955663890700e-03
4.367815468373414660e+03 1.610004245740818574e+00 5.232459607938754094e-03
4.372183283841789489e+03 1.609560092678447019e+00 5.491663959781911859e-03
4.376555467125633186e+03 1.610519778457716322e+00 5.800669100931491948e-03
4.380932022592760404e+03 1.611144761548381821e+00 5.433836021887419009e-03
4.385312954615354101e+03 1.608550687289816539e+00 5.811853749213172042e-03
4.389698267569970994e+03 1.611029687123505916e+00 6.623646962087178548e-03
4.394087965837542470e+03 1.607057749209702457e+00 6.647831201620634997e-03
4.398482053803381859e+03 1.604088081464222881e+00 6.668319850044283903e-03
4.402880535857186260e+03 1.597387489875508937e+00 6.581584348368834346e-03
4.407283416393044718e+03 1.591007405272136577e+00 6.837841920499175032e-03
4.411690699809440048e+03 1.585008296210038692e+00 6.513305162847861547e-03
4.416102390509250654e+03 1.580845396516568080e+00 6.518059137145076204e-03
4.420518492899761441e+03 1.579606409283742741e+00 6.924592671776272877e-03
4.424939011392662906e+03 1.575431701031005938e+00 6.369099911668597847e-03
4.429363950404056595e+03 1.571155020939245750e+00 6.387274332669646247e-03
4.433793314354462382e+03 1.568356409871843660e+00 5.946545625817312164e-03
4.438227107668818462e+03 1.564382949833014624e+00 5.897096273951503952e-03
4.442665334776488635e+03 1.559213050113753107e+00 6.044619898637350504e-03
4.447108000111265937e+03 1.553172787476363226e+00 6.038065089375819691e-03
4.451555108111379013e+03 1.549028704111273358e+00 6.003205333673892509e-03
4.456006663219492111e+03 1.543654975252617856e+00 6.099940763718459009e-03
4.460462669882713271e+03 1.540541208056594114e+00 6.142561916933944079e-03
4.464923132552597053e+03 1.533969014438089973e+00 5.532754180409887521e-03
4.469388055685150903e+03 1.529908713645160789e+00 5.351768307590158875e-03
