# starting wavelength: 2719.925
# ending wavelength: 7612.969
# wav flux eflux
2.722360497025197219e+03 1.657784706406671749e+00 1.482325276539107894e-01
2.725082857522223094e+03 1.575973486401156975e+00 1.208473013612696573e-01
2.727807940379746015e+03 1.475237756380999299e+00 1.052301173622335606e-01
2.730535748320126913e+03 1.398177756843278496e+00 8.770206326668496255e-02
2.733266284068447931e+03 1.361909950132214941e+00 7.031260174446289646e-02
2.735999550352517417e+03 1.359014526141393953e+00 5.621237739424907176e-02
2.738735549902870844e+03 1.373072337880423710e+00 4.648638448454046196e-02
2.741474285452774438e+03 1.390711561531504881e+00 3.955136689640082609e-02
2.744215759738227916e+03 1.410122548657312791e+00 3.371047041049023141e-02
2.746959975497967207e+03 1.430658957409030041e+00 2.912372345826718181e-02
2.749706935473466274e+03 1.449883976181580714e+00 2.581276345569560524e-02
2.752456642408940297e+03 1.472446759947938055e+00 2.332538520635529453e-02
2.755209099051350222e+03 1.492745571749497291e+00 2.148152374283421318e-02
2.757964308150402758e+03 1.498395858576510697e+00 2.022212432103082796e-02
2.760722272458554016e+03 1.491072789976916058e+00 1.982838751732714580e-02
2.763482994731013605e+03 1.477026508740789223e+00 1.982860350786592313e-02
2.766246477725745535e+03 1.458230450782761034e+00 2.018918327410608102e-02
2.769012724203471862e+03 1.436465510753336838e+00 2.100986228105542614e-02
2.771781736927676320e+03 1.417621650146576151e+00 2.172360863829300714e-02
2.774553518664604780e+03 1.391099052280683646e+00 2.210784577714634130e-02
2.777328072183270706e+03 1.370337065129189735e+00 2.260634461789177291e-02
2.780105400255454697e+03 1.362877436133273612e+00 2.266289721802041898e-02
2.782885505655710858e+03 1.360738891280952600e+00 2.233790490352395922e-02
2.785668391161367708e+03 1.357604247906323502e+00 2.078690285536016411e-02
2.788454059552529998e+03 1.360085776515520317e+00 2.012538697388769129e-02
2.791242513612083258e+03 1.374337220143841520e+00 2.099750813915491135e-02
2.794033756125696527e+03 1.394561777454779827e+00 2.156329196592138980e-02
2.796827789881823264e+03 1.413845863418918603e+00 2.188002098679025370e-02
2.799624617671705892e+03 1.441797609215205611e+00 2.201092021948761537e-02
2.802424242289378526e+03 1.473508373792277171e+00 2.141345610772928815e-02
2.805226666531668798e+03 1.502308168440654956e+00 2.139231123227389175e-02
2.808031893198201487e+03 1.544635001423776188e+00 2.079697591264666537e-02
2.810839925091400346e+03 1.595974796038276189e+00 2.007133964333281465e-02
2.813650765016492642e+03 1.647858891143102911e+00 2.053500530709934102e-02
2.816464415781510070e+03 1.690184440986262748e+00 2.140784446687413189e-02
2.819280880197292845e+03 1.725707611140095965e+00 2.184867148847496540e-02
2.822100161077491066e+03 1.748255686853701807e+00 2.185155120844080312e-02
2.824922261238569263e+03 1.760064038181234691e+00 2.202308440887383589e-02
2.827747183499808671e+03 1.774397129768332748e+00 2.187691032249228576e-02
2.830574930683309503e+03 1.790787981576474452e+00 2.165949801959306253e-02
2.833405505613993682e+03 1.794547809471130684e+00 2.161951343971056996e-02
2.836238911119608929e+03 1.784900228357240382e+00 2.161419194838611058e-02
2.839075150030729219e+03 1.766241314309375809e+00 2.101534801891817225e-02
2.841914225180761150e+03 1.748215495931738861e+00 2.054889341574291442e-02
2.844756139405942577e+03 1.728141954877734587e+00 2.054950188038151548e-02
2.847600895545349431e+03 1.703278235362271076e+00 2.067696394694578527e-02
2.850448496440895724e+03 1.679559596371134500e+00 2.097339139600828267e-02
2.853298944937337637e+03 1.667529081208371844e+00 2.081636136804118978e-02
2.856152243882275798e+03 1.656241157855540713e+00 2.069926507171631486e-02
2.859008396126159369e+03 1.640074284277490690e+00 2.081641080453268053e-02
2.861867404522286051e+03 1.623177746171937441e+00 2.084005081413468907e-02
2.864729271926809361e+03 1.608455225653292686e+00 2.061555529026295672e-02
2.867594001198737260e+03 1.597168213345216747e+00 2.020285860582286472e-02
2.870461595199936710e+03 1.587201260632884026e+00 2.032432799031679352e-02
2.873332056795137760e+03 1.582230648430609232e+00 2.074728098229076945e-02
2.876205388851934003e+03 1.569187477823184240e+00 2.067109582515705077e-02
2.879081594240786671e+03 1.561753303868867571e+00 2.050866800815408231e-02
2.881960675835028724e+03 1.561435790868003437e+00 1.995515518879567921e-02
2.884842636510864395e+03 1.574628970592844679e+00 1.890523404499900098e-02
2.887727479147376471e+03 1.591332296176986016e+00 1.814897806080385811e-02
2.890615206626524468e+03 1.609307705700231628e+00 1.771676185130190845e-02
2.893505821833151913e+03 1.619596155618071798e+00 1.745606749804892721e-02
2.896399327654986337e+03 1.617359421193544033e+00 1.747227553204908079e-02
2.899295726982642009e+03 1.601203671910584880e+00 1.633143053681608212e-02
2.902195022709625846e+03 1.576368969150573118e+00 1.401500524560666573e-02
2.905097217732336503e+03 1.563724344762765339e+00 1.376038527688172759e-02
2.908002314950069831e+03 1.562779566133419396e+00 1.288579771581640707e-02
2.910910317265020694e+03 1.559653254645453568e+00 1.250108584186881977e-02
2.913821227582286610e+03 1.552849304892405469e+00 1.249239009276163076e-02
2.916735048809870023e+03 1.546860221555306891e+00 1.223506611766782617e-02
2.919651783858680574e+03 1.538667159900526382e+00 1.205272856295288436e-02
2.922571435642540564e+03 1.527706676694248200e+00 1.236335619904649179e-02
2.925494007078184040e+03 1.514958110249528200e+00 1.352013579272288990e-02
2.928419501085263164e+03 1.504130505950820984e+00 1.479338079507101777e-02
2.931347920586349119e+03 1.511766888659352048e+00 1.495631193706303645e-02
2.934279268506936660e+03 1.543200004732031561e+00 1.548377795206537164e-02
2.937213547775444567e+03 1.572302140755427624e+00 1.605955302213447206e-02
2.940150761323221104e+03 1.596665358514647526e+00 1.680294991165736176e-02
2.943090912084544925e+03 1.620379346761800843e+00 1.780378650647843758e-02
2.946034002996630534e+03 1.642092628192193704e+00 1.806373764325254830e-02
2.948980036999628283e+03 1.658178900814930357e+00 1.805716524795836567e-02
2.951929017036628920e+03 1.660621633385839901e+00 1.792000806134359109e-02
2.954880946053666321e+03 1.664892482936032536e+00 1.786503628015155901e-02
2.957835826999721121e+03 1.678852518747187217e+00 1.693959147753804767e-02
2.960793662826721629e+03 1.685217530484334647e+00 1.639221118526087984e-02
2.963754456489549284e+03 1.676289662701997640e+00 1.810560181482240988e-02
2.966718210946040017e+03 1.650575647305306815e+00 1.947835802106552897e-02
2.969684929156986982e+03 1.633635590575325036e+00 1.811389945008288690e-02
2.972654614086145102e+03 1.630180048120825953e+00 1.767224337520604399e-02
2.975627268700231980e+03 1.637202515391661617e+00 1.829009711137563263e-02
2.978602895968933353e+03 1.646759329423377993e+00 1.891562608899693618e-02
2.981581498864903097e+03 1.645955592422327696e+00 1.905420624591574671e-02
2.984563080363769132e+03 1.639686410480739820e+00 1.900451653179409742e-02
2.987547643444133882e+03 1.638743719015190115e+00 1.907759104824008692e-02
2.990535191087578823e+03 1.649855949962845791e+00 1.922475841169993607e-02
2.993525726278667662e+03 1.664855345320579216e+00 1.962696812336874388e-02
2.996519252004947248e+03 1.682958771846330581e+00 1.988490997465969592e-02
2.999515771256953030e+03 1.697481895223812653e+00 1.876168883463056811e-02
3.002515287028211333e+03 1.697614646012165052e+00 1.824741594942425396e-02
3.005517802315240260e+03 1.698088042152772426e+00 1.874822483889540536e-02
3.008523320117556523e+03 1.686055720672671843e+00 1.846483239309593127e-02
3.011531843437674979e+03 1.667309255401840051e+00 1.675524768850251284e-02
3.014543375281113640e+03 1.640366517774632937e+00 1.466780213867341712e-02
3.017557918656395941e+03 1.620223404039238257e+00 1.442360937971220308e-02
3.020575476575053472e+03 1.607043579248914833e+00 1.443616784186858154e-02
3.023596052051629158e+03 1.596008975527293483e+00 1.446325465707809163e-02
3.026619648103681811e+03 1.588183749581227655e+00 1.438759978033032037e-02
3.029646267751786581e+03 1.579419859375293944e+00 1.470505568103327824e-02
3.032675914019539505e+03 1.576407582573734478e+00 1.483080668542564873e-02
3.035708589933559779e+03 1.589850330920638211e+00 1.544334043537208198e-02
3.038744298523494763e+03 1.608740036007136442e+00 1.608323685587418478e-02
3.041783042822019070e+03 1.619122672533949592e+00 1.570553617704480154e-02
3.044824825864842296e+03 1.607076009205318901e+00 1.555359431471881222e-02
3.047869650690708113e+03 1.592304978772262958e+00 1.464422401933129086e-02
3.050917520341399722e+03 1.591147345688003867e+00 1.462662781181177374e-02
3.053968437861742132e+03 1.601130417695987962e+00 1.405770388311705817e-02
3.057022406299604881e+03 1.609456367642254415e+00 1.364420291944510796e-02
3.060079428705905229e+03 1.612211857020017902e+00 1.364151326120022385e-02
3.063139508134612242e+03 1.600725763916029498e+00 1.325120828385155380e-02
3.066202647642748161e+03 1.585012931479012677e+00 1.280124305871267916e-02
3.069268850290391583e+03 1.583051635366971022e+00 1.284536109413572311e-02
3.072338119140682920e+03 1.595908715961006141e+00 1.269856571879635250e-02
3.075410457259824852e+03 1.609756335462647847e+00 1.239067888776346910e-02
3.078485867717085512e+03 1.609918900288670462e+00 1.225583736772392976e-02
3.081564353584803939e+03 1.597465783708107656e+00 1.109186975807665079e-02
3.084645917938389630e+03 1.592543773178863420e+00 1.094901061137592939e-02
3.087730563856328899e+03 1.600013948536270325e+00 1.063808500941941515e-02
3.090818294420186248e+03 1.604366793556483595e+00 1.019592142576170382e-02
3.093909112714607545e+03 1.604691069895388678e+00 1.012759416311675466e-02
3.097003021827323209e+03 1.607970201150432654e+00 9.994381282360808444e-03
3.100100024849151396e+03 1.602070733954820803e+00 9.884560842319253110e-03
3.103200124874001631e+03 1.573727254907746342e+00 1.083805357027574356e-02
3.106303324998876633e+03 1.535057402398602777e+00 1.126189144631425769e-02
3.109409628323876859e+03 1.523466965628035741e+00 1.115014539722047893e-02
3.112519037952201415e+03 1.531815887745197724e+00 1.108605395792327218e-02
3.115631556990154877e+03 1.530264901572492287e+00 1.093523247351545734e-02
3.118747188547145925e+03 1.523683930404366338e+00 1.030027895357961236e-02
3.121865935735694165e+03 1.530969453458886687e+00 1.099249725682352290e-02
3.124987801671431043e+03 1.536043012220831949e+00 1.097125250410708325e-02
3.128112789473103476e+03 1.541355939409345677e+00 1.093696353346343929e-02
3.131240902262577492e+03 1.554937508539615321e+00 1.080926053286129784e-02
3.134372143164840963e+03 1.568061976988256223e+00 1.083686634573748434e-02
3.137506515308006783e+03 1.575928097773284575e+00 1.062689991857580611e-02
3.140644021823316052e+03 1.589155465323107697e+00 1.083498451464574158e-02
3.143784665845140353e+03 1.616152698332623983e+00 1.238128436278646514e-02
3.146928450510986750e+03 1.629292753995615017e+00 1.233486182285411722e-02
3.150075378961498700e+03 1.612927318888697892e+00 1.328615922033479085e-02
3.153225454340461056e+03 1.588321505093011288e+00 1.447219124364918993e-02
3.156378679794802792e+03 1.569973825419587854e+00 1.430851080292466597e-02
3.159535058474598372e+03 1.556687291112639704e+00 1.432161404301429165e-02
3.162694593533074112e+03 1.544450189311479038e+00 1.434402792048503072e-02
3.165857288126608182e+03 1.545588395266379145e+00 1.409834678987641372e-02
3.169023145414736064e+03 1.544325138473591208e+00 1.403280240138625630e-02
3.172192168560151458e+03 1.528408434513743641e+00 1.320900925567180910e-02
3.175364360728712654e+03 1.518549608728655187e+00 1.188282882900770603e-02
3.178539725089442527e+03 1.534984439905122011e+00 1.226034479809958583e-02
3.181718264814533086e+03 1.560153098729461396e+00 1.308165293473903361e-02
3.184899983079348658e+03 1.583414525354559066e+00 1.341802742104784493e-02
3.188084883062429071e+03 1.606596355702699208e+00 1.135878553252647576e-02
3.191272967945492383e+03 1.612333374403030817e+00 1.128637826185250985e-02
3.194464240913438971e+03 1.597861430865844312e+00 1.374738038827147922e-02
3.197658705154353811e+03 1.581383425633342776e+00 1.502354688921052513e-02
3.200856363859509202e+03 1.582074028911620633e+00 1.401952825668967804e-02
3.204057220223369768e+03 1.590973705347212164e+00 1.415002904700090637e-02
3.207261277443593826e+03 1.606513533294058327e+00 1.414049547950508787e-02
3.210468538721038840e+03 1.633172085934644135e+00 1.307136881030439117e-02
3.213679007259760965e+03 1.656327184724333934e+00 1.358372339660027760e-02
3.216892686267021418e+03 1.667064037003304078e+00 1.407670971173728344e-02
3.220109578953289656e+03 1.664211965748746636e+00 1.376904777271297994e-02
3.223329688532243836e+03 1.650100205227749361e+00 1.502799014059352789e-02
3.226553018220777176e+03 1.633479909261487117e+00 1.627207734482389104e-02
3.229779571238999324e+03 1.628631703989342983e+00 1.633234189438969447e-02
3.233009350810239084e+03 1.624123821215794017e+00 1.556801681840196301e-02
3.236242360161050783e+03 1.612746888235986553e+00 1.400485332289540773e-02
3.239478602521212906e+03 1.609884010725135095e+00 1.388145189977118416e-02
3.242718081123734919e+03 1.619148432220995470e+00 1.511164494026751536e-02
3.245960799204859995e+03 1.634749964455767701e+00 1.421816453135835503e-02
3.249206760004065927e+03 1.637845885030595028e+00 1.272745643181549292e-02
3.252455966764071036e+03 1.643750372289113360e+00 1.138647022017041412e-02
3.255708422730835991e+03 1.633430677545216314e+00 1.115620428068966885e-02
3.258964131153567905e+03 1.594205223800509108e+00 1.088921508984085074e-02
3.262223095284722604e+03 1.553762085234571266e+00 1.141685897465028951e-02
3.265485318380008266e+03 1.510801015100747602e+00 1.276965491164310310e-02
3.268750803698389518e+03 1.470369466323037333e+00 1.089905496132583321e-02
3.272019554502088795e+03 1.452408989465875155e+00 9.456604570218282713e-03
3.275291574056592253e+03 1.468394259082618891e+00 1.248388370530312784e-02
3.278566865630649772e+03 1.496333487173531651e+00 1.215075005162032616e-02
3.281845432496281319e+03 1.512289216768681888e+00 1.134236057626058364e-02
3.285127277928778767e+03 1.516881486522863254e+00 1.185153159250404431e-02
3.288412405206708627e+03 1.527573102086390966e+00 1.194127741409084856e-02
3.291700817611916591e+03 1.542523597764721366e+00 1.190258831715693306e-02
3.294992518429529355e+03 1.555199574516113126e+00 1.190818305980383303e-02
3.298287510947960072e+03 1.563236747389533221e+00 1.181980404206874752e-02
3.301585798458909267e+03 1.565929364668655843e+00 1.174809770606318783e-02
3.304887384257369376e+03 1.568652800828088889e+00 1.185936525866807846e-02
3.308192271641627485e+03 1.576322297755919699e+00 1.218187996908515897e-02
3.311500463913270323e+03 1.574270806792070099e+00 1.268473622504391780e-02
3.314811964377184722e+03 1.570989790081758430e+00 1.242258850714336033e-02
3.318126776341563072e+03 1.570144731046381192e+00 1.091045302939991878e-02
3.321444903117905596e+03 1.559841562524510783e+00 1.109743459397651184e-02
3.324766348021024896e+03 1.541051595619874037e+00 1.219095278456740032e-02
3.328091114369046863e+03 1.510207203037315260e+00 1.155736091376705944e-02
3.331419205483417045e+03 1.489736685158131291e+00 9.102504968955571138e-03
3.334750624688901553e+03 1.485831449242662305e+00 9.419933121853305349e-03
3.338085375313591612e+03 1.497411737172092749e+00 9.238871635166257326e-03
3.341423460688906289e+03 1.520655318327404082e+00 8.495986058033892438e-03
3.344764884149596128e+03 1.545735078183975153e+00 9.428359853227130313e-03
3.348109649033746791e+03 1.563972098794179644e+00 1.016197842577067946e-02
3.351457758682781787e+03 1.575151666412474505e+00 1.010349149544018631e-02
3.354809216441465651e+03 1.586609085002447239e+00 1.003981065127612475e-02
3.358164025657908041e+03 1.591407793334951748e+00 1.037094982257284227e-02
3.361522189683567376e+03 1.586812971230892932e+00 1.126626922210261124e-02
3.364883711873251741e+03 1.574985157142723358e+00 1.065433727144136748e-02
3.368248595585126168e+03 1.566822683473469313e+00 9.043283144184555838e-03
3.371616844180712633e+03 1.573878856255876757e+00 1.065082948386869566e-02
3.374988461024894150e+03 1.584081269038560613e+00 1.046419641104083011e-02
3.378363449485920228e+03 1.588652115272465970e+00 1.023170860516840058e-02
3.381741812935407324e+03 1.587021564803763773e+00 9.921411820939552220e-03
3.385123554748343849e+03 1.575505637221893629e+00 1.055606806647900464e-02
3.388508678303093347e+03 1.555167061717541488e+00 1.203384201509793451e-02
3.391897186981397681e+03 1.530561922636927141e+00 1.204545628264856727e-02
3.395289084168380214e+03 1.521660203996672012e+00 1.212082726461760802e-02
3.398684373252549449e+03 1.523118334339367941e+00 1.292493929808501661e-02
3.402083057625803121e+03 1.519616978500528681e+00 1.419225466148208055e-02
3.405485140683430018e+03 1.508757050301706926e+00 1.466863023216343105e-02
3.408890625824114522e+03 1.509325953345115101e+00 1.381617484418031817e-02
3.412299516449939802e+03 1.510494905447947289e+00 1.231565276747015152e-02
3.415711815966390986e+03 1.496671708057953465e+00 1.290423441069857118e-02
3.419127527782358356e+03 1.486255101612821372e+00 1.319772917482230773e-02
3.422546655310141887e+03 1.473713137648870575e+00 1.368094052964941715e-02
3.425969201965453522e+03 1.441104204898451702e+00 1.376745472176076415e-02
3.429395171167419903e+03 1.421216495746575603e+00 1.091679157431298640e-02
3.432824566338588284e+03 1.427459232875868178e+00 1.181285077646924801e-02
3.436257390904928343e+03 1.453607349040792363e+00 1.368434785322084762e-02
3.439693648295834464e+03 1.482853942692229365e+00 1.420964179846022531e-02
3.443133341944131189e+03 1.518334306720602100e+00 1.283901330626493857e-02
3.446576475286076402e+03 1.553432009941167147e+00 1.117793474653716937e-02
3.450023051761363604e+03 1.574642301049340443e+00 1.267051650112200646e-02
3.453473074813126004e+03 1.592012810677140289e+00 1.271786906253955657e-02
3.456926547887940615e+03 1.603118139266066500e+00 1.276092693957242216e-02
3.460383474435829612e+03 1.598277197585837639e+00 1.246665806545866652e-02
3.463843857910266706e+03 1.598187867016326758e+00 1.312300296324462288e-02
3.467307701768178049e+03 1.594933211174110133e+00 1.282427736968707807e-02
3.470775009469947236e+03 1.567403491918698100e+00 1.313568236126890464e-02
3.474245784479418489e+03 1.525325658445432220e+00 1.564918921947429375e-02
3.477720030263898934e+03 1.485118492511017241e+00 1.722029389908492567e-02
3.481197750294164052e+03 1.455513544756580568e+00 1.764492251315255208e-02
3.484678948044459503e+03 1.448577708384272356e+00 1.773619241274643210e-02
3.488163626992504760e+03 1.458969651138965373e+00 1.842329547056019423e-02
3.491651790619498570e+03 1.464544923541890808e+00 1.842914756235044735e-02
3.495143442410119405e+03 1.479285648518512408e+00 1.879681675069211008e-02
3.498638585852530468e+03 1.511318881308126194e+00 1.835416499128574019e-02
3.502137224438384237e+03 1.557340148037626548e+00 1.745539422217159964e-02
3.505639361662823831e+03 1.614622596124644094e+00 1.619357401296564122e-02
3.509145001024487556e+03 1.667595865299832836e+00 1.598215909851928920e-02
3.512654146025513455e+03 1.709738522273603012e+00 1.720559774289440527e-02
3.516166800171540217e+03 1.713112026557125134e+00 1.739905696038455962e-02
3.519682966971712631e+03 1.683247044676640103e+00 1.767175608559194006e-02
3.523202649938685681e+03 1.653567258473327417e+00 1.812358015091183536e-02
3.526725852588625457e+03 1.603678824798690838e+00 1.966437086835129758e-02
3.530252578441215064e+03 1.563744023781568293e+00 2.151524046496344419e-02
3.533782831019657806e+03 1.570827623419736252e+00 2.195676813788974974e-02
3.537316613850678550e+03 1.595276179819022921e+00 2.339563996976240165e-02
3.540853930464530094e+03 1.614918502515228393e+00 2.470652143190228342e-02
3.544394784394995895e+03 1.617851313634377286e+00 2.493902018491399655e-02
