# starting wavelength: 2719.925
# ending wavelength: 8068.930
# wav flux eflux
2.722360497025197219e+03 5.340766033438573146e-01 5.888428968936617602e-01
2.725082857522223094e+03 5.769658514353827039e-01 4.418782375787411731e-01
2.727807940379746015e+03 6.281968889505713527e-01 3.321433978536655340e-01
2.730535748320126913e+03 6.666216469492205476e-01 2.624307863178538258e-01
2.733266284068447931e+03 7.401382862802561302e-01 2.047086864420989138e-01
2.735999550352517417e+03 8.053749231161191346e-01 1.641420599459060825e-01
2.738735549902870844e+03 8.824866151375276857e-01 1.355295450617849673e-01
2.741474285452774438e+03 9.436283877144775456e-01 1.117949259146312768e-01
2.744215759738227916e+03 9.862117263692408153e-01 9.632474797494199048e-02
2.746959975497967207e+03 9.925922675874759848e-01 8.988747268231600529e-02
2.749706935473466274e+03 9.891328820212985651e-01 8.004947271907039696e-02
2.752456642408940297e+03 9.733991884946215922e-01 7.242065822656856833e-02
2.755209099051350222e+03 9.497865638029800994e-01 6.655589879894746597e-02
2.757964308150402758e+03 9.307425886183935404e-01 6.139927228234604017e-02
2.760722272458554016e+03 9.023636156743912728e-01 5.768211507336758886e-02
2.763482994731013605e+03 8.715109232541914386e-01 5.485969197245799123e-02
2.766246477725745535e+03 8.320054123671287716e-01 5.196897834291622220e-02
2.769012724203471862e+03 7.975732145002906170e-01 5.017836351651193405e-02
2.771781736927676320e+03 7.551397250582720932e-01 4.916672063300616541e-02
2.774553518664604780e+03 7.120763709768082039e-01 4.911801869146453781e-02
2.777328072183270706e+03 6.728948477509006931e-01 4.733030209430973134e-02
2.780105400255454697e+03 6.429974191922750437e-01 4.726911415334474759e-02
2.782885505655710858e+03 6.280634408692921111e-01 4.880487401216203336e-02
2.785668391161367708e+03 6.000437386178242294e-01 4.855399355571662912e-02
2.788454059552529998e+03 5.614460811602466350e-01 4.779451285871842703e-02
2.791242513612083258e+03 5.253120330371771063e-01 4.794948415976588857e-02
2.794033756125696527e+03 4.948812114266390449e-01 4.667461655115898167e-02
2.796827789881823264e+03 4.879187042794846940e-01 4.539336246693780746e-02
2.799624617671705892e+03 4.802778339832312060e-01 4.530468549394375821e-02
2.802424242289378526e+03 4.970577239310859374e-01 4.547237217888665251e-02
2.805226666531668798e+03 4.974000048101819837e-01 4.405993470253673217e-02
2.808031893198201487e+03 5.008133065673685547e-01 4.299700680667897096e-02
2.810839925091400346e+03 5.341743019857814190e-01 4.231697911130428286e-02
2.813650765016492642e+03 5.677256408318088754e-01 4.104117151508056976e-02
2.816464415781510070e+03 5.923292203541019596e-01 4.075792194492800641e-02
2.819280880197292845e+03 6.233765076918691417e-01 3.999317953215879295e-02
2.822100161077491066e+03 6.575684192848266774e-01 3.868203002018013453e-02
2.824922261238569263e+03 6.769324569308852180e-01 3.854087469543592687e-02
2.827747183499808671e+03 7.005035373691754774e-01 3.817254895848323781e-02
2.830574930683309503e+03 7.172979956208963559e-01 3.689265778478666158e-02
2.833405505613993682e+03 7.548494239284251339e-01 3.471698623974297376e-02
2.836238911119608929e+03 7.851145173425848611e-01 3.432066284852842292e-02
2.839075150030729219e+03 8.368164791228702715e-01 3.266838260692003088e-02
2.841914225180761150e+03 8.678818967301806797e-01 3.278816896212984749e-02
2.844756139405942577e+03 8.825806275481582475e-01 3.279717438422408149e-02
2.847600895545349431e+03 8.722665888915338561e-01 3.388913876647216272e-02
2.850448496440895724e+03 8.687999592140415173e-01 3.508855772213391455e-02
2.853298944937337637e+03 8.676428048193872700e-01 3.529436486577330889e-02
2.856152243882275798e+03 8.705181062289675253e-01 3.414779153663231176e-02
2.859008396126159369e+03 8.749978774228380773e-01 3.457335432336745146e-02
2.861867404522286051e+03 8.678664418541167658e-01 3.388785644479470893e-02
2.864729271926809361e+03 8.670543211779755399e-01 3.347520082418995596e-02
2.867594001198737260e+03 8.584037109511392094e-01 3.266013702773681859e-02
2.870461595199936710e+03 8.485430188230854709e-01 3.236199942778993782e-02
2.873332056795137760e+03 8.277307496480033056e-01 3.189495178356572397e-02
2.876205388851934003e+03 8.290579376953711721e-01 3.111800956684667926e-02
2.879081594240786671e+03 8.304518731694762179e-01 2.985241381647914596e-02
2.881960675835028724e+03 8.322526586326417508e-01 2.760512965025398863e-02
2.884842636510864395e+03 8.354090177672678363e-01 2.817976473724246103e-02
2.887727479147376471e+03 8.369204359033723950e-01 2.826891303262323366e-02
2.890615206626524468e+03 8.264705347058913798e-01 2.780539691220942217e-02
2.893505821833151913e+03 8.190818228013336810e-01 2.761644192652380758e-02
2.896399327654986337e+03 8.073133521286404157e-01 2.765533333311164313e-02
2.899295726982642009e+03 7.984676260435055184e-01 2.628535573442644310e-02
2.902195022709625846e+03 7.819573087559130720e-01 2.544693624793508205e-02
2.905097217732336503e+03 7.631716554259498908e-01 2.470954623975351108e-02
2.908002314950069831e+03 7.346998966790447838e-01 2.616512006295431542e-02
2.910910317265020694e+03 7.276435035325270473e-01 2.631025021744451062e-02
2.913821227582286610e+03 7.181026186312624571e-01 2.603120911592733677e-02
2.916735048809870023e+03 7.044112573898628771e-01 2.625185277846881979e-02
2.919651783858680574e+03 6.982205123206531860e-01 2.576456016017003581e-02
2.922571435642540564e+03 6.774342201573934075e-01 2.387506959977675480e-02
2.925494007078184040e+03 6.869457248768029434e-01 2.604947213420015159e-02
2.928419501085263164e+03 6.953385400132606753e-01 2.718372078963685740e-02
2.931347920586349119e+03 6.945062603648691768e-01 2.652533736079850865e-02
2.934279268506936660e+03 7.196303963162955508e-01 2.605633895516928228e-02
2.937213547775444567e+03 7.392411570474024529e-01 2.612856071968431074e-02
2.940150761323221104e+03 7.574459306976959461e-01 2.526260749414870055e-02
2.943090912084544925e+03 7.627570712547178111e-01 2.553364371851045422e-02
2.946034002996630534e+03 7.765435938657760939e-01 2.534612763781174394e-02
2.948980036999628283e+03 8.066120821411918440e-01 2.507294823064375178e-02
2.951929017036628920e+03 8.286507346216538394e-01 2.449537808031949926e-02
2.954880946053666321e+03 8.449203152874271705e-01 2.361846085914996035e-02
2.957835826999721121e+03 8.507195501243504099e-01 2.358858709012054758e-02
2.960793662826721629e+03 8.522670503835206857e-01 2.453029342594080162e-02
2.963754456489549284e+03 8.430114734906374307e-01 2.440348471244443637e-02
2.966718210946040017e+03 8.342569366233831829e-01 2.417827828210909052e-02
2.969684929156986982e+03 8.393016832477723232e-01 2.444539416976824683e-02
2.972654614086145102e+03 8.315182957067667191e-01 2.365064352740537876e-02
2.975627268700231980e+03 8.247932132888744494e-01 2.393930500325851599e-02
2.978602895968933353e+03 8.241639413787571478e-01 2.368752044783305200e-02
2.981581498864903097e+03 8.307394210040980331e-01 2.396019034509655476e-02
2.984563080363769132e+03 8.433919789317674276e-01 2.518737565103535206e-02
2.987547643444133882e+03 8.534836967375978301e-01 2.517718663761939896e-02
2.990535191087578823e+03 8.590487950672146544e-01 2.552587638605303272e-02
2.993525726278667662e+03 8.657850509340520029e-01 2.547102959277307982e-02
2.996519252004947248e+03 8.678468278462408980e-01 2.482323093617502113e-02
2.999515771256953030e+03 8.805447277872998635e-01 2.457902647669412202e-02
3.002515287028211333e+03 9.028674887271700422e-01 2.342280139552161203e-02
3.005517802315240260e+03 9.148796800851624056e-01 2.305873390744899581e-02
3.008523320117556523e+03 9.300379940493841424e-01 2.332699390812043375e-02
3.011531843437674979e+03 9.436640061764491882e-01 2.232949818646580778e-02
3.014543375281113640e+03 9.651450591068382323e-01 2.170978384891771376e-02
3.017557918656395941e+03 9.825627959880142148e-01 2.070493227207291162e-02
3.020575476575053472e+03 9.927977664513206735e-01 1.964097849531045922e-02
3.023596052051629158e+03 1.006838279429068894e+00 1.952231607169920349e-02
3.026619648103681811e+03 1.014943882297140609e+00 1.884365987021445824e-02
3.029646267751786581e+03 1.018135933106375512e+00 1.861325174887382833e-02
3.032675914019539505e+03 1.035940294235931702e+00 1.826740816437884621e-02
3.035708589933559779e+03 1.047973396648870237e+00 1.748631147886107323e-02
3.038744298523494763e+03 1.059777173411499351e+00 1.701504275438313687e-02
3.041783042822019070e+03 1.063127975339509979e+00 1.681752779226956471e-02
3.044824825864842296e+03 1.063007061290714095e+00 1.713611019786404066e-02
3.047869650690708113e+03 1.050043023564674050e+00 1.769320469968441861e-02
3.050917520341399722e+03 1.032820526141751349e+00 1.815581635204234490e-02
3.053968437861742132e+03 1.021447814856082603e+00 1.806324571467520304e-02
3.057022406299604881e+03 1.004367751846767298e+00 1.745088323671258740e-02
3.060079428705905229e+03 9.750607056623378233e-01 1.545609312503245202e-02
3.063139508134612242e+03 9.571331294526661537e-01 1.507964736267692479e-02
3.066202647642748161e+03 9.522307502567333160e-01 1.464073699966010091e-02
3.069268850290391583e+03 9.436189814173610024e-01 1.490551423776115270e-02
3.072338119140682920e+03 9.269325329345049491e-01 1.424310524769636412e-02
3.075410457259824852e+03 9.213794875248224603e-01 1.461507158616393888e-02
3.078485867717085512e+03 9.291777167761380296e-01 1.787627279677172359e-02
3.081564353584803939e+03 9.247917724934150430e-01 1.797343412376169181e-02
3.084645917938389630e+03 9.212560491136755347e-01 1.703517632389835862e-02
3.087730563856328899e+03 9.211146303248037848e-01 1.759317840129853705e-02
3.090818294420186248e+03 9.190125982330482612e-01 1.724873811975548982e-02
3.093909112714607545e+03 9.141443607198255217e-01 1.724185456250436690e-02
3.097003021827323209e+03 9.059989739959710686e-01 1.651415005650773427e-02
3.100100024849151396e+03 8.806394889370304790e-01 1.876998201498192645e-02
3.103200124874001631e+03 8.473662970883308887e-01 2.287366193301382244e-02
3.106303324998876633e+03 8.239393233226522950e-01 2.258487533455242474e-02
3.109409628323876859e+03 8.062773157246776456e-01 2.174865950083092192e-02
3.112519037952201415e+03 8.021614154223787319e-01 2.130252098409035968e-02
3.115631556990154877e+03 7.953440775933108275e-01 2.197888794844796156e-02
3.118747188547145925e+03 8.014277716188320522e-01 2.422304664314857414e-02
3.121865935735694165e+03 8.129213252887406149e-01 2.398759321715050394e-02
3.124987801671431043e+03 8.135199188721639052e-01 2.415075999166334600e-02
3.128112789473103476e+03 8.064774695654916004e-01 2.408663860274238427e-02
3.131240902262577492e+03 8.145551437517518645e-01 2.449335363621848310e-02
3.134372143164840963e+03 8.282346033443730438e-01 2.386467092362353631e-02
3.137506515308006783e+03 8.381962433538907575e-01 2.369951082000621573e-02
3.140644021823316052e+03 8.418741767735455905e-01 2.444280714149079520e-02
3.143784665845140353e+03 8.551587536040164972e-01 2.429586355828348629e-02
3.146928450510986750e+03 8.600736641928673487e-01 2.317765684640072169e-02
3.150075378961498700e+03 8.792895296693319374e-01 2.296894762679287452e-02
3.153225454340461056e+03 9.026225950228511374e-01 2.324518184642821936e-02
3.156378679794802792e+03 9.168425204608765533e-01 2.333045394968645547e-02
3.159535058474598372e+03 9.293069798346503818e-01 2.363497714325913171e-02
3.162694593533074112e+03 9.467854001999063129e-01 2.174972718427957766e-02
3.165857288126608182e+03 9.564992013715782893e-01 2.071893052958902887e-02
3.169023145414736064e+03 9.703990779428044444e-01 1.807700720718422374e-02
3.172192168560151458e+03 9.654842069811572225e-01 1.962482306893886114e-02
3.175364360728712654e+03 9.425060543641200494e-01 1.840004982782500811e-02
3.178539725089442527e+03 9.259503282527815626e-01 1.596090467078357250e-02
3.181718264814533086e+03 9.114026217196732338e-01 1.559337362541744765e-02
3.184899983079348658e+03 8.956056777897823951e-01 1.506321412294997497e-02
3.188084883062429071e+03 8.923243377472468429e-01 1.513187738419852907e-02
3.191272967945492383e+03 9.013411272358026194e-01 1.463832382481811654e-02
3.194464240913438971e+03 9.039538418002217579e-01 1.469049213293657091e-02
3.197658705154353811e+03 9.024406807543660092e-01 1.439466137962875335e-02
3.200856363859509202e+03 9.059825104669688711e-01 1.432911815491317957e-02
3.204057220223369768e+03 9.114715215243820445e-01 1.499316594320479305e-02
3.207261277443593826e+03 9.289950857580474564e-01 1.496978431205909545e-02
3.210468538721038840e+03 9.403532138273926755e-01 1.506711615608815301e-02
3.213679007259760965e+03 9.469398484793898341e-01 1.563807214400667403e-02
3.216892686267021418e+03 9.454824728586720406e-01 1.555598458026750258e-02
3.220109578953289656e+03 9.531262840669780800e-01 1.606291613602209983e-02
3.223329688532243836e+03 9.589079428829463403e-01 1.600805851476323760e-02
3.226553018220777176e+03 9.709171164280029354e-01 1.587471365351062966e-02
3.229779571238999324e+03 9.770200107901128028e-01 1.587665725475994119e-02
3.233009350810239084e+03 9.825385003340836310e-01 1.636674610330595553e-02
3.236242360161050783e+03 9.845472391003941004e-01 1.587094091744007882e-02
3.239478602521212906e+03 9.798743898154476106e-01 1.522576184116813426e-02
3.242718081123734919e+03 9.793557904565389771e-01 1.477396705598530736e-02
3.245960799204859995e+03 9.885130242337194506e-01 1.424776576534167623e-02
3.249206760004065927e+03 9.853577698113493710e-01 1.400852709696854929e-02
3.252455966764071036e+03 9.789701674282932364e-01 1.398872087634369168e-02
3.255708422730835991e+03 9.778052926620163232e-01 1.306156666529045829e-02
3.258964131153567905e+03 9.759088356813078180e-01 1.326597256690882631e-02
3.262223095284722604e+03 9.650925192778306849e-01 1.351111422774666122e-02
3.265485318380008266e+03 9.518022858764548788e-01 1.255781576624913180e-02
3.268750803698389518e+03 9.386297435012485035e-01 1.034433605059385634e-02
3.272019554502088795e+03 9.419742266121634566e-01 9.592086870145970570e-03
3.275291574056592253e+03 9.483019515268310551e-01 8.995795325706233692e-03
3.278566865630649772e+03 9.546482028485415716e-01 8.883263187982630080e-03
3.281845432496281319e+03 9.587663244210692381e-01 8.258321821805879315e-03
3.285127277928778767e+03 9.788547486936476361e-01 1.129276969865269237e-02
3.288412405206708627e+03 9.839581237666872315e-01 1.209103804985577589e-02
3.291700817611916591e+03 9.853174350799427383e-01 1.360376134118123845e-02
3.294992518429529355e+03 9.886149246753749287e-01 1.427893099586060623e-02
3.298287510947960072e+03 9.927856515813812122e-01 1.438150115484955124e-02
3.301585798458909267e+03 9.874412790305037158e-01 1.404363101039703653e-02
3.304887384257369376e+03 9.830507558697945125e-01 1.412154678936785625e-02
3.308192271641627485e+03 9.792072996680004637e-01 1.395178648133008417e-02
3.311500463913270323e+03 9.690822165919606990e-01 1.458245350217394522e-02
3.314811964377184722e+03 9.664920302356658777e-01 1.462381333504325989e-02
3.318126776341563072e+03 9.666511763147089820e-01 1.564083749494380240e-02
3.321444903117905596e+03 9.727658774416739762e-01 1.631755460264367255e-02
3.324766348021024896e+03 9.622446964305303441e-01 1.742337226982144244e-02
3.328091114369046863e+03 9.560421513800665405e-01 1.815891524486731162e-02
3.331419205483417045e+03 9.502640299569066196e-01 1.794494284446417759e-02
3.334750624688901553e+03 9.476893741110654634e-01 1.813815629657943365e-02
3.338085375313591612e+03 9.478314328932770927e-01 1.763678045590924906e-02
3.341423460688906289e+03 9.547639688905693589e-01 1.771002502893903943e-02
3.344764884149596128e+03 9.704761373586672235e-01 1.851232041273757553e-02
3.348109649033746791e+03 9.912781420033136559e-01 1.669828485221530948e-02
3.351457758682781787e+03 1.006948573141857040e+00 1.584297505245243001e-02
3.354809216441465651e+03 1.002787954421258565e+00 1.504810447485839010e-02
3.358164025657908041e+03 1.002593510972150215e+00 1.460705737271002398e-02
3.361522189683567376e+03 1.005292120136785039e+00 1.501600501122713274e-02
3.364883711873251741e+03 1.002132525058326395e+00 1.508437609447209685e-02
3.368248595585126168e+03 1.002062781047079465e+00 1.527238538028389582e-02
3.371616844180712633e+03 9.966399393526259587e-01 1.453186455381308938e-02
3.374988461024894150e+03 9.926325597880185647e-01 1.286182792210120891e-02
3.378363449485920228e+03 9.894589467189449650e-01 1.311030392161083996e-02
3.381741812935407324e+03 9.919053334744426520e-01 1.294674597803822241e-02
3.385123554748343849e+03 1.011905138337718224e+00 9.607917505971950642e-03
3.388508678303093347e+03 1.017229255376888908e+00 9.242174768922320482e-03
3.391897186981397681e+03 1.024447005094967444e+00 9.747779114675626452e-03
3.395289084168380214e+03 1.040944526190833885e+00 1.112643455694893591e-02
3.398684373252549449e+03 1.048467936633936670e+00 1.186470188821446038e-02
3.402083057625803121e+03 1.049985603373476684e+00 1.149988853483594788e-02
3.405485140683430018e+03 1.050986028574252051e+00 1.159710175523957949e-02
3.408890625824114522e+03 1.045631291000940211e+00 1.288725825135683158e-02
3.412299516449939802e+03 1.040045010767350231e+00 1.406986734310094155e-02
3.415711815966390986e+03 1.045845148135712943e+00 1.432794029713218252e-02
3.419127527782358356e+03 1.046238107872875522e+00 1.446621110437188926e-02
3.422546655310141887e+03 1.051364340846359990e+00 1.502267758823646639e-02
3.425969201965453522e+03 1.048820234437922494e+00 1.505277444936352176e-02
3.429395171167419903e+03 1.043909017448258147e+00 1.505601237882556176e-02
3.432824566338588284e+03 1.044775048651008342e+00 1.476968903818927023e-02
3.436257390904928343e+03 1.042264173028316643e+00 1.490886743337436343e-02
3.439693648295834464e+03 1.043493910559574633e+00 1.496720416067968441e-02
3.443133341944131189e+03 1.054399821140487914e+00 1.567520225179683604e-02
3.446576475286076402e+03 1.059262521533829604e+00 1.561819575906891674e-02
3.450023051761363604e+03 1.066391090104226391e+00 1.517682851214384801e-02
3.453473074813126004e+03 1.070410022529245220e+00 1.588407657852702881e-02
3.456926547887940615e+03 1.062929951928951899e+00 1.592572225468184138e-02
3.460383474435829612e+03 1.068063986168389601e+00 1.570912639717505707e-02
3.463843857910266706e+03 1.080868136643342359e+00 1.484272706810683094e-02
3.467307701768178049e+03 1.086223651075362229e+00 1.433789452530606634e-02
3.470775009469947236e+03 1.094722611785905686e+00 1.350287168610789408e-02
3.474245784479418489e+03 1.087728140073219940e+00 1.253358483041887642e-02
3.477720030263898934e+03 1.081226505428392048e+00 1.176823381899770073e-02
3.481197750294164052e+03 1.078736178011221902e+00 1.198445228855327463e-02
3.484678948044459503e+03 1.068874153871955279e+00 1.184801181044576289e-02
3.488163626992504760e+03 1.063427958373187598e+00 1.149377708183024413e-02
3.491651790619498570e+03 1.060251043171088314e+00 1.112818338655167591e-02
3.495143442410119405e+03 1.056794161741302585e+00 1.141478675241580469e-02
3.498638585852530468e+03 1.056113594035360759e+00 1.143202891077551436e-02
3.502137224438384237e+03 1.050911094953833613e+00 1.109777347622857395e-02
3.505639361662823831e+03 1.048992990063497333e+00 9.703266752716375662e-03
3.509145001024487556e+03 1.057725502070905099e+00 9.482908700229183627e-03
3.512654146025513455e+03 1.070607425120975620e+00 9.282252645228994750e-03
3.516166800171540217e+03 1.089044293148772047e+00 9.335685933667596179e-03
3.519682966971712631e+03 1.104151097061255582e+00 9.073389090405847152e-03
3.523202649938685681e+03 1.114756079985372628e+00 8.409280623465933274e-03
3.526725852588625457e+03 1.122156669746114277e+00 9.250748417022607029e-03
3.530252578441215064e+03 1.131754014627749827e+00 1.026747201774272020e-02
3.533782831019657806e+03 1.153218833606759919e+00 1.113629722732668165e-02
3.537316613850678550e+03 1.168559408521377296e+00 1.237936379922559976e-02
3.540853930464530094e+03 1.185064868696856788e+00 1.370837416601456728e-02
3.544394784394995895e+03 1.191921367251897346e+00 1.390918880047914245e-02
