# starting wavelength: 3263.910
# ending wavelength: 6366.848
# wav flux eflux
3.265485318380008266e+03 2.440197602678877420e+00 2.083287895802247713e-01
3.268750803698389518e+03 2.404508213839665398e+00 1.496392469183031038e-01
3.272019554502088795e+03 2.377563059747102692e+00 1.107667066911230541e-01
3.275291574056592253e+03 2.350965006239316146e+00 8.473330896386234434e-02
3.278566865630649772e+03 2.332699576255847784e+00 6.568615782049865015e-02
3.281845432496281319e+03 2.317152274316701011e+00 5.201114300083497372e-02
3.285127277928778767e+03 2.306298165757658669e+00 4.197877744528542149e-02
3.288412405206708627e+03 2.296386074583049997e+00 3.460105037013791462e-02
3.291700817611916591e+03 2.288136556902654828e+00 2.931095931770771185e-02
3.294992518429529355e+03 2.279260199967489076e+00 2.484052587027078471e-02
3.298287510947960072e+03 2.261299333128573785e+00 2.402166830278964355e-02
3.301585798458909267e+03 2.236806971137465627e+00 2.478231285660638383e-02
3.304887384257369376e+03 2.212399673734300354e+00 2.441521844754696718e-02
3.308192271641627485e+03 2.190605615705700782e+00 2.352035912584713243e-02
3.311500463913270323e+03 2.177712107442994593e+00 2.248663614515243256e-02
3.314811964377184722e+03 2.169960961563599966e+00 2.150989074913828639e-02
3.318126776341563072e+03 2.155455590816378830e+00 2.131037079310598922e-02
3.321444903117905596e+03 2.143664958510505425e+00 2.154652765163337855e-02
3.324766348021024896e+03 2.152119796644101690e+00 2.500914229163872862e-02
3.328091114369046863e+03 2.150853435030274152e+00 2.582462074288231074e-02
3.331419205483417045e+03 2.159185233849446828e+00 2.959316858553617813e-02
3.334750624688901553e+03 2.160998201178434552e+00 3.178934817783109906e-02
3.338085375313591612e+03 2.164156395080961026e+00 3.136098865477279091e-02
3.341423460688906289e+03 2.151378528838910675e+00 3.223531451677316001e-02
3.344764884149596128e+03 2.139513556301126052e+00 3.312923382652723653e-02
3.348109649033746791e+03 2.143988171451202351e+00 3.268084672946776348e-02
3.351457758682781787e+03 2.136196414942709954e+00 3.197412549337503435e-02
3.354809216441465651e+03 2.129198746768852235e+00 3.242593307107664163e-02
3.358164025657908041e+03 2.125632319417552374e+00 3.226581655364547940e-02
3.361522189683567376e+03 2.128828473739300176e+00 3.251609162024145933e-02
3.364883711873251741e+03 2.127359006338671588e+00 3.360732714878041094e-02
3.368248595585126168e+03 2.120373022855660761e+00 3.337352953627994306e-02
3.371616844180712633e+03 2.107096109221591185e+00 3.333390470053614746e-02
3.374988461024894150e+03 2.095748564783051826e+00 3.346310358290288667e-02
3.378363449485920228e+03 2.083557973269439145e+00 3.272496959509942072e-02
3.381741812935407324e+03 2.072813717204657458e+00 3.375491337091505312e-02
3.385123554748343849e+03 2.062054154557635854e+00 3.318734152547565819e-02
3.388508678303093347e+03 2.051034429645409052e+00 3.267981354428730473e-02
3.391897186981397681e+03 2.049036953039460762e+00 3.265469700983045231e-02
3.395289084168380214e+03 2.052369386172563814e+00 3.272214560782947534e-02
3.398684373252549449e+03 2.059267182236833804e+00 3.245242688681093668e-02
3.402083057625803121e+03 2.068841534707717589e+00 3.200060696818790573e-02
3.405485140683430018e+03 2.082884181717925554e+00 3.028036371581193514e-02
3.408890625824114522e+03 2.082805218119799573e+00 3.016150383154671613e-02
3.412299516449939802e+03 2.074585490811215571e+00 3.062758705517454674e-02
3.415711815966390986e+03 2.058987033497241992e+00 3.219624153036959591e-02
3.419127527782358356e+03 2.050043819483266194e+00 3.306580803973088040e-02
3.422546655310141887e+03 2.039768985575081572e+00 3.252789283767694439e-02
3.425969201965453522e+03 2.017615660072265005e+00 2.765012119254985773e-02
3.429395171167419903e+03 2.006282050453655152e+00 2.684598318236145961e-02
3.432824566338588284e+03 2.016825261507897871e+00 2.306550808312186548e-02
3.436257390904928343e+03 2.023130892962455185e+00 2.042202393405243357e-02
3.439693648295834464e+03 2.030325850941379517e+00 1.950820195360892725e-02
3.443133341944131189e+03 2.030598977676482342e+00 1.953899896381260104e-02
3.446576475286076402e+03 2.019878118781856635e+00 1.745618073608635329e-02
3.450023051761363604e+03 2.006376914305324721e+00 1.724355437214384126e-02
3.453473074813126004e+03 1.995383701155702072e+00 1.719948502769757040e-02
3.456926547887940615e+03 1.984368855355574723e+00 1.696886427605504705e-02
3.460383474435829612e+03 1.981478372101208585e+00 1.685710307310808384e-02
3.463843857910266706e+03 1.978481227367692830e+00 1.606977264311244477e-02
3.467307701768178049e+03 1.977335834854778263e+00 1.621714030028185288e-02
3.470775009469947236e+03 1.970999825150182572e+00 1.609941579462198166e-02
3.474245784479418489e+03 1.959786507438836756e+00 1.629823464556696619e-02
3.477720030263898934e+03 1.953997780551613772e+00 1.624075097366289508e-02
3.481197750294164052e+03 1.944165020075228734e+00 1.678968424425270056e-02
3.484678948044459503e+03 1.929979705061257489e+00 1.572113016696599641e-02
3.488163626992504760e+03 1.922030590064594868e+00 1.551946887745261211e-02
3.491651790619498570e+03 1.919538738552886148e+00 1.552266855650149407e-02
3.495143442410119405e+03 1.920385330997799622e+00 1.504286542527905231e-02
3.498638585852530468e+03 1.927022442494951360e+00 1.333890023990679657e-02
3.502137224438384237e+03 1.931491169577299827e+00 1.390403720664730967e-02
3.505639361662823831e+03 1.932064420489281176e+00 1.358358933324663696e-02
3.509145001024487556e+03 1.926181270102515386e+00 1.243997004112728719e-02
3.512654146025513455e+03 1.927226184023134614e+00 1.257747156875432641e-02
3.516166800171540217e+03 1.931234416258075459e+00 1.245758032684893268e-02
3.519682966971712631e+03 1.937388257178401352e+00 1.236742885949210918e-02
3.523202649938685681e+03 1.942908325990721830e+00 1.283378108982419566e-02
3.526725852588625457e+03 1.961873666226149115e+00 1.261691637267702351e-02
3.530252578441215064e+03 1.980100640020081570e+00 1.318669609233716691e-02
3.533782831019657806e+03 1.983599105088891701e+00 1.326258714154997763e-02
3.537316613850678550e+03 1.977115081398934882e+00 1.387303247746453187e-02
3.540853930464530094e+03 1.960068698450416091e+00 1.677752014068659148e-02
3.544394784394995895e+03 1.946414548554617596e+00 1.578784473167711699e-02
3.547939179179392340e+03 1.938290842863526597e+00 1.607442726739094149e-02
3.551487118358572843e+03 1.929161469777549875e+00 1.628128068734142897e-02
3.555038605476932389e+03 1.905380306501554433e+00 1.651176121261904023e-02
3.558593644082410719e+03 1.885881342493512136e+00 1.838011353700994693e-02
3.562152237726494150e+03 1.874992044219290888e+00 1.676354882941363811e-02
3.565714389964221937e+03 1.877689322198188959e+00 1.771859623482337914e-02
3.569280104354187188e+03 1.880799721271901870e+00 1.880666671631726211e-02
3.572849384458542772e+03 1.893891308121232964e+00 1.928945448524699638e-02
3.576422233843002232e+03 1.914921751010187911e+00 1.865159693530110338e-02
3.579998656076846601e+03 1.939866456579653287e+00 1.631664455386734255e-02
3.583578654732924406e+03 1.955740864425192793e+00 1.615891619445330996e-02
3.587162233387658489e+03 1.959596109956540655e+00 1.608436923433013629e-02
3.590749395621047370e+03 1.951657820295861212e+00 1.679014754719259164e-02
3.594340145016669794e+03 1.935357312417187670e+00 1.691122208240963126e-02
3.597934485161687462e+03 1.918656227893972943e+00 1.805359386803408184e-02
3.601532419646850485e+03 1.911752653390178747e+00 1.804765109716233509e-02
3.605133952066498296e+03 1.901465855797658255e+00 1.782726202442898311e-02
3.608739086018566013e+03 1.884715967307726503e+00 1.623749945182161730e-02
3.612347825104585809e+03 1.874717179821445923e+00 1.553246895353615001e-02
3.615960172929691907e+03 1.876955782297228925e+00 1.438495741792674733e-02
3.619576133102622407e+03 1.883320501716530204e+00 9.544154838061471788e-03
3.623195709235726554e+03 1.882173134598982500e+00 9.018039785098146480e-03
3.626818904944963379e+03 1.877174956907410541e+00 9.044737449636755522e-03
3.630445723849909427e+03 1.867835204018111206e+00 8.889659785678006437e-03
3.634076169573760581e+03 1.858911135555378014e+00 8.821649363775692712e-03
3.637710245743335690e+03 1.843896740330065231e+00 1.179278152164511470e-02
3.641347955989080219e+03 1.826539076523803429e+00 1.117145016706749643e-02
3.644989303945070333e+03 1.816586985821557088e+00 8.844853587901503264e-03
3.648634293249016537e+03 1.817814593232505382e+00 1.000401359923765686e-02
3.652282927542266862e+03 1.824452650659660558e+00 1.028495137524244700e-02
3.655935210469810499e+03 1.837720247863279255e+00 1.221823951389023125e-02
3.659591145680281443e+03 1.846493848814965366e+00 1.175827363332292846e-02
3.663250736825963031e+03 1.854431459717637454e+00 1.143961209608079788e-02
3.666913987562790226e+03 1.858762070070426597e+00 1.138308343169200203e-02
3.670580901550354156e+03 1.861250617878545510e+00 1.099456386977954586e-02
3.674251482451905758e+03 1.862776499890651527e+00 1.096825929138400303e-02
3.677925733934358959e+03 1.857583889765422214e+00 1.022507056258469861e-02
3.681603659668294313e+03 1.850981966556271674e+00 1.079586402733756501e-02
3.685285263327964003e+03 1.838419838139666362e+00 1.004272247207623793e-02
3.688970548591293209e+03 1.827256005242369863e+00 9.419138713778479541e-03
3.692659519139885560e+03 1.816863393942628413e+00 9.753049304066164354e-03
3.696352178659026777e+03 1.814687385636852834e+00 1.006685320197116609e-02
3.700048530837686940e+03 1.818835262186467405e+00 9.117143053515795389e-03
3.703748579368525952e+03 1.821538032141625463e+00 9.280816194989858353e-03
3.707452327947895355e+03 1.823857026968608297e+00 8.771305406419955056e-03
3.711159780275844696e+03 1.834947154014641368e+00 1.183180535242340028e-02
3.714870940056121526e+03 1.836645199804139539e+00 1.271088935602902696e-02
3.718585810996179134e+03 1.841621113241779462e+00 1.386787379187862101e-02
3.722304396807176545e+03 1.857581027085915881e+00 1.530030163929343122e-02
3.726026701203984885e+03 1.875875995402852547e+00 1.502927988650314996e-02
3.729752727905190113e+03 1.884859439895545385e+00 1.498759748771704044e-02
3.733482480633096657e+03 1.892021065386672474e+00 1.482072773875113894e-02
3.737215963113731050e+03 1.896588456904638509e+00 1.483592328376089585e-02
3.740953179076846027e+03 1.891254311478684391e+00 1.456000773092748501e-02
3.744694132255923705e+03 1.880874007420997307e+00 1.653487962759382646e-02
3.748438826388181042e+03 1.874443770767018291e+00 1.665548433609158677e-02
3.752187265214570289e+03 1.872712634487451622e+00 1.589823770935431396e-02
3.755939452479786269e+03 1.867001125893816837e+00 1.575837720304002626e-02
3.759695391932267285e+03 1.861042557296106015e+00 1.576204294357255731e-02
3.763455087324201031e+03 1.855876643505827372e+00 1.593771068650931544e-02
3.767218542411526414e+03 1.854962607867983060e+00 1.492281091214549618e-02
3.770985760953939007e+03 1.851542831949271717e+00 1.500486957835038375e-02
3.774756746714894234e+03 1.842969102307902673e+00 1.507994669275291438e-02
3.778531503461610555e+03 1.831427015896427202e+00 1.491303759938920719e-02
3.782310034965073100e+03 1.821042705178250731e+00 1.470781875155744919e-02
3.786092345000039586e+03 1.800723049663415676e+00 1.270672001947683628e-02
3.789878437345040766e+03 1.785154724366010637e+00 1.118763381324035071e-02
3.793668315782387253e+03 1.775245920844083614e+00 1.110093754998288905e-02
3.797461984098170888e+03 1.760206956474049012e+00 1.143298075722523448e-02
3.801259446082270188e+03 1.750255724671186508e+00 1.102639489210664910e-02
3.805060705528353537e+03 1.748815491926978938e+00 1.119799848314295687e-02
3.808865766233883278e+03 1.752894539232213500e+00 1.044955639918988995e-02
3.812674632000118436e+03 1.761781829798452215e+00 1.069757719547716895e-02
3.816487306632119726e+03 1.770008783722933687e+00 1.282955428019888315e-02
3.820303793938753188e+03 1.775380728368653127e+00 1.229665854029271185e-02
3.824124097732693372e+03 1.775505347052663607e+00 1.370879203319870336e-02
3.827948221830427428e+03 1.776102060284414641e+00 1.387426339888295050e-02
3.831776170052258749e+03 1.777230376760329689e+00 1.371010575973611971e-02
3.835607946222312421e+03 1.781829469145882028e+00 1.447486638906303469e-02
3.839443554168536139e+03 1.775069651896802547e+00 1.486916955883795660e-02
3.843282997722705659e+03 1.766726361552547919e+00 1.518441859814127250e-02
3.847126280720429804e+03 1.766766982704608857e+00 1.591862911933262723e-02
3.850973407001151372e+03 1.760917196422123299e+00 1.546125560577833041e-02
3.854824380408153957e+03 1.752499655130377976e+00 1.492378043128735933e-02
3.858679204788563311e+03 1.746555810947835852e+00 1.497749774688373996e-02
3.862537883993353262e+03 1.746522069664542931e+00 1.452027274175449710e-02
3.866400421877347981e+03 1.749246000633766451e+00 1.448199020031348989e-02
3.870266822299226533e+03 1.750362627320255049e+00 1.416653252399642515e-02
3.874137089121526969e+03 1.756933896739591994e+00 1.587829747888533025e-02
3.878011226210649966e+03 1.759450899308945715e+00 1.692449499412699426e-02
3.881889237436861549e+03 1.751801437989950250e+00 1.701247334503716915e-02
3.885771126674299921e+03 1.740572844358031501e+00 1.632232255100065851e-02
3.889656897800975457e+03 1.728770117049991617e+00 1.557298757031691343e-02
3.893546554698777527e+03 1.705822328708496372e+00 1.716433330111035577e-02
3.897440101253477678e+03 1.677053207985408800e+00 1.400180786797402231e-02
3.901337541354732366e+03 1.667179270636881538e+00 1.460499037360854860e-02
3.905238878896088409e+03 1.662302888500506892e+00 1.555327612084131915e-02
3.909144117774985716e+03 1.658854081382299839e+00 1.534653039555759421e-02
3.913053261892762293e+03 1.651894542674693822e+00 1.495392761211023630e-02
3.916966315154656058e+03 1.649903468118958605e+00 1.492479464606191568e-02
3.920883281469812118e+03 1.656475434274632619e+00 1.382182571319250791e-02
3.924804164751283224e+03 1.667228063768302571e+00 1.278207170117800009e-02
3.928728968916035683e+03 1.680370077907518578e+00 1.249600572847599234e-02
3.932657697884953450e+03 1.684760552282347001e+00 1.272908620975561796e-02
3.936590355582839493e+03 1.684262723405780982e+00 1.185343580279385467e-02
3.940526945938423523e+03 1.690780240456682071e+00 1.391214698335830821e-02
3.944467472884363360e+03 1.691706342281547482e+00 1.512984371298807182e-02
3.948411940357249023e+03 1.688901041923768442e+00 1.444421334435602895e-02
3.952360352297607733e+03 1.685948447093925440e+00 1.331373538866300645e-02
3.956312712649906643e+03 1.679997036025809187e+00 1.246145053630725273e-02
3.960269025362557841e+03 1.662909282179869441e+00 1.508036118032367312e-02
3.964229294387921527e+03 1.644701452762325600e+00 1.725454481223998721e-02
3.968193523682310570e+03 1.631495174100482615e+00 1.505459884630885523e-02
3.972161717205994591e+03 1.622048117037253379e+00 1.442835609453356829e-02
3.976133878923201792e+03 1.615362692051407034e+00 1.462774532989221353e-02
3.980110012802126221e+03 1.616573147815565603e+00 1.434409184735787983e-02
3.984090122814929600e+03 1.624254861933985605e+00 1.473637910917262143e-02
3.988074212937745870e+03 1.628061327818400406e+00 1.416934135362189588e-02
3.992062287150684824e+03 1.629695787036506971e+00 1.412698092231875341e-02
3.996054349437837118e+03 1.631216556284957653e+00 1.405739076628289078e-02
4.000050403787276082e+03 1.630350736096843889e+00 1.403254724099454488e-02
4.004050454191064546e+03 1.625125709166678867e+00 1.433450313455263657e-02
4.008054504645257111e+03 1.613472875138485474e+00 1.243495118233379701e-02
4.012062559149903791e+03 1.601054075743311600e+00 1.102413414097331429e-02
4.016074621709055009e+03 1.596406650761384993e+00 1.037849550535628607e-02
4.020090696330765240e+03 1.592802369422410713e+00 1.054356051553303510e-02
4.024110787027097558e+03 1.588011874098643084e+00 1.015542638084231813e-02
4.028134897814125907e+03 1.584449052313658290e+00 9.191316128476893776e-03
4.032163032711941469e+03 1.581890252614110315e+00 8.146369080837396331e-03
4.036195195744654484e+03 1.568492458260189126e+00 8.519574476406709465e-03
4.040231390940400615e+03 1.554875546834294742e+00 8.656671792071659460e-03
4.044271622331342314e+03 1.551227622848097454e+00 8.626329503660984735e-03
4.048315893953675186e+03 1.557355185615994619e+00 1.064526891358139223e-02
4.052364209847629809e+03 1.559564922242633322e+00 1.114408231775780404e-02
4.056416574057479011e+03 1.564599633055539840e+00 1.202462262870630447e-02
4.060472990631537868e+03 1.568526277044206774e+00 1.058847797943408310e-02
4.064533463622170530e+03 1.565750688640920929e+00 1.061136676981453558e-02
4.068597997085794304e+03 1.552862191269512193e+00 1.304042634281914539e-02
4.072666595082881486e+03 1.553149820360266498e+00 1.300983674731738017e-02
4.076739261677965715e+03 1.553233525158437933e+00 1.295207844387709362e-02
4.080816000939644709e+03 1.552651766778558207e+00 1.263697443316281858e-02
4.084896816940585722e+03 1.554326811040271927e+00 1.269491307365152970e-02
4.088981713757527814e+03 1.553254096082859137e+00 1.247454755656735026e-02
4.093070695471286854e+03 1.552346345608596190e+00 1.211153348550406995e-02
4.097163766166759160e+03 1.558795478190986517e+00 1.341942210342816390e-02
4.101260929932927866e+03 1.563796026411889750e+00 1.425974621977632757e-02
4.105362190862862008e+03 1.568380613113841582e+00 1.192672264728273160e-02
4.109467553053726078e+03 1.553181853076834429e+00 1.357924650901455067e-02
4.113577020606780934e+03 1.535262642643383524e+00 1.394207851149864910e-02
4.117690597627389252e+03 1.514576690899744893e+00 1.122353773638990956e-02
4.121808288225018259e+03 1.497363216241323514e+00 9.951568193994786427e-03
4.125930096513244280e+03 1.484796820290779307e+00 1.059981896488618527e-02
4.130056026609759101e+03 1.471452172833722649e+00 1.061788571093354692e-02
4.134186082636369974e+03 1.464103056143412518e+00 1.034761274171977670e-02
4.138320268719007800e+03 1.456386410831928879e+00 1.020468947577790435e-02
4.142458588987728035e+03 1.450858048011704593e+00 1.038396031612575689e-02
4.146601047576717065e+03 1.445548476951198147e+00 9.414857595867347217e-03
4.150747648624294925e+03 1.447951090141323949e+00 9.961252602744177786e-03
4.154898396272920763e+03 1.451364465893938416e+00 1.096518344267674236e-02
4.159053294669195566e+03 1.446265184498957801e+00 1.095510991677683607e-02
4.163212347963865795e+03 1.434874437468862007e+00 1.220996910158287513e-02
4.167375560311830668e+03 1.422388208974635582e+00 1.159125696496289201e-02
4.171542935872143971e+03 1.414881369223936813e+00 1.129516252562348493e-02
4.175714478808017702e+03 1.415599286722755590e+00 1.147657664996420447e-02
4.179890193286827525e+03 1.413885530322846584e+00 1.089675608867415012e-02
4.184070083480115500e+03 1.411309718525993961e+00 1.044592782732533046e-02
4.188254153563597356e+03 1.403379972774170481e+00 1.071344525357925681e-02
4.192442407717161586e+03 1.392971988243165926e+00 1.054460625152497943e-02
4.196634850124880359e+03 1.388463466499547216e+00 1.050893180096591252e-02
4.200831484975006788e+03 1.389571496162172126e+00 1.032776193905097367e-02
4.205032316459983122e+03 1.391262920927460955e+00 1.003123942119925859e-02
4.209237348776444378e+03 1.390851358536746574e+00 1.006992353133164854e-02
4.213446586125221984e+03 1.390799957544342380e+00 1.013811008616263484e-02
4.217660032711349231e+03 1.395482619020507631e+00 1.228547238452449251e-02
4.221877692744061278e+03 1.390681530952129652e+00 1.360348356290603904e-02
4.226099570436806971e+03 1.375085541269494227e+00 1.373528908831809711e-02
4.230325670007245208e+03 1.355895774393806263e+00 1.407601548935376139e-02
4.234555995677254032e+03 1.342304088559858055e+00 1.414550372103107710e-02
4.238790551672932452e+03 1.315830746420791453e+00 1.601652138433390035e-02
4.243029342224606808e+03 1.290284752342313990e+00 1.505838874713508885e-02
4.247272371566832589e+03 1.275823585274592054e+00 1.321702240325911028e-02
4.251519643938400804e+03 1.271180883766052983e+00 1.334736807537732772e-02
