# starting wavelength: 4672.530
# ending wavelength: 9787.110
# wav flux eflux
4.674999304396286789e+03 2.600362070046644547e+00 2.397211657711631472e-01
4.679674303700684504e+03 2.582996622753101157e+00 1.745603127343365313e-01
4.684353978004386590e+03 2.527415503246468464e+00 1.310356516908819657e-01
4.689038331982392265e+03 2.435674004486598765e+00 1.029210538241094736e-01
4.693727370314376458e+03 2.334628084680070437e+00 8.306985059413299344e-02
4.698421097684692540e+03 2.250852370584178530e+00 6.631964177463338384e-02
4.703119518782378691e+03 2.180676793630779375e+00 5.328179727244904823e-02
4.707822638301162442e+03 2.119489618795797448e+00 4.388190684800901548e-02
4.712530460939465229e+03 2.070056858192454108e+00 3.679398352595822375e-02
4.717242991400406027e+03 2.033769924308947541e+00 3.165867348784377061e-02
4.721960234391808626e+03 2.012994579794514127e+00 2.821930412633423188e-02
4.726682194626201635e+03 1.997564102748613291e+00 2.525386042121839994e-02
4.731408876820829391e+03 1.992140744676107023e+00 2.319635678471326096e-02
4.736140285697651962e+03 1.997259959930293816e+00 2.203014409165840459e-02
4.740876425983350600e+03 2.005689180434851782e+00 2.120537175637804417e-02
4.745617302409335934e+03 2.009618881603511653e+00 2.026590719576734645e-02
4.750362919711747054e+03 2.002302464706429586e+00 1.961806656479704938e-02
4.755113282631459697e+03 1.995593935938631880e+00 1.912996752101944406e-02
4.759868395914093526e+03 1.993719622442033268e+00 1.862776479713531413e-02
4.764628264310008490e+03 2.009627763679527224e+00 1.617547530564728692e-02
4.769392892574320285e+03 2.025377680479891307e+00 1.347088088051349476e-02
4.774162285466896719e+03 2.009724029853064309e+00 1.302502146936972659e-02
4.778936447752364984e+03 1.979890704937424806e+00 1.275886055615706345e-02
4.783715384200118933e+03 1.958049416590397218e+00 1.309381736418653228e-02
4.788499099584319993e+03 1.943316244640422408e+00 1.322601085370486360e-02
4.793287598683906253e+03 1.926616559231112191e+00 1.325283168888289655e-02
4.798080886282591564e+03 1.896411035204119688e+00 1.284901546872802697e-02
4.802878967168876443e+03 1.853290178599078519e+00 1.359852461916172088e-02
4.807681846136046261e+03 1.821713590894040946e+00 1.397167168404037443e-02
4.812489527982183972e+03 1.806027486282973049e+00 1.399349407029967449e-02
4.817302017510168298e+03 1.796658435829090905e+00 1.416461723899987805e-02
4.822119319527679181e+03 1.789912392516290085e+00 1.430056434946857212e-02
4.826941438847208701e+03 1.780678667831763651e+00 1.405657384347723700e-02
4.831768380286057436e+03 1.780845004260335207e+00 1.337958303842568322e-02
4.836600148666345376e+03 1.804477930411163333e+00 1.325892630561494728e-02
4.841436748815013743e+03 1.844327711614502485e+00 1.319032451487102062e-02
4.846278185563829538e+03 1.881469074929387197e+00 1.216801148241955510e-02
4.851124463749395545e+03 1.932289212710705417e+00 1.208716472213134177e-02
4.855975588213146693e+03 2.004267322520255412e+00 1.206379425289614768e-02
4.860831563801360971e+03 2.081913618336969307e+00 1.235056124464456104e-02
4.865692395365163975e+03 2.162022170629806617e+00 1.329744832147621882e-02
4.870558087760530725e+03 2.239564842787688193e+00 1.437167660657939078e-02
4.875428645848292945e+03 2.318383350337566373e+00 1.484789790383340968e-02
4.880304074494142696e+03 2.389915676419640977e+00 1.489536029305775500e-02
4.885184378568638749e+03 2.461961573243927948e+00 1.489517423653089270e-02
4.890069562947209306e+03 2.514469829630055830e+00 1.475361494512106297e-02
4.894959632510157462e+03 2.555325780997263152e+00 1.281321556064144752e-02
4.899854592142669389e+03 2.574847039565792972e+00 1.118332721837163660e-02
4.904754446734813428e+03 2.556794364253303087e+00 1.314593660758865343e-02
4.909659201181550088e+03 2.520148113985645200e+00 1.374489272522015464e-02
4.914568860382732964e+03 2.474737874932782411e+00 1.421298421486955586e-02
4.919483429243117826e+03 2.421998116275048574e+00 1.489927241713126863e-02
4.924402912672362618e+03 2.346481894988905470e+00 1.704845598937481874e-02
4.929327315585036558e+03 2.266802126390811800e+00 1.812571687266124193e-02
4.934256642900622865e+03 2.189541574168325955e+00 1.493227041249637482e-02
4.939190899543525120e+03 2.141186529721077925e+00 1.400220577885465459e-02
4.944130090443070912e+03 2.113809840088582526e+00 1.420431009889793449e-02
4.949074220533515472e+03 2.091114094931737721e+00 1.402957993937740434e-02
4.954023294754050767e+03 2.072654960530945445e+00 1.239495159065898480e-02
4.958977318048806410e+03 2.083268360614862758e+00 1.250112081354736587e-02
4.963936295366856939e+03 2.118387606915366206e+00 1.206975394711980523e-02
4.968900231662225451e+03 2.163640955538844945e+00 1.186655026436578102e-02
4.973869131893889062e+03 2.221306945582328218e+00 1.201236111269072572e-02
4.978843001025784361e+03 2.291933822022397482e+00 1.229696361882204846e-02
4.983821844026811959e+03 2.361265529911259708e+00 1.153648668895428976e-02
4.988805665870840130e+03 2.432147351772112387e+00 1.070970388991591103e-02
4.993794471536712990e+03 2.494590881234213242e+00 1.145148006310503508e-02
4.998788266008251412e+03 2.529364572419812163e+00 1.184313501529207086e-02
5.003787054274261209e+03 2.539547080290884828e+00 1.366704219714040200e-02
5.008790841328536771e+03 2.541829250751239666e+00 1.406809766124765548e-02
5.013799632169867436e+03 2.533325503734407569e+00 1.393994865372515796e-02
5.018813431802038394e+03 2.511037704833773976e+00 1.370066910532964817e-02
5.023832245233842514e+03 2.490054965944771936e+00 1.403058607204810126e-02
5.028856077479077612e+03 2.458954934383073443e+00 1.443492239159317563e-02
5.033884933556558281e+03 2.405226261131503840e+00 1.459813368320849077e-02
5.038918818490116792e+03 2.327562983844202904e+00 1.525001787371453414e-02
5.043957737308608557e+03 2.252479183822318820e+00 1.626281013961348304e-02
5.049001695045918495e+03 2.188460792582460623e+00 1.634743619007161808e-02
5.054050696740966487e+03 2.123816667560912474e+00 1.639673615821908223e-02
5.059104747437709193e+03 2.049652350440185788e+00 1.494441842151274930e-02
5.064163852185148244e+03 1.993037131668594419e+00 1.486092197911447095e-02
5.069228016037335692e+03 1.955051390563414593e+00 1.428544889949553455e-02
5.074297244053374015e+03 1.921956897563315447e+00 1.423330481710166975e-02
5.079371541297429758e+03 1.897411294342844945e+00 1.451367573192942177e-02
5.084450912838728073e+03 1.885468008695813769e+00 1.479149404658274859e-02
5.089535363751569093e+03 1.884595665282193355e+00 1.544705055819994496e-02
5.094624899115322478e+03 1.902022467146093021e+00 1.620852566325438338e-02
5.099719524014439230e+03 1.960973509750939758e+00 1.589538989641689146e-02
5.104819243538455339e+03 2.064585804374602152e+00 1.619351059977595930e-02
5.109924062781995417e+03 2.198128421021359635e+00 1.666673726888993207e-02
5.115033986844779065e+03 2.371895411080130245e+00 1.612750315168245269e-02
5.120149020831625421e+03 2.546510452983516526e+00 1.575397787654661888e-02
5.125269169852458617e+03 2.721533887246561090e+00 1.520381355793036342e-02
5.130394439022313236e+03 2.927568200703253076e+00 1.597234475767859638e-02
5.135524833461337039e+03 3.135076167615744591e+00 1.675625408810575701e-02
5.140660358294800062e+03 3.336898687289876708e+00 1.414123463074765628e-02
5.145801018653096435e+03 3.511905657542655934e+00 9.437562295598295875e-03
5.150946819671751655e+03 3.643203323281487549e+00 8.635900798896822134e-03
5.156097766491425318e+03 3.719208935404419325e+00 7.981264522009402784e-03
5.161253864257918394e+03 3.756237792977687562e+00 7.647650885785065716e-03
5.166415118122177773e+03 3.755341333847053598e+00 8.039305815907985334e-03
5.171581533240301724e+03 3.711150242073150807e+00 9.016789861761902170e-03
5.176753114773543530e+03 3.640917011685196769e+00 1.081676164156731082e-02
5.181929867888318768e+03 3.558492320406168030e+00 1.112551339789766107e-02
5.187111797756208944e+03 3.486123208801044537e+00 1.098216685011907563e-02
5.192298909553966951e+03 3.418243051480947425e+00 1.112187422208319419e-02
5.197491208463522526e+03 3.340452343317024564e+00 1.094966355415909198e-02
5.202688699671987706e+03 3.262346406761747364e+00 9.450407821473360767e-03
5.207891388371661378e+03 3.230528528132188271e+00 9.339935924543267196e-03
5.213099279760034733e+03 3.235406391219994404e+00 1.012877485652616955e-02
5.218312379039796724e+03 3.266106358544159871e+00 1.238349243715274918e-02
5.223530691418837705e+03 3.297691440787253736e+00 1.291748656125032285e-02
5.228754222110258524e+03 3.320641886831781964e+00 1.262016578750817589e-02
5.233982976332370527e+03 3.343823330919729386e+00 1.221031619892071554e-02
5.239216959308704645e+03 3.362250826189366215e+00 1.160780860148826789e-02
5.244456176268015042e+03 3.367183491846398979e+00 1.161144992476975148e-02
5.249700632444284565e+03 3.346513305131940896e+00 1.154791642759162192e-02
5.254950333076731113e+03 3.306586939245207191e+00 1.209801294779327616e-02
5.260205283409809454e+03 3.254384699510758594e+00 1.273497828026303770e-02
5.265465488693221232e+03 3.197497011219287977e+00 1.287471649216452227e-02
5.270730954181915877e+03 3.131956492085690158e+00 1.232335252022827288e-02
5.276001685136099695e+03 3.052589843900726407e+00 1.096924590723713858e-02
5.281277686821237694e+03 2.980795264968045366e+00 1.022043638412087167e-02
5.286558964508059944e+03 2.933525445927152031e+00 1.016424671406418456e-02
5.291845523472569766e+03 2.891455886905823114e+00 8.615529387235148703e-03
5.297137368996044643e+03 2.841922169411486898e+00 8.534036112850843306e-03
5.302434506365042580e+03 2.787717038513006784e+00 8.001131219716088941e-03
5.307736940871409388e+03 2.740240554705951848e+00 8.355073416557222063e-03
5.313044677812282316e+03 2.700079741324352245e+00 9.412821454472265412e-03
5.318357722490096421e+03 2.656604161608757231e+00 7.696186862535243575e-03
5.323676080212588204e+03 2.592638946731118832e+00 7.935406878316455040e-03
5.328999756292802886e+03 2.517361728357910167e+00 8.246115200957736605e-03
5.334328756049097137e+03 2.438007691838768309e+00 7.696005626325956930e-03
5.339663084805148173e+03 2.359408833875211720e+00 7.554722198113440410e-03
5.345002747889954662e+03 2.285767228979274091e+00 7.848920504033463086e-03
5.350347750637846730e+03 2.223878429752573105e+00 7.843783625613262589e-03
5.355698098388485960e+03 2.160616434649020423e+00 7.373199342136049945e-03
5.361053796486876308e+03 2.106259869977165966e+00 7.197812546016401844e-03
5.366414850283365013e+03 2.067774342457441072e+00 8.058658972090963074e-03
5.371781265133649867e+03 2.037354180315389840e+00 8.071519120727781160e-03
5.377153046398785591e+03 2.002151274828535055e+00 7.870400690318250098e-03
5.382530199445186554e+03 1.961607201817925139e+00 7.528241768576677748e-03
5.387912729644633146e+03 1.917840967232113281e+00 7.123837599804849936e-03
5.393300642374279960e+03 1.868295982029950064e+00 7.297841293089895459e-03
5.398693943016655794e+03 1.813876212400173937e+00 7.065645999921961809e-03
5.404092636959673655e+03 1.747130163524508006e+00 6.774589217774919757e-03
5.409496729596635305e+03 1.676958568220511259e+00 6.973270210829491181e-03
5.414906226326233991e+03 1.616004269672095095e+00 7.100310487776779339e-03
5.420321132552561721e+03 1.560462811934694605e+00 7.020911013323317615e-03
5.425741453685116539e+03 1.503786795274418386e+00 6.435066897879052929e-03
5.431167195138803436e+03 1.460386210719859301e+00 6.465469976400058626e-03
5.436598362333943442e+03 1.432504399751249879e+00 6.724642438878781700e-03
5.442034960696279086e+03 1.408456073103417472e+00 6.922102339739115602e-03
5.447476995656978033e+03 1.381466660121200007e+00 6.922653674246807658e-03
5.452924472652636723e+03 1.354561687974821016e+00 6.885802305130338426e-03
5.458377397125291282e+03 1.328494322111461567e+00 7.157582558822074559e-03
5.463835774522417523e+03 1.302698473560513381e+00 6.830549646721089004e-03
5.469299610296941864e+03 1.292090445596321802e+00 6.793253001203734993e-03
5.474768909907241323e+03 1.288397984063576640e+00 6.940874408931652952e-03
5.480243678817149885e+03 1.292452969709921407e+00 6.833709214034035598e-03
5.485723922495968509e+03 1.301895787031101870e+00 6.413652954491257455e-03
5.491209646418466946e+03 1.322003610961885123e+00 6.835633263995469396e-03
5.496700856064887375e+03 1.352981519024489154e+00 8.346926547497229149e-03
5.502197556920953502e+03 1.384368643224633377e+00 6.459406539314218286e-03
5.507699754477876013e+03 1.405971049751652435e+00 6.326583065409430683e-03
5.513207454232356213e+03 1.422779123348651087e+00 6.801641162482430052e-03
5.518720661686590574e+03 1.441359443277563601e+00 6.759158084008601644e-03
5.524239382348278923e+03 1.449399038568409903e+00 6.863590148910869888e-03
5.529763621730628984e+03 1.447420047956971656e+00 6.404036678248273620e-03
5.535293385352360929e+03 1.437806180258700328e+00 5.916946171993767503e-03
5.540828678737715563e+03 1.422369438596465585e+00 5.949678835746822353e-03
5.546369507416455235e+03 1.410360779751405946e+00 6.234658379466009523e-03
5.551915876923872929e+03 1.397394263058701291e+00 6.879741556143490616e-03
5.557467792800798634e+03 1.371932665902523718e+00 6.812771381746459548e-03
5.563025260593602070e+03 1.333065994626353223e+00 6.474868209649381999e-03
5.568588285854197238e+03 1.283103543800719448e+00 6.367489134373513666e-03
5.574156874140053333e+03 1.217557607886333715e+00 7.231027129246228417e-03
5.579731031014194741e+03 1.139818759635293777e+00 8.932878616191715707e-03
5.585310762045211050e+03 1.068740604694108365e+00 8.412497216871015621e-03
5.590896072807257951e+03 1.010504472686654998e+00 7.613289409027323811e-03
5.596486968880067252e+03 9.643515676277505388e-01 7.452370882196127609e-03
5.602083455848949598e+03 9.419956045914141818e-01 7.372974932697970094e-03
5.607685539304799931e+03 9.306670139096241412e-01 7.276631694373932036e-03
5.613293224844106589e+03 9.278024604321768454e-01 7.002963583754492731e-03
5.618906518068952209e+03 9.511506719103857144e-01 7.674894244872864854e-03
5.624525424587023736e+03 9.916410284230043892e-01 7.262038345630662285e-03
5.630149950011612418e+03 1.036625654745388259e+00 6.870690576415834812e-03
5.635780099961625638e+03 1.079017486147081151e+00 6.300589738069322342e-03
5.641415880061589633e+03 1.113511408084882470e+00 5.814768686450755286e-03
5.647057295941652228e+03 1.134371675881768127e+00 5.594441124760148737e-03
5.652704353237596479e+03 1.138999428904226896e+00 5.948349472234046482e-03
5.658357057590835211e+03 1.141960406594944244e+00 6.592879753671510891e-03
5.664015414648428305e+03 1.143438206961967296e+00 6.402896889468862214e-03
5.669679430063079053e+03 1.144831029245399368e+00 6.577511975587176443e-03
5.675349109493143260e+03 1.142783874551154044e+00 6.607238819827263888e-03
5.681024458602638333e+03 1.128643783558266334e+00 6.550430963119550573e-03
5.686705483061243285e+03 1.104707416093994476e+00 6.015069605790596997e-03
5.692392188544306009e+03 1.086422247034844801e+00 6.206011440099276459e-03
5.698084580732852373e+03 1.067380620358073573e+00 5.167844986436883996e-03
5.703782665313587131e+03 1.035569947481411068e+00 5.192335475119328608e-03
5.709486447978903016e+03 1.000691986188117166e+00 5.147115713689174449e-03
5.715195934426883468e+03 9.602994672357987316e-01 5.118421623947477621e-03
5.720911130361312644e+03 9.125419951275115515e-01 4.585385647851801701e-03
5.726632041491675409e+03 8.605686701580999021e-01 4.735741724999452743e-03
5.732358673533169167e+03 8.092898217213843060e-01 4.813968586076145147e-03
5.738091032206703858e+03 7.626131196354861697e-01 4.870390734094808861e-03
5.743829123238912871e+03 7.274866051733145378e-01 4.950180862112236839e-03
5.749572952362153046e+03 7.053880225989025421e-01 5.460781788683552983e-03
5.755322525314517407e+03 6.935273183564170107e-01 5.343837090600842520e-03
5.761077847839834249e+03 6.799124911196849919e-01 5.360316697090584427e-03
5.766838925687675328e+03 6.638918602000773994e-01 5.330591659875371334e-03
5.772605764613364954e+03 6.530773487963108526e-01 5.312161649818884605e-03
5.778378370377980900e+03 6.500487202370945905e-01 5.067556390514663112e-03
5.784156748748360769e+03 6.510249222509012501e-01 5.094544688569535053e-03
5.789940905497111089e+03 6.521599126151110815e-01 5.130863633087817677e-03
5.795730846402610041e+03 6.608348540320050368e-01 5.044142013204122414e-03
5.801526577249013826e+03 6.813903444462644510e-01 5.094621881240155199e-03
5.807328103826264851e+03 7.124577161627654309e-01 4.929498316772517978e-03
5.813135431930093546e+03 7.514950282394322612e-01 4.888311691012577238e-03
5.818948567362025642e+03 7.984372285142983250e-01 4.962560269797485109e-03
5.824767515929389447e+03 8.540223599605405447e-01 4.869710079491700733e-03
5.830592283445320390e+03 9.284843898656061079e-01 4.248637140006785232e-03
5.836422875728768304e+03 9.965259221288882419e-01 3.944096420169770738e-03
5.842259298604498326e+03 1.059671585723354958e+00 4.196679091152322703e-03
5.848101557903105459e+03 1.123457081746607855e+00 4.173879605063971279e-03
5.853949659461010015e+03 1.180762864446039950e+00 4.337044854394709464e-03
5.859803609120473084e+03 1.234898145118629831e+00 4.582748495354326337e-03
5.865663412729595620e+03 1.273691857062155153e+00 4.533433607110948227e-03
5.871529076142326630e+03 1.301386191667100567e+00 4.456065642558222281e-03
5.877400605218471355e+03 1.320048820106515253e+00 4.531772371785973419e-03
5.883278005823691274e+03 1.318177169769612522e+00 4.778707400467097945e-03
5.889161283829516833e+03 1.301269470720602728e+00 5.541384429458407097e-03
5.895050445113348360e+03 1.277726594537145655e+00 5.846819115333134163e-03
5.900945495558464245e+03 1.244990317214270004e+00 5.855587172883581354e-03
5.906846441054024581e+03 1.210996865549780033e+00 5.527177669808380073e-03
5.912753287495080258e+03 1.181465224338219544e+00 4.663318559253657770e-03
5.918666040782577511e+03 1.166172140440966620e+00 5.228513646013975558e-03
5.924584706823361557e+03 1.159560266885228286e+00 6.023977297619161758e-03
5.930509291530187511e+03 1.152571562362618041e+00 6.465416228668430416e-03
5.936439800821719473e+03 1.141350235268625779e+00 6.572723548009878729e-03
5.942376240622543264e+03 1.129193486706598692e+00 5.035586166297734145e-03
5.948318616863167335e+03 1.105522395525739388e+00 4.546275600234487776e-03
5.954266935480032771e+03 1.067986801267660102e+00 4.645361476274412031e-03
5.960221202415515108e+03 1.024510388984434694e+00 4.766164181347885311e-03
5.966181423617932523e+03 9.726714350968442835e-01 5.213873096593730355e-03
5.972147605041552197e+03 9.136520063571091921e-01 5.487093984114937290e-03
5.978119752646595771e+03 8.559615375035277696e-01 4.491178669212900557e-03
5.984097872399243897e+03 8.016493417744858796e-01 4.243511972628303576e-03
5.990081970271645332e+03 7.560832687223524307e-01 4.427330132664870563e-03
5.996072052241918755e+03 7.095187983954991395e-01 4.224875494389212192e-03
6.002068124294162772e+03 6.627420816908546897e-01 4.128191072833040619e-03
6.008070192418459555e+03 6.212283697562254181e-01 3.762276414037830658e-03
6.014078262610879392e+03 5.813068490806656552e-01 3.901188187459433705e-03
6.020092340873492503e+03 5.426829456204267377e-01 3.893344136859183246e-03
6.026112433214368139e+03 5.090976145173564671e-01 3.350829275651211973e-03
6.032138545647584579e+03 4.832333717306405152e-01 3.284595607260911657e-03
6.038170684193233683e+03 4.649899592941399984e-01 3.299833164394309643e-03
6.044208854877429076e+03 4.559386352094819683e-01 3.550593632770002520e-03
6.050253063732308874e+03 4.541852014272188542e-01 3.663507862902819819e-03
6.056303316796042964e+03 4.531050037286646903e-01 3.682318766146682083e-03
6.062359620112841185e+03 4.582789758326126783e-01 3.738323757771738580e-03
6.068421979732956061e+03 4.706229880003617860e-01 3.838858699626115836e-03
6.074490401712690982e+03 4.893894327145814072e-01 3.890073356447512100e-03
6.080564892114405666e+03 5.108593934470029296e-01 3.636999896798936028e-03
6.086645457006521610e+03 5.331582022141013733e-01 2.513156160288719260e-03
