# starting wavelength: 3690.150
# ending wavelength: 7537.170
# wav flux eflux
3.692659519139885560e+03 1.511277824856137042e-01 1.511114514365808903e-01
3.696352178659026777e+03 1.298721421424663680e-01 1.115685652644174408e-01
3.700048530837686940e+03 1.232138079022893351e-01 8.360235723266877528e-02
3.703748579368525952e+03 1.250657668870238659e-01 6.376307251981086499e-02
3.707452327947895355e+03 1.286093704483057265e-01 4.991416668097178877e-02
3.711159780275844696e+03 1.408723966924598781e-01 3.961006249956641051e-02
3.714870940056121526e+03 1.584954177945950560e-01 3.211013041135559604e-02
3.718585810996179134e+03 1.801309436403731867e-01 2.762806695759842737e-02
3.722304396807176545e+03 1.992892215346582785e-01 2.428776060485034541e-02
3.726026701203984885e+03 2.183126724006552166e-01 2.148906938733000441e-02
3.729752727905190113e+03 2.403387305693445719e-01 1.919244758582030336e-02
3.733482480633096657e+03 2.580162600306320497e-01 1.721266280015549058e-02
3.737215963113731050e+03 2.725169711575460285e-01 1.576143976341581529e-02
3.740953179076846027e+03 2.764549203864475335e-01 1.495182062595554542e-02
3.744694132255923705e+03 2.766789804435656475e-01 1.436396012311045092e-02
3.748438826388181042e+03 2.670497784484988091e-01 1.455715392751591800e-02
3.752187265214570289e+03 2.647398709714668397e-01 1.405604842389568745e-02
3.755939452479786269e+03 2.568129529207160977e-01 1.379611502014437691e-02
3.759695391932267285e+03 2.459322829494591245e-01 1.359745043305224561e-02
3.763455087324201031e+03 2.284395503837562402e-01 1.326865355913106094e-02
3.767218542411526414e+03 2.128448000023307196e-01 1.322860147755049176e-02
3.770985760953939007e+03 1.883810711921241055e-01 1.438123662111956587e-02
3.774756746714894234e+03 1.794917499605391542e-01 1.447434120372156213e-02
3.778531503461610555e+03 1.647611519735187602e-01 1.421366448848161365e-02
3.782310034965073100e+03 1.545191252059848475e-01 1.432753378135481412e-02
3.786092345000039586e+03 1.436793330752557662e-01 1.443735559741940629e-02
3.789878437345040766e+03 1.377555384318968901e-01 1.443857845033663136e-02
3.793668315782387253e+03 1.316417146227047141e-01 1.449687685086531452e-02
3.797461984098170888e+03 1.263596924089425699e-01 1.463141446856382200e-02
3.801259446082270188e+03 1.251037266135157366e-01 1.434091988163051744e-02
3.805060705528353537e+03 1.142312066627989009e-01 1.352910672685730259e-02
3.808865766233883278e+03 1.148072861880981288e-01 1.348725628160804199e-02
3.812674632000118436e+03 1.157870341528970254e-01 1.290378227730859181e-02
3.816487306632119726e+03 1.206974421404359288e-01 1.257751165774498824e-02
3.820303793938753188e+03 1.263452163942814233e-01 1.215732978410733432e-02
3.824124097732693372e+03 1.230529752162369261e-01 1.173226972752085089e-02
3.827948221830427428e+03 1.239321194915935231e-01 1.153870544288218905e-02
3.831776170052258749e+03 1.259770083163849752e-01 1.128440824097276703e-02
3.835607946222312421e+03 1.270048210743957295e-01 1.126588460043120854e-02
3.839443554168536139e+03 1.311831210671678405e-01 1.124416918677856141e-02
3.843282997722705659e+03 1.348529071655309441e-01 1.133299974713308789e-02
3.847126280720429804e+03 1.396521025309891972e-01 1.139415604719577410e-02
3.850973407001151372e+03 1.374535003960521695e-01 1.022615219463778730e-02
3.854824380408153957e+03 1.449414789004273285e-01 9.980311857671094258e-03
3.858679204788563311e+03 1.596119863973958219e-01 9.134604584138316871e-03
3.862537883993353262e+03 1.726570503241154075e-01 9.124141346541526920e-03
3.866400421877347981e+03 1.860846182571544161e-01 9.152429268700993867e-03
3.870266822299226533e+03 1.994529020976253120e-01 9.155286733157059695e-03
3.874137089121526969e+03 2.130777872681614005e-01 9.249598636183395395e-03
3.878011226210649966e+03 2.339411622664253065e-01 8.777851699089123105e-03
3.881889237436861549e+03 2.471860301110239966e-01 8.806973343346090333e-03
3.885771126674299921e+03 2.587021066139000292e-01 8.720681268463426061e-03
3.889656897800975457e+03 2.671480067941320868e-01 8.470347638651931285e-03
3.893546554698777527e+03 2.709117651715982622e-01 7.806467644928028610e-03
3.897440101253477678e+03 2.877234696071203079e-01 5.190501241229487916e-03
3.901337541354732366e+03 2.952123097608123081e-01 5.620757291370046677e-03
3.905238878896088409e+03 3.010178061345206713e-01 5.578080854928291372e-03
3.909144117774985716e+03 3.114548872859719264e-01 5.579797614415823830e-03
3.913053261892762293e+03 3.217620030631802575e-01 5.642877611815398826e-03
3.916966315154656058e+03 3.289635557237697294e-01 5.610342533555199955e-03
3.920883281469812118e+03 3.392778257141165210e-01 5.695361260598635900e-03
3.924804164751283224e+03 3.458233326492249349e-01 5.811127268275465343e-03
3.928728968916035683e+03 3.509814745341257591e-01 5.705246365039260727e-03
3.932657697884953450e+03 3.576803099157420673e-01 5.740556891447449669e-03
3.936590355582839493e+03 3.635051283112336606e-01 5.804088127621754092e-03
3.940526945938423523e+03 3.704942035881453322e-01 5.836742748190783432e-03
3.944467472884363360e+03 3.783587276460014803e-01 5.803342894731312006e-03
3.948411940357249023e+03 3.857726073342692685e-01 5.961219146331638019e-03
3.952360352297607733e+03 3.931878384220836575e-01 6.204071265615761395e-03
3.956312712649906643e+03 4.038873717135301744e-01 6.255772533781765038e-03
3.960269025362557841e+03 4.121824708118551617e-01 6.100208839050288642e-03
3.964229294387921527e+03 4.222267961720304053e-01 5.761726792891338524e-03
3.968193523682310570e+03 4.339825757366367331e-01 5.195297274192658792e-03
3.972161717205994591e+03 4.497938306098354655e-01 5.262026394460588702e-03
3.976133878923201792e+03 4.686115493906336527e-01 5.290544717724119175e-03
3.980110012802126221e+03 4.875476458114283429e-01 5.312034583823445517e-03
3.984090122814929600e+03 5.136070173330644639e-01 5.042892004646475253e-03
3.988074212937745870e+03 5.389705947545532227e-01 5.036139057447666656e-03
3.992062287150684824e+03 5.630329709637920121e-01 4.477289994432302744e-03
3.996054349437837118e+03 5.847202739274888206e-01 4.212455928081729889e-03
4.000050403787276082e+03 6.006271997279819530e-01 4.470249030876639711e-03
4.004050454191064546e+03 6.060597078576912544e-01 5.267150627349555941e-03
4.008054504645257111e+03 6.158656950571250732e-01 5.368043702484521368e-03
4.012062559149903791e+03 6.233455527572707711e-01 5.472452116988300169e-03
4.016074621709055009e+03 6.261357206836140055e-01 5.373100327328155477e-03
4.020090696330765240e+03 6.280834214835874230e-01 5.273400375672376156e-03
4.024110787027097558e+03 6.272742253559839831e-01 5.049153579955676166e-03
4.028134897814125907e+03 6.269576815046670193e-01 5.077376945405442064e-03
4.032163032711941469e+03 6.274036470487545092e-01 5.198334551445629378e-03
4.036195195744654484e+03 6.279407704537371959e-01 5.071257699518703400e-03
4.040231390940400615e+03 6.271379787015759488e-01 5.210523112656472583e-03
4.044271622331342314e+03 6.268856599794643270e-01 5.377437598592580553e-03
4.048315893953675186e+03 6.290122346878979087e-01 5.510602343523021522e-03
4.052364209847629809e+03 6.288165897257024239e-01 5.624919398484114555e-03
4.056416574057479011e+03 6.286407181728358440e-01 5.760472134201507534e-03
4.060472990631537868e+03 6.318149028838910830e-01 5.898616103631737495e-03
4.064533463622170530e+03 6.327841358833548036e-01 6.020526542436748299e-03
4.068597997085794304e+03 6.356673278141268257e-01 6.202072557818886014e-03
4.072666595082881486e+03 6.391554023159700115e-01 6.359026557896447183e-03
4.076739261677965715e+03 6.398010100882306483e-01 5.965506989499290424e-03
4.080816000939644709e+03 6.351417508488300667e-01 6.242583322702628841e-03
4.084896816940585722e+03 6.329134566853137356e-01 6.125184696344823480e-03
4.088981713757527814e+03 6.235169033294534202e-01 5.163046706517793183e-03
4.093070695471286854e+03 6.204314925650342705e-01 5.251817551477576916e-03
4.097163766166759160e+03 6.152580756480739987e-01 5.164413334586314894e-03
4.101260929932927866e+03 6.112290691192114878e-01 5.201421890361023100e-03
4.105362190862862008e+03 6.087239938537959416e-01 5.419233155458619798e-03
4.109467553053726078e+03 6.060407081300556165e-01 5.365442593937438075e-03
4.113577020606780934e+03 6.079197223736100275e-01 5.388239192349223751e-03
4.117690597627389252e+03 6.122000919885218773e-01 5.563124058091560228e-03
4.121808288225018259e+03 6.150564592966866195e-01 5.584993776614833108e-03
4.125930096513244280e+03 6.215121840841594247e-01 5.268098803405489410e-03
4.130056026609759101e+03 6.249684730343172401e-01 5.097733979523880535e-03
4.134186082636369974e+03 6.199448610274371774e-01 5.266124914285916572e-03
4.138320268719007800e+03 6.186744954215808168e-01 5.396694299939719386e-03
4.142458588987728035e+03 6.167833234618311788e-01 5.335602354122337410e-03
4.146601047576717065e+03 6.139701378960676914e-01 5.406202152758107955e-03
4.150747648624294925e+03 6.098810092518027748e-01 4.970107085148904071e-03
4.154898396272920763e+03 5.997654841591145702e-01 4.909925475521717368e-03
4.159053294669195566e+03 5.841959023861430511e-01 4.785066063782734448e-03
4.163212347963865795e+03 5.674537685380177665e-01 4.767626425281203117e-03
4.167375560311830668e+03 5.530467300922692342e-01 4.885339990011751225e-03
4.171542935872143971e+03 5.367430627971337964e-01 4.715175756433101321e-03
4.175714478808017702e+03 5.152517768118988206e-01 4.753701890490858936e-03
4.179890193286827525e+03 4.937362369200288259e-01 4.773965026015812574e-03
4.184070083480115500e+03 4.734932572988195254e-01 4.895073998887281702e-03
4.188254153563597356e+03 4.508508602799662368e-01 3.958575906898859596e-03
4.192442407717161586e+03 4.350737108602210079e-01 4.051737766199065699e-03
4.196634850124880359e+03 4.302558418712003063e-01 3.970375778822872459e-03
4.200831484975006788e+03 4.340603149364777313e-01 4.214306771880445973e-03
4.205032316459983122e+03 4.467814722263991345e-01 4.218470007893599175e-03
4.209237348776444378e+03 4.668132745968958108e-01 4.260392439474486315e-03
4.213446586125221984e+03 4.909696108612480736e-01 4.149888627227223299e-03
4.217660032711349231e+03 5.221484226207558921e-01 4.196747848149918157e-03
4.221877692744061278e+03 5.579540243590053183e-01 4.149100974235450309e-03
4.226099570436806971e+03 5.931387001156126493e-01 3.905427206976731704e-03
4.230325670007245208e+03 6.256155708595915188e-01 3.686882010449510447e-03
4.234555995677254032e+03 6.572854848547744488e-01 3.728056726061972689e-03
4.238790551672932452e+03 6.791137154196770220e-01 4.248806047891311513e-03
4.243029342224606808e+03 6.973860647254954692e-01 3.873836538759668248e-03
4.247272371566832589e+03 7.177628490296061869e-01 4.084982137372948977e-03
4.251519643938400804e+03 7.356694532326631952e-01 4.277725743703026696e-03
4.255771163582340705e+03 7.464332621707360227e-01 4.219209210198503375e-03
4.260026934745924336e+03 7.565839381747261339e-01 4.534213269104608868e-03
4.264286961680671993e+03 7.579864280901439377e-01 4.523280270906780698e-03
4.268551248642354039e+03 7.552493419700493371e-01 4.641636408922561810e-03
4.272819799890998183e+03 7.471132109689946343e-01 4.642386584917177275e-03
4.277092619690890388e+03 7.375924352489505731e-01 4.927267849721244687e-03
4.281369712310583054e+03 7.310883052062669973e-01 4.993805786491076724e-03
4.285651082022895025e+03 7.239639869401823802e-01 4.983869128892922523e-03
4.289936733104918858e+03 7.189105806261411047e-01 4.641471073184447529e-03
4.294226669838025373e+03 7.208727532442127384e-01 4.608631773022692051e-03
4.298520896507864563e+03 7.254545082803772749e-01 4.565569623856386046e-03
4.302819417404373780e+03 7.387076158693219874e-01 4.943351128621177419e-03
4.307122236821779552e+03 7.562836618331501004e-01 5.313064319791196283e-03
4.311429359058603040e+03 7.706699497628340945e-01 5.113684349330935991e-03
4.315740788417662770e+03 7.835260652503842627e-01 4.409311056037611143e-03
4.320056529206081905e+03 7.910239205969857856e-01 4.314270692162839455e-03
4.324376585735290064e+03 7.937763004583966442e-01 4.670904270552111992e-03
4.328700962321026054e+03 7.866322800312999242e-01 4.775763351971217506e-03
4.333029663283348782e+03 7.738599594154795813e-01 4.751112201718862144e-03
4.337362692946633615e+03 7.530633454597294163e-01 5.005643141614643347e-03
4.341700055639581478e+03 7.329245154806933726e-01 5.102421812125169411e-03
4.346041755695222491e+03 7.068097663408878795e-01 4.995148620356455044e-03
4.350387797450919606e+03 6.838010838300028205e-01 4.928979266427611743e-03
4.354738185248371337e+03 6.616679891489841703e-01 5.210747377887874586e-03
4.359092923433621763e+03 6.475298835537828257e-01 5.000805307332910517e-03
4.363452016357056891e+03 6.418770007933485289e-01 4.954951343895111146e-03
4.367815468373414660e+03 6.451328584343838379e-01 5.020554138785722487e-03
4.372183283841789489e+03 6.541713022679899181e-01 5.063697321612496000e-03
4.376555467125633186e+03 6.720655716384715817e-01 4.876089335580226919e-03
4.380932022592760404e+03 6.929553405352765205e-01 4.861842433029953808e-03
4.385312954615354101e+03 7.192646604726747883e-01 4.941016173797272912e-03
4.389698267569970994e+03 7.471989196634872821e-01 4.348271233652894682e-03
4.394087965837542470e+03 7.745237730156664391e-01 4.112393532389134292e-03
4.398482053803381859e+03 7.959687840167740669e-01 3.992404469526413154e-03
4.402880535857186260e+03 8.173083177009125011e-01 3.885559033714141089e-03
4.407283416393044718e+03 8.333409868070692506e-01 3.708312660960418842e-03
4.411690699809440048e+03 8.415120040063029938e-01 3.519871159879093409e-03
4.416102390509250654e+03 8.457333562539091076e-01 3.419880870381958489e-03
4.420518492899761441e+03 8.444862902457498377e-01 3.665655708229947213e-03
4.424939011392662906e+03 8.409448348755520497e-01 3.724170539545425436e-03
4.429363950404056595e+03 8.351560865475708972e-01 3.448793146152223914e-03
4.433793314354462382e+03 8.289202855424130378e-01 3.444434132629027676e-03
4.438227107668818462e+03 8.218391637800426253e-01 3.385736611069817444e-03
4.442665334776488635e+03 8.122313241358902758e-01 2.956222368360296796e-03
4.447108000111265937e+03 8.071088213201143002e-01 2.802166665705154661e-03
4.451555108111379013e+03 8.031446008871935272e-01 2.643215563727077579e-03
4.456006663219492111e+03 8.013785890613814855e-01 2.766882989295203939e-03
4.460462669882713271e+03 7.997098784573530850e-01 2.879489364838902846e-03
4.464923132552597053e+03 7.988160130606305476e-01 3.138368037738105930e-03
4.469388055685150903e+03 8.010804351330451656e-01 3.195148319221285775e-03
4.473857443740837880e+03 8.030219303693165722e-01 3.068421575887156100e-03
4.478331301184580298e+03 8.074019778875815012e-01 3.111042369344182035e-03
4.482809632485766087e+03 8.146433328495458204e-01 3.197391124648217911e-03
4.487292442118253348e+03 8.250640269884772504e-01 3.282043631202183082e-03
4.491779734560373072e+03 8.353227088575856385e-01 3.465113059942144698e-03
4.496271514294934605e+03 8.453785428430194981e-01 3.801919301006014343e-03
4.500767785809231100e+03 8.605966093473534917e-01 3.756903383429639406e-03
4.505268553595042249e+03 8.770467392094861703e-01 3.859861334702141024e-03
4.509773822148638828e+03 8.930537041331333414e-01 3.824860338051256064e-03
4.514283595970789065e+03 9.110337566007089549e-01 3.892592064756234503e-03
4.518797879566761367e+03 9.299698275785369672e-01 3.974186545687911735e-03
4.523316677446328868e+03 9.532526369827342139e-01 4.708832502712458935e-03
4.527839994123776705e+03 9.761880406856497938e-01 4.717874772753238508e-03
4.532367834117902021e+03 1.002852955507540056e+00 4.800735807509943012e-03
4.536900201952022144e+03 1.028562965009379493e+00 4.975338794228931043e-03
4.541437102153975502e+03 1.057507133692350942e+00 4.906751038007894569e-03
4.545978539256130716e+03 1.083480418090070563e+00 4.954665339409928572e-03
4.550524517795388419e+03 1.110839558846080433e+00 4.955219578274504093e-03
4.555075042313184895e+03 1.135641340543245947e+00 4.985772455263588407e-03
4.559630117355500261e+03 1.156537478965255605e+00 4.920254791331413365e-03
4.564189747472856652e+03 1.171183058822387713e+00 5.067531921907488836e-03
4.568753937220330954e+03 1.178424901696858873e+00 5.038155851446615360e-03
4.573322691157552981e+03 1.180931893345229078e+00 5.083724106779911704e-03
4.577896013848711846e+03 1.175191683230780715e+00 5.338838976436958463e-03
4.582473909862562323e+03 1.162053812086531801e+00 5.361394547181619688e-03
4.587056383772426670e+03 1.152293346049992673e+00 5.324487302219179513e-03
4.591643440156200086e+03 1.142630468916327358e+00 5.327271847636281220e-03
4.596235083596357981e+03 1.136963439166382539e+00 5.265614507792944037e-03
4.600831318679955984e+03 1.132324941582243394e+00 4.956810214194925547e-03
4.605432149998637215e+03 1.134236751249678488e+00 4.779369856555507404e-03
4.610037582148637739e+03 1.146282736239149669e+00 4.999740045489375201e-03
4.614647619730787483e+03 1.158174423590517810e+00 4.734325385911022054e-03
4.619262267350520233e+03 1.170698563659049007e+00 4.391517591524406877e-03
4.623881529617872729e+03 1.182519084921114461e+00 4.014348266004131964e-03
4.628505411147491941e+03 1.189993501521999564e+00 3.948178805596761279e-03
4.633133916558640522e+03 1.190954334372498202e+00 4.116730354682442139e-03
4.637767050475200449e+03 1.183939009796820319e+00 4.044804704795974988e-03
4.642404817525677572e+03 1.167477670456739336e+00 4.091356647458611016e-03
4.647047222343205249e+03 1.137495545149479703e+00 4.129105297704221619e-03
4.651694269565549803e+03 1.094857103985861890e+00 4.151036651020990897e-03
4.656345963835116891e+03 1.040213203846110712e+00 4.121663944059556460e-03
4.661002309798953320e+03 9.762456725318862105e-01 4.166462813489819894e-03
4.665663312108753416e+03 9.033388957261366814e-01 3.910730372702168889e-03
4.670328975420864481e+03 8.241502160605874705e-01 3.597568994825375063e-03
4.674999304396286789e+03 7.414633488156282537e-01 3.686560403281378528e-03
4.679674303700684504e+03 6.571307143031619447e-01 4.136619812529795416e-03
4.684353978004386590e+03 5.726074054848347972e-01 5.700055873843831375e-03
4.689038331982392265e+03 5.012239841857069056e-01 6.158395080603683985e-03
4.693727370314376458e+03 4.529186161435136415e-01 5.956738176347307900e-03
4.698421097684692540e+03 4.298759910082944891e-01 5.865461158905637545e-03
4.703119518782378691e+03 4.333845086398276369e-01 5.547655267901596167e-03
4.707822638301162442e+03 4.661020328302603599e-01 6.389844868989577771e-03
4.712530460939465229e+03 5.232481911370885364e-01 7.514520434322035161e-03
4.717242991400406027e+03 6.026434127556343778e-01 8.692345733616338443e-03
4.721960234391808626e+03 6.926611713747555799e-01 8.680512645543328465e-03
4.726682194626201635e+03 7.901367624849505722e-01 7.949696156864754712e-03
4.731408876820829391e+03 8.817499440237184238e-01 6.051893247238543036e-03
4.736140285697651962e+03 9.646989149450982959e-01 4.653454157127014969e-03
4.740876425983350600e+03 1.025514377527808607e+00 5.304104100212867108e-03
4.745617302409335934e+03 1.071663849280071190e+00 5.651706518181478026e-03
4.750362919711747054e+03 1.098481853998984015e+00 4.721439820511885883e-03
4.755113282631459697e+03 1.114166292475170295e+00 4.012030230504153722e-03
4.759868395914093526e+03 1.118563585162953844e+00 3.517597314271850642e-03
4.764628264310008490e+03 1.114500952499616782e+00 3.487784319983981435e-03
4.769392892574320285e+03 1.102566202235521597e+00 3.485147885541571133e-03
4.774162285466896719e+03 1.082931190658801723e+00 3.361244178173398555e-03
4.778936447752364984e+03 1.055013694280532821e+00 3.688148737936341407e-03
4.783715384200118933e+03 1.025257159980326183e+00 3.712314633209418905e-03
4.788499099584319993e+03 9.920250825263295935e-01 3.946397871710610739e-03
4.793287598683906253e+03 9.564806750936062363e-01 3.206568389198342309e-03
4.798080886282591564e+03 9.261354074028284034e-01 3.090966436426975834e-03
4.802878967168876443e+03 8.998514047706415164e-01 3.074826892675649233e-03
4.807681846136046261e+03 8.774124371642280096e-01 3.154452627803019070e-03
