# starting wavelength: 4880.890
# ending wavelength: 8512.280
# wav flux eflux
4.885184378568638749e+03 6.504552852660687723e-01 2.067424331022630901e-01
4.890069562947209306e+03 7.445874365595555044e-01 1.552879472917794434e-01
4.894959632510157462e+03 8.020095080843306912e-01 1.165482342708829971e-01
4.899854592142669389e+03 8.304121613160692084e-01 8.955285925477095288e-02
4.904754446734813428e+03 8.432460029012075475e-01 7.050416754523865237e-02
4.909659201181550088e+03 8.459400087615627228e-01 5.712899483084038499e-02
4.914568860382732964e+03 8.445404125241027238e-01 4.715529828892095487e-02
4.919483429243117826e+03 8.438383176651993445e-01 3.938984479228677810e-02
4.924402912672362618e+03 8.444752572101397181e-01 3.346092539784173425e-02
4.929327315585036558e+03 8.434760325702520545e-01 2.886048852256038744e-02
4.934256642900622865e+03 8.436115390285372495e-01 2.561911704946199728e-02
4.939190899543525120e+03 8.458896571728256042e-01 2.324758474322060134e-02
4.944130090443070912e+03 8.589278933084666390e-01 2.189689164935179622e-02
4.949074220533515472e+03 8.743834983391602922e-01 2.092691805564948423e-02
4.954023294754050767e+03 8.896720185212387833e-01 1.983582976713530593e-02
4.958977318048806410e+03 9.091622199859684672e-01 1.926304282286479472e-02
4.963936295366856939e+03 9.312114043605161928e-01 1.909808136989799704e-02
4.968900231662225451e+03 9.487219065967399390e-01 1.885714391578020843e-02
4.973869131893889062e+03 9.892422550846964313e-01 1.271773482427189343e-02
4.978843001025784361e+03 1.012853119576057948e+00 1.243862084969516411e-02
4.983821844026811959e+03 1.031500606592703484e+00 1.248510686271604025e-02
4.988805665870840130e+03 1.050039518717550635e+00 1.282935028044200100e-02
4.993794471536712990e+03 1.073620673109485502e+00 1.075365782771272975e-02
4.998788266008251412e+03 1.081442025379108385e+00 1.066764062845009138e-02
5.003787054274261209e+03 1.079613299661369874e+00 1.136185979580009442e-02
5.008790841328536771e+03 1.077296908110353835e+00 1.150373121115384582e-02
5.013799632169867436e+03 1.075137506601839821e+00 1.142771903352995597e-02
5.018813431802038394e+03 1.067387761159182213e+00 1.118507211603044123e-02
5.023832245233842514e+03 1.047226348025284359e+00 1.119856346203074171e-02
5.028856077479077612e+03 1.026631812758028062e+00 1.136091365306006983e-02
5.033884933556558281e+03 9.968296265968527026e-01 1.190499925123478936e-02
5.038918818490116792e+03 9.675712846097076492e-01 1.223193925249308270e-02
5.043957737308608557e+03 9.328391091439733884e-01 1.285093702294337614e-02
5.049001695045918495e+03 9.041073020359141621e-01 1.286592242769060701e-02
5.054050696740966487e+03 8.706273167781124478e-01 1.215212531802502792e-02
5.059104747437709193e+03 8.442416011121727237e-01 1.211594860937232829e-02
5.064163852185148244e+03 8.097609946183987883e-01 1.238343771815205059e-02
5.069228016037335692e+03 7.856776898163572165e-01 1.249345071447186505e-02
5.074297244053374015e+03 7.708507670212414453e-01 1.217898686193480580e-02
5.079371541297429758e+03 7.615258293772237952e-01 1.171196320206183139e-02
5.084450912838728073e+03 7.535602400497617426e-01 1.181749182398644446e-02
5.089535363751569093e+03 7.478754488725166683e-01 1.146764765887744141e-02
5.094624899115322478e+03 7.476205853014064040e-01 1.160602929917884871e-02
5.099719524014439230e+03 7.631895697281706470e-01 1.155568243451786728e-02
5.104819243538455339e+03 7.821303158890293705e-01 1.172225107109577460e-02
5.109924062781995417e+03 8.008395511106464193e-01 1.184703054447252407e-02
5.115033986844779065e+03 8.286921310923024420e-01 1.235290435942155984e-02
5.120149020831625421e+03 8.483782478743038258e-01 1.224049407930438010e-02
5.125269169852458617e+03 8.665460160979341353e-01 1.239779531287707980e-02
5.130394439022313236e+03 8.906874184680649842e-01 1.248866863444204368e-02
5.135524833461337039e+03 9.113273242886247294e-01 1.239525600754511764e-02
5.140660358294800062e+03 9.297488359391234969e-01 1.242955697990293443e-02
5.145801018653096435e+03 9.390538131343046935e-01 1.216117979374754278e-02
5.150946819671751655e+03 9.468660166009340573e-01 1.226791264657691068e-02
5.156097766491425318e+03 9.561372316823836259e-01 1.232231193987866694e-02
5.161253864257918394e+03 9.654758186085538041e-01 1.256164827127383317e-02
5.166415118122177773e+03 9.642989950850693326e-01 1.241928794106960179e-02
5.171581533240301724e+03 9.589861910677383028e-01 1.196737343452456033e-02
5.176753114773543530e+03 9.530019381736650752e-01 1.187246695051996821e-02
5.181929867888318768e+03 9.585487054326978784e-01 1.076708903809790209e-02
5.187111797756208944e+03 9.614099085646597986e-01 1.081991329917756685e-02
5.192298909553966951e+03 9.580001918848596310e-01 1.134900817171354687e-02
5.197491208463522526e+03 9.596405586732376092e-01 1.061816335581308203e-02
5.202688699671987706e+03 9.625437521157484966e-01 1.110249839581803864e-02
5.207891388371661378e+03 9.680502264778509947e-01 1.139716149147681871e-02
5.213099279760034733e+03 9.646102078493390408e-01 1.104016024691580750e-02
5.218312379039796724e+03 9.639605938616244707e-01 1.073258375337217581e-02
5.223530691418837705e+03 9.793484416735886988e-01 1.106528237641460181e-02
5.228754222110258524e+03 9.944660360988757386e-01 1.113830771134154476e-02
5.233982976332370527e+03 1.011809191417582854e+00 1.121749738895866030e-02
5.239216959308704645e+03 1.022058072352258096e+00 1.101272097941866958e-02
5.244456176268015042e+03 1.035325761929729360e+00 1.111916962407153917e-02
5.249700632444284565e+03 1.048405276839267541e+00 1.074159938627554205e-02
5.254950333076731113e+03 1.059419962782010449e+00 1.035953306309060282e-02
5.260205283409809454e+03 1.061076601510349660e+00 1.097922454817562739e-02
5.265465488693221232e+03 1.053013015884313619e+00 1.089571905787222600e-02
5.270730954181915877e+03 1.050844036026105544e+00 1.138085697917429716e-02
5.276001685136099695e+03 1.051036779019707268e+00 1.131568343386105124e-02
5.281277686821237694e+03 1.047089198555346323e+00 1.077355415049182849e-02
5.286558964508059944e+03 1.050841125304244450e+00 1.066898355857888100e-02
5.291845523472569766e+03 1.061397589194497337e+00 1.077567078106199394e-02
5.297137368996044643e+03 1.084975521413644062e+00 1.323678817707469452e-02
5.302434506365042580e+03 1.100878218306710954e+00 1.331444508300405616e-02
5.307736940871409388e+03 1.113395537353673692e+00 1.298960323008406352e-02
5.313044677812282316e+03 1.123768205972941248e+00 1.184674314285860675e-02
5.318357722490096421e+03 1.122861443997728470e+00 1.165295254078975440e-02
5.323676080212588204e+03 1.114117451650554091e+00 1.261464954985803445e-02
5.328999756292802886e+03 1.111570846857145245e+00 1.290100031451797170e-02
5.334328756049097137e+03 1.102317035288312486e+00 1.255948206184549429e-02
5.339663084805148173e+03 1.091627166877415567e+00 1.175295425668793775e-02
5.345002747889954662e+03 1.095849657786597042e+00 1.177390287680511217e-02
5.350347750637846730e+03 1.103303106339407202e+00 1.207079932454158122e-02
5.355698098388485960e+03 1.117935548953850944e+00 1.198518354791447589e-02
5.361053796486876308e+03 1.143076049140660411e+00 1.183313797433017955e-02
5.366414850283365013e+03 1.160786335770680688e+00 1.129074463102667202e-02
5.371781265133649867e+03 1.186669179168404087e+00 9.312863564458109811e-03
5.377153046398785591e+03 1.203203850956780840e+00 9.397191050755942035e-03
5.382530199445186554e+03 1.215257663989041337e+00 9.424804065740529507e-03
5.387912729644633146e+03 1.214016895703540433e+00 9.236318797190589888e-03
5.393300642374279960e+03 1.191852451268540003e+00 1.983073674311910256e-02
5.398693943016655794e+03 1.186867155677327146e+00 2.214906051259602285e-02
5.404092636959673655e+03 1.187688778531050815e+00 2.263382528352589698e-02
5.409496729596635305e+03 1.182242860496063974e+00 2.258802356186582691e-02
5.414906226326233991e+03 1.181076051927891335e+00 2.229845346222238123e-02
5.420321132552561721e+03 1.175094399529364786e+00 2.248296404930840917e-02
5.425741453685116539e+03 1.166880800781409766e+00 2.279064992597045272e-02
5.431167195138803436e+03 1.163222059118228513e+00 2.263861793859085064e-02
5.436598362333943442e+03 1.157018997977537378e+00 2.219337241739862895e-02
5.442034960696279086e+03 1.153409868634127200e+00 2.205454988755279136e-02
5.447476995656978033e+03 1.151171634306599856e+00 2.216062066184930346e-02
5.452924472652636723e+03 1.155882954317966060e+00 2.254177548451648597e-02
5.458377397125291282e+03 1.155063444551920115e+00 2.212177001479492117e-02
5.463835774522417523e+03 1.163153909855394685e+00 2.221257263127432088e-02
5.469299610296941864e+03 1.176054818489700393e+00 2.202580913262745799e-02
5.474768909907241323e+03 1.193589563720291347e+00 2.195822804520600191e-02
5.480243678817149885e+03 1.223306210115085335e+00 2.172998928931595131e-02
5.485723922495968509e+03 1.261542148531991758e+00 2.169433271343964090e-02
5.491209646418466946e+03 1.298584167786857257e+00 2.121730536076134321e-02
5.496700856064887375e+03 1.330250750521184022e+00 2.102576443670635398e-02
5.502197556920953502e+03 1.342704530539836183e+00 1.289565989858124616e-02
5.507699754477876013e+03 1.385600572637884387e+00 9.872363092445029381e-03
5.513207454232356213e+03 1.410229319915518253e+00 1.026796933967718227e-02
5.518720661686590574e+03 1.428711156272845839e+00 1.016360800309294363e-02
5.524239382348278923e+03 1.433602285883425198e+00 1.023343778609967468e-02
5.529763621730628984e+03 1.423327502980492820e+00 1.147459339343332059e-02
5.535293385352360929e+03 1.403277324022159211e+00 1.199313170529928314e-02
5.540828678737715563e+03 1.376427522697889705e+00 1.281331656943849456e-02
5.546369507416455235e+03 1.344616578712267696e+00 1.270284589767440089e-02
5.551915876923872929e+03 1.311889474257640353e+00 1.251067478529023849e-02
5.557467792800798634e+03 1.284650480215377533e+00 1.253178650267864486e-02
5.563025260593602070e+03 1.246838655220366077e+00 1.238386468677816175e-02
5.568588285854197238e+03 1.208390463834056794e+00 1.209941693801246457e-02
5.574156874140053333e+03 1.186998890265764439e+00 1.220818223066178800e-02
5.579731031014194741e+03 1.164583498416310148e+00 1.254424059300194606e-02
5.585310762045211050e+03 1.149496354768541062e+00 1.201867971810396257e-02
5.590896072807257951e+03 1.131094460806827851e+00 1.225389056191358156e-02
5.596486968880067252e+03 1.118902374987827519e+00 1.204825974548007390e-02
5.602083455848949598e+03 1.099301255729483895e+00 1.197233382035811818e-02
5.607685539304799931e+03 1.080591541189176885e+00 1.126987916282392276e-02
5.613293224844106589e+03 1.077147105928116133e+00 1.110825251870406309e-02
5.618906518068952209e+03 1.069161524717385570e+00 1.105838440059528707e-02
5.624525424587023736e+03 1.066561055925598023e+00 1.086504935480603340e-02
5.630149950011612418e+03 1.070661111121678388e+00 1.078902059109944182e-02
5.635780099961625638e+03 1.070112350593519057e+00 1.092624421335328978e-02
5.641415880061589633e+03 1.060140114649470444e+00 9.937582107690559954e-03
5.647057295941652228e+03 1.048192481562784772e+00 9.484077981878851274e-03
5.652704353237596479e+03 1.029626621387801366e+00 8.762950598979140845e-03
5.658357057590835211e+03 1.006696912598898930e+00 8.640508965047489706e-03
5.664015414648428305e+03 9.754570759943181901e-01 8.867705123427592831e-03
5.669679430063079053e+03 9.375056671911756734e-01 8.648428625303693912e-03
5.675349109493143260e+03 8.930567634689466905e-01 8.281545024358624024e-03
5.681024458602638333e+03 8.495632290742823889e-01 8.435602051028065831e-03
5.686705483061243285e+03 7.993821051120976184e-01 8.316580317607182374e-03
5.692392188544306009e+03 7.489656409232612333e-01 8.056172349832316226e-03
5.698084580732852373e+03 6.911497226861543774e-01 7.983417739439295849e-03
5.703782665313587131e+03 6.426656362981698623e-01 7.815670898779464304e-03
5.709486447978903016e+03 6.044116147308150611e-01 8.610584147358577717e-03
5.715195934426883468e+03 5.649156604601284215e-01 8.509206831632448731e-03
5.720911130361312644e+03 5.238085359085162818e-01 9.146941037795237872e-03
5.726632041491675409e+03 4.901093800394827893e-01 9.168872315182477126e-03
5.732358673533169167e+03 4.651214691084295527e-01 8.649369676411791663e-03
5.738091032206703858e+03 4.594133478021852346e-01 8.831560845773786528e-03
5.743829123238912871e+03 4.651750069431365153e-01 8.795989898448148062e-03
5.749572952362153046e+03 4.842819966675561139e-01 8.667924595266088619e-03
5.755322525314517407e+03 5.175181432576843044e-01 8.736483400146481670e-03
5.761077847839834249e+03 5.664123183708165143e-01 8.726191824570645600e-03
5.766838925687675328e+03 6.240319029345948731e-01 8.707263716190910205e-03
5.772605764613364954e+03 6.874298297624066301e-01 9.167311518234879525e-03
5.778378370377980900e+03 7.667179946121371881e-01 9.355121059793710878e-03
5.784156748748360769e+03 8.567109922970220781e-01 9.442741699043199349e-03
5.789940905497111089e+03 9.560860615165466259e-01 9.421406729745604447e-03
5.795730846402610041e+03 1.058287173826350402e+00 9.874715107776930664e-03
5.801526577249013826e+03 1.151921864005957419e+00 1.007371968210253078e-02
5.807328103826264851e+03 1.238883115899874543e+00 1.046707846067040579e-02
5.813135431930093546e+03 1.313779171702904147e+00 1.049648293752978787e-02
5.818948567362025642e+03 1.386457300222559752e+00 9.429658008834485711e-03
5.824767515929389447e+03 1.435929581293967416e+00 9.889964950041437233e-03
5.830592283445320390e+03 1.470247563105307798e+00 1.023474753629135571e-02
5.836422875728768304e+03 1.491960931506390198e+00 9.934744175573818198e-03
5.842259298604498326e+03 1.507096800728467523e+00 9.675565143648635208e-03
5.848101557903105459e+03 1.516904676614485137e+00 9.872821869715636689e-03
5.853949659461010015e+03 1.517405791633236856e+00 9.206827137453516344e-03
5.859803609120473084e+03 1.520357769362361111e+00 9.474348646776736826e-03
5.865663412729595620e+03 1.520252229427580870e+00 9.318144109257221752e-03
5.871529076142326630e+03 1.516526023071950613e+00 9.212198293777727406e-03
5.877400605218471355e+03 1.509958187945825259e+00 9.167113795684035324e-03
5.883278005823691274e+03 1.499879798097799588e+00 9.190411034790383141e-03
5.889161283829516833e+03 1.491186211089639668e+00 8.951189035283383874e-03
5.895050445113348360e+03 1.475470029205237399e+00 8.169649831330505485e-03
5.900945495558464245e+03 1.464819999111940607e+00 8.119384045766099567e-03
5.906846441054024581e+03 1.454067979465359040e+00 8.020194806207907312e-03
5.912753287495080258e+03 1.442799652822086554e+00 8.298194969387100162e-03
5.918666040782577511e+03 1.433957227024668102e+00 7.965470073082497188e-03
5.924584706823361557e+03 1.418773604286828638e+00 7.855570290504619579e-03
5.930509291530187511e+03 1.411366069804042223e+00 6.800301962934077876e-03
5.936439800821719473e+03 1.394592119821993048e+00 6.445884242792078792e-03
5.942376240622543264e+03 1.373978496383158721e+00 6.439158494480228846e-03
5.948318616863167335e+03 1.351966767203216513e+00 6.434491793088691590e-03
5.954266935480032771e+03 1.325593895395777988e+00 6.093987491147417369e-03
5.960221202415515108e+03 1.299814334631647972e+00 6.315209526332517948e-03
5.966181423617932523e+03 1.274987105562087386e+00 5.910569366838688832e-03
5.972147605041552197e+03 1.254101543073620650e+00 5.903583630766767384e-03
5.978119752646595771e+03 1.236574842744712743e+00 6.387960221559786829e-03
5.984097872399243897e+03 1.216587390182810369e+00 6.361577598809869949e-03
5.990081970271645332e+03 1.199433898305697577e+00 6.427503614860143044e-03
5.996072052241918755e+03 1.182145305471035801e+00 6.127882558762853989e-03
6.002068124294162772e+03 1.159271404689172780e+00 6.183363321211987444e-03
6.008070192418459555e+03 1.136516763028583732e+00 7.040913099839936004e-03
6.014078262610879392e+03 1.110618021155338919e+00 7.449325069475956802e-03
6.020092340873492503e+03 1.089973313313230774e+00 7.481156024957957666e-03
6.026112433214368139e+03 1.068224298062188105e+00 7.592535891023844200e-03
6.032138545647584579e+03 1.048197368661074824e+00 7.388344159401215999e-03
6.038170684193233683e+03 1.022245732025620413e+00 7.181267691518570563e-03
6.044208854877429076e+03 9.984283204003400192e-01 7.677281317706334540e-03
6.050253063732308874e+03 9.808741172659574126e-01 8.176736778228766572e-03
6.056303316796042964e+03 9.736456693452144595e-01 8.217945640534992172e-03
6.062359620112841185e+03 9.672356544043612114e-01 8.269354414164558145e-03
6.068421979732956061e+03 9.666686503027371868e-01 8.290044292010738392e-03
6.074490401712690982e+03 9.695113272672242211e-01 8.432080499446615793e-03
6.080564892114405666e+03 9.780893967291858226e-01 9.277914304782078000e-03
6.086645457006521610e+03 9.863079602010853542e-01 9.784908287987928791e-03
6.092732102463530282e+03 9.856682484494163621e-01 1.015824726520604682e-02
6.098824834565995843e+03 9.700867856617962914e-01 1.296539589649920582e-02
6.104923659400564247e+03 9.706400384119935332e-01 1.305881253315260837e-02
6.111028583059966877e+03 9.727223399762624512e-01 1.311235176607343164e-02
6.117139611643028729e+03 9.678982954463803967e-01 1.329539925056917073e-02
6.123256751254673873e+03 9.629082061875696708e-01 1.337626951641165442e-02
6.129380008005929994e+03 9.478202337846973746e-01 1.298486847025147675e-02
6.135509388013938405e+03 9.359677562398155404e-01 1.275332725720186924e-02
6.141644897401954040e+03 9.248296671442546302e-01 1.276938209284546495e-02
6.147786542299358189e+03 9.142388657176109268e-01 1.301183536106218126e-02
6.153934328841659408e+03 9.036685204032114394e-01 1.507610832933879881e-02
6.160088263170503524e+03 8.960819978051011159e-01 1.696786704529346101e-02
6.166248351433675452e+03 8.892369960315821276e-01 1.698849146637911728e-02
6.172414599785111022e+03 8.874497367711755569e-01 1.665832695269424402e-02
6.178587014384898794e+03 8.718985754449665171e-01 1.682107281373444729e-02
6.184765601399285515e+03 8.527885313288962044e-01 1.673555075629674233e-02
6.190950367000687038e+03 8.377197996928182899e-01 1.672568028129476497e-02
6.197141317367689226e+03 8.262359617733372463e-01 1.638432476055264042e-02
6.203338458685059777e+03 8.175135387960448252e-01 1.530273963750629698e-02
6.209541797143746408e+03 7.967139353906793620e-01 1.491583674511852073e-02
6.215751338940892310e+03 7.494433841399028573e-01 1.314810774472993833e-02
6.221967090279835247e+03 7.135792014970776531e-01 1.335971288125210529e-02
6.228189057370116643e+03 6.640865688725330340e-01 1.326818314181066501e-02
6.234417246427488863e+03 6.162017894452825884e-01 1.309629010833509612e-02
6.240651663673918847e+03 5.632389149843368692e-01 1.295616929094566688e-02
6.246892315337594482e+03 5.084100796355283114e-01 1.334389756805770197e-02
6.253139207652934601e+03 4.574416803419761313e-01 1.345781488468147935e-02
6.259392346860589896e+03 4.130758694834240630e-01 1.340592376789985496e-02
6.265651739207452010e+03 3.678910560136190444e-01 1.327222466307324822e-02
6.271917390946661726e+03 3.320526885899796055e-01 1.289024128221703466e-02
6.278189308337610782e+03 3.038967962122069988e-01 1.025446626827711261e-02
6.284467497645950061e+03 3.009344022571118771e-01 7.208934099950782201e-03
6.290751965143597772e+03 3.013895349675722590e-01 7.005089393090550495e-03
6.297042717108744000e+03 3.088058600193876457e-01 6.668902181746308097e-03
6.303339759825854344e+03 3.157796431506437740e-01 6.562802070002771333e-03
6.309643099585682648e+03 3.275919462368437340e-01 6.584653369026353086e-03
6.315952742685270096e+03 3.388727413158235113e-01 6.885161226465136459e-03
6.322268695427957937e+03 3.576118882897387219e-01 6.873578977124121178e-03
6.328590964123387494e+03 3.761583272004113687e-01 6.901243878992353344e-03
6.334919555087512890e+03 3.999762383096211460e-01 6.878834155976874982e-03
6.341254474642602872e+03 4.254861279778285876e-01 7.636064833630692820e-03
6.347595729117247174e+03 4.534142844228103431e-01 8.208433117704675222e-03
6.353943324846366522e+03 4.975438269842287209e-01 7.933143224497713961e-03
6.360297268171215364e+03 5.583619768456274945e-01 8.278267638369212270e-03
