# starting wavelength: 3890.440
# ending wavelength: 7088.800
# wav flux eflux
3.893546554698777527e+03 2.380102134977353512e-01 7.108849903409245052e-02
3.897440101253477678e+03 2.416697930765592806e-01 5.236537884056623876e-02
3.901337541354732366e+03 2.406731522214814178e-01 3.983760010838676563e-02
3.905238878896088409e+03 2.378685762408805360e-01 3.061092040986369139e-02
3.909144117774985716e+03 2.356215848523319223e-01 2.394483193850479794e-02
3.913053261892762293e+03 2.350720497148286459e-01 1.909392327753057020e-02
3.916966315154656058e+03 2.320676165404999269e-01 1.544179439202985477e-02
3.920883281469812118e+03 2.275782069302370036e-01 1.303284303059393072e-02
3.924804164751283224e+03 2.210813865949426138e-01 1.094761931136231832e-02
3.928728968916035683e+03 2.120252701558218156e-01 9.516199550656715897e-03
3.932657697884953450e+03 2.018395630319613776e-01 8.389976152485810815e-03
3.936590355582839493e+03 1.925352991422179527e-01 7.602357908068516773e-03
3.940526945938423523e+03 1.813269394817817737e-01 6.985790238505590680e-03
3.944467472884363360e+03 1.677355239899915584e-01 6.667546035353684279e-03
3.948411940357249023e+03 1.545718637196807355e-01 6.412433690567175860e-03
3.952360352297607733e+03 1.411433641279881135e-01 6.290634235778298604e-03
3.956312712649906643e+03 1.314197187968418057e-01 6.099554397605233547e-03
3.960269025362557841e+03 1.224371352226970577e-01 5.979464350722357713e-03
3.964229294387921527e+03 1.132295599370941042e-01 5.841521285861001229e-03
3.968193523682310570e+03 1.057464393051339990e-01 5.605702029086134276e-03
3.972161717205994591e+03 1.028852022637529035e-01 5.630871461988356391e-03
3.976133878923201792e+03 1.070777772403161687e-01 5.563424476465873673e-03
3.980110012802126221e+03 1.134125914060246099e-01 5.501361111818210692e-03
3.984090122814929600e+03 1.211724002863257960e-01 5.545970279269387890e-03
3.988074212937745870e+03 1.312201367145687247e-01 5.589989798581836145e-03
3.992062287150684824e+03 1.375683717193963151e-01 5.414252382031339329e-03
3.996054349437837118e+03 1.457839254072258728e-01 5.172517656338310697e-03
4.000050403787276082e+03 1.600794904410174913e-01 5.168559661393454414e-03
4.004050454191064546e+03 1.796848840589813645e-01 4.738910510778710818e-03
4.008054504645257111e+03 2.000261196566838207e-01 4.458968592873694368e-03
4.012062559149903791e+03 2.165484855205238035e-01 4.363099216482733272e-03
4.016074621709055009e+03 2.374613079619297129e-01 4.454159983786004119e-03
4.020090696330765240e+03 2.597403356294917809e-01 4.634964769211579079e-03
4.024110787027097558e+03 2.833427675589073047e-01 4.610520286938903957e-03
4.028134897814125907e+03 3.001473728678307751e-01 3.864245501906928438e-03
4.032163032711941469e+03 3.218820259874934919e-01 3.725826902389657146e-03
4.036195195744654484e+03 3.467850986945631986e-01 3.839893747192598197e-03
4.040231390940400615e+03 3.727037077293373635e-01 4.296077887650374787e-03
4.044271622331342314e+03 3.965668937870361344e-01 4.655489739742773615e-03
4.048315893953675186e+03 4.187496263676245833e-01 5.403920680678185248e-03
4.052364209847629809e+03 4.376838603898579594e-01 5.844132508416382925e-03
4.056416574057479011e+03 4.521698637742780358e-01 5.556863569031988623e-03
4.060472990631537868e+03 4.596683490923177406e-01 5.372078408180474413e-03
4.064533463622170530e+03 4.625633035114481983e-01 4.888731905548209661e-03
4.068597997085794304e+03 4.594861519840691688e-01 4.989297400348629424e-03
4.072666595082881486e+03 4.488437726994325971e-01 5.089893797356529609e-03
4.076739261677965715e+03 4.322319355674031915e-01 5.304750862191941543e-03
4.080816000939644709e+03 4.104207158110174114e-01 5.480764232189213117e-03
4.084896816940585722e+03 3.830450739489476564e-01 5.493466374517782039e-03
4.088981713757527814e+03 3.573450883860940230e-01 5.441180040742136549e-03
4.093070695471286854e+03 3.281737646776363149e-01 5.177120829744200764e-03
4.097163766166759160e+03 3.019410319011446298e-01 4.833399546378649297e-03
4.101260929932927866e+03 2.783255147116196482e-01 4.515145407110028770e-03
4.105362190862862008e+03 2.610967122637133375e-01 4.401072273411220544e-03
4.109467553053726078e+03 2.508262296886835663e-01 4.563695860419855581e-03
4.113577020606780934e+03 2.486123342683608239e-01 4.928122247880270188e-03
4.117690597627389252e+03 2.544933022404497480e-01 4.969580134688855039e-03
4.121808288225018259e+03 2.584464552869600862e-01 4.702790969398854687e-03
4.125930096513244280e+03 2.622184714117510862e-01 4.518146715531880069e-03
4.130056026609759101e+03 2.650635647647430204e-01 4.522747325939769671e-03
4.134186082636369974e+03 2.703767049250646592e-01 4.463387755644659775e-03
4.138320268719007800e+03 2.709401119646047684e-01 4.382259610333163677e-03
4.142458588987728035e+03 2.712456147211379509e-01 4.483043473330442473e-03
4.146601047576717065e+03 2.673964718523934581e-01 4.545440484346883331e-03
4.150747648624294925e+03 2.610754802132854713e-01 4.686036333898038753e-03
4.154898396272920763e+03 2.545645945234338292e-01 4.906484132061269057e-03
4.159053294669195566e+03 2.466858458113382058e-01 5.084948443343582057e-03
4.163212347963865795e+03 2.371848139645595654e-01 4.897150822494308192e-03
4.167375560311830668e+03 2.264077602106953913e-01 4.597888473918805737e-03
4.171542935872143971e+03 2.180683510965399641e-01 4.809780907757322047e-03
4.175714478808017702e+03 2.126139364452866720e-01 4.855694108588790546e-03
4.179890193286827525e+03 2.066662388811928430e-01 5.232859502880999290e-03
4.184070083480115500e+03 1.976431001427997047e-01 5.062754014903410142e-03
4.188254153563597356e+03 1.856745543968123524e-01 4.700526015031101373e-03
4.192442407717161586e+03 1.694454057523727408e-01 4.620344152708374778e-03
4.196634850124880359e+03 1.465672082203934579e-01 4.734543899213624479e-03
4.200831484975006788e+03 1.228682076322606953e-01 5.164329026130657155e-03
4.205032316459983122e+03 1.030060923434901188e-01 5.755624001509205070e-03
4.209237348776444378e+03 8.979755812044812324e-02 6.005004016895450734e-03
4.213446586125221984e+03 8.074225244582793060e-02 5.481356633037556131e-03
4.217660032711349231e+03 7.483126231382121463e-02 4.818791670651511108e-03
4.221877692744061278e+03 7.926288516446026999e-02 5.015993200612751078e-03
4.226099570436806971e+03 9.145749515624301829e-02 5.249431820469929559e-03
4.230325670007245208e+03 1.152924742243607859e-01 4.185684288263577350e-03
4.234555995677254032e+03 1.397504911859330512e-01 3.449208199548710069e-03
4.238790551672932452e+03 1.599608248412912603e-01 2.995228420348793053e-03
4.243029342224606808e+03 1.723175409712363881e-01 3.295998495493829197e-03
4.247272371566832589e+03 1.813157628847917591e-01 3.709779089410817580e-03
4.251519643938400804e+03 1.872877855287261861e-01 3.906272896540909784e-03
4.255771163582340705e+03 1.900674332614365192e-01 3.905054916950869218e-03
4.260026934745924336e+03 1.947340899048196072e-01 3.325652196301702012e-03
4.264286961680671993e+03 2.053173331098697429e-01 3.349232075417943322e-03
4.268551248642354039e+03 2.189480108277183923e-01 3.817142855426998264e-03
4.272819799890998183e+03 2.357597512530739958e-01 4.209338202609644308e-03
4.277092619690890388e+03 2.500553057876327978e-01 3.919840781395141256e-03
4.281369712310583054e+03 2.604221265408566688e-01 3.606879955468766941e-03
4.285651082022895025e+03 2.631233593959357853e-01 3.607989863497186762e-03
4.289936733104918858e+03 2.613541997027170605e-01 3.794157958604332456e-03
4.294226669838025373e+03 2.581246506392348428e-01 3.889741095298510348e-03
4.298520896507864563e+03 2.509488433162283538e-01 3.904690788574746458e-03
4.302819417404373780e+03 2.392505668960173693e-01 3.779843362473529235e-03
4.307122236821779552e+03 2.233513546412890516e-01 3.248207063420398624e-03
4.311429359058603040e+03 2.072899704147149191e-01 2.742558043758743132e-03
4.315740788417662770e+03 1.991709253836438653e-01 2.783273139127048160e-03
4.320056529206081905e+03 1.943139946427531739e-01 2.802482849778543776e-03
4.324376585735290064e+03 1.939784123899600254e-01 2.843384723781526048e-03
4.328700962321026054e+03 2.000199251569809156e-01 2.761329758728970577e-03
4.333029663283348782e+03 2.071637719216000428e-01 2.802367320532871998e-03
4.337362692946633615e+03 2.164395030335926062e-01 2.762913644017175180e-03
4.341700055639581478e+03 2.284223737001070398e-01 3.054383058040644264e-03
4.346041755695222491e+03 2.425611608877598080e-01 3.503063685462797904e-03
4.350387797450919606e+03 2.526692159005820559e-01 3.312345274339721039e-03
4.354738185248371337e+03 2.593331320391742967e-01 3.176145256664315245e-03
4.359092923433621763e+03 2.633660639453428431e-01 3.037897743989697013e-03
4.363452016357056891e+03 2.618834339297006486e-01 3.082930162211864385e-03
4.367815468373414660e+03 2.550823735944991455e-01 3.229387945150057407e-03
4.372183283841789489e+03 2.433886357796372635e-01 3.062723402248287898e-03
4.376555467125633186e+03 2.307070335139090878e-01 2.690030679890353157e-03
4.380932022592760404e+03 2.168725851255318138e-01 2.704752253816017186e-03
4.385312954615354101e+03 2.073258639139175796e-01 2.775868552505814449e-03
4.389698267569970994e+03 1.969353776687045310e-01 2.758499329430332166e-03
4.394087965837542470e+03 1.888113424532351647e-01 2.834746171472244790e-03
4.398482053803381859e+03 1.838996662774383117e-01 2.881251586152975587e-03
4.402880535857186260e+03 1.779180824285417906e-01 2.789493108116033581e-03
4.407283416393044718e+03 1.735063611576140030e-01 2.707178289616764353e-03
4.411690699809440048e+03 1.710640698924165426e-01 2.639378852273130925e-03
4.416102390509250654e+03 1.672157979985100518e-01 2.523484378964684603e-03
4.420518492899761441e+03 1.631863290137917921e-01 2.438507598309163846e-03
4.424939011392662906e+03 1.611768086367804664e-01 2.561477230739125227e-03
4.429363950404056595e+03 1.626545364692988382e-01 2.452109979796227284e-03
4.433793314354462382e+03 1.654724359224459262e-01 2.617336904296337953e-03
4.438227107668818462e+03 1.657469294151372174e-01 2.631876342191417136e-03
4.442665334776488635e+03 1.671345625510328725e-01 2.683279977179436979e-03
4.447108000111265937e+03 1.707481627700627447e-01 2.719923063077823305e-03
4.451555108111379013e+03 1.755931407705726421e-01 2.775028923009547829e-03
4.456006663219492111e+03 1.793189736071307827e-01 2.860107212514051683e-03
4.460462669882713271e+03 1.861453411226485777e-01 2.963750556692688280e-03
4.464923132552597053e+03 1.928882745146816291e-01 2.802638178179931838e-03
4.469388055685150903e+03 2.010270435068460260e-01 2.775972190915146787e-03
4.473857443740837880e+03 2.091711683753330331e-01 2.701990009224251171e-03
4.478331301184580298e+03 2.193670463018149164e-01 2.695398730902055350e-03
4.482809632485766087e+03 2.297956772181471985e-01 2.676888687322669363e-03
4.487292442118253348e+03 2.384454968289725640e-01 2.538522407422707204e-03
4.491779734560373072e+03 2.509713844415834005e-01 2.648015459937335270e-03
4.496271514294934605e+03 2.629837621218988342e-01 2.687080727840863211e-03
4.500767785809231100e+03 2.750666505211487589e-01 2.814720869773796978e-03
4.505268553595042249e+03 2.886261340710297718e-01 2.825244857182607205e-03
4.509773822148638828e+03 3.030331525317651598e-01 2.905546212525935822e-03
4.514283595970789065e+03 3.186916819836029258e-01 2.950787764924822990e-03
4.518797879566761367e+03 3.348583225761083138e-01 2.820539124703029098e-03
4.523316677446328868e+03 3.485501984397075814e-01 2.998473283192492657e-03
4.527839994123776705e+03 3.615072194701638431e-01 3.111708012265064320e-03
4.532367834117902021e+03 3.779280719262886334e-01 3.252596926226872503e-03
4.536900201952022144e+03 3.989075314609202283e-01 3.424233537784104626e-03
4.541437102153975502e+03 4.182273532137888439e-01 3.380669125963936972e-03
4.545978539256130716e+03 4.361536068381972608e-01 3.329051105364280640e-03
4.550524517795388419e+03 4.561862911260254339e-01 3.240825506379935942e-03
4.555075042313184895e+03 4.761260807484442581e-01 3.226063165203232538e-03
4.559630117355500261e+03 4.949294447126227348e-01 3.193480969489500242e-03
4.564189747472856652e+03 5.109799029519489499e-01 3.250454315569453224e-03
4.568753937220330954e+03 5.251057255272110202e-01 3.478853016018046331e-03
4.573322691157552981e+03 5.391899433148196197e-01 3.499598538428477183e-03
4.577896013848711846e+03 5.559458874283250696e-01 3.556672439334285837e-03
4.582473909862562323e+03 5.717196376062070318e-01 3.601900314051073235e-03
4.587056383772426670e+03 5.836789785287895826e-01 3.454749769965742654e-03
4.591643440156200086e+03 5.925850306419033764e-01 3.753104479532699302e-03
4.596235083596357981e+03 6.063119183414752422e-01 3.598414847710854070e-03
4.600831318679955984e+03 6.190577665208925051e-01 3.605781179588081128e-03
4.605432149998637215e+03 6.306357793409183010e-01 3.486979724240413595e-03
4.610037582148637739e+03 6.343731788846163067e-01 3.571238613745085153e-03
4.614647619730787483e+03 6.328407241420432872e-01 3.524999279621679991e-03
4.619262267350520233e+03 6.310527465737637565e-01 3.787553882508992026e-03
4.623881529617872729e+03 6.269827210063880774e-01 3.909713174034365468e-03
4.628505411147491941e+03 6.233263408960953988e-01 4.503752480055664247e-03
4.633133916558640522e+03 6.278665790209644326e-01 4.316057224152737917e-03
4.637767050475200449e+03 6.423050584491353243e-01 5.917795939771735257e-03
4.642404817525677572e+03 6.555095096993672765e-01 6.692498980211794395e-03
4.647047222343205249e+03 6.630522693574865123e-01 6.429517983389508758e-03
4.651694269565549803e+03 6.605524559863520384e-01 6.345133366934390187e-03
4.656345963835116891e+03 6.512615387816553802e-01 6.569827499164982224e-03
4.661002309798953320e+03 6.386562840364509164e-01 6.563057728781187920e-03
4.665663312108753416e+03 6.212973149433235198e-01 6.648161510603459341e-03
4.670328975420864481e+03 5.991055891644959663e-01 6.625145171498997981e-03
4.674999304396286789e+03 5.635421682453239933e-01 6.719091922168012911e-03
4.679674303700684504e+03 5.204764902652956327e-01 6.566733767807453846e-03
4.684353978004386590e+03 4.735240317192906945e-01 6.147885902109757189e-03
4.689038331982392265e+03 4.293703637014468777e-01 6.597696650767746231e-03
4.693727370314376458e+03 3.818128366658383177e-01 6.304150911476001130e-03
4.698421097684692540e+03 3.305604956550320384e-01 6.415969186782425129e-03
4.703119518782378691e+03 2.785827677235587219e-01 7.503820977163112166e-03
4.707822638301162442e+03 2.307180527448393637e-01 8.550715115041898282e-03
4.712530460939465229e+03 1.959363262864167177e-01 8.116565398592659811e-03
4.717242991400406027e+03 1.684276260805430137e-01 6.487013872499990466e-03
4.721960234391808626e+03 1.603852232752266960e-01 6.119676695887434591e-03
4.726682194626201635e+03 1.752465244894531038e-01 6.819734356859534150e-03
4.731408876820829391e+03 2.068983450846056393e-01 6.861814844323452234e-03
4.736140285697651962e+03 2.396236714338262075e-01 6.394513143209273540e-03
4.740876425983350600e+03 2.742645741284382432e-01 6.162880437082051896e-03
4.745617302409335934e+03 3.096063800520773013e-01 6.070263012188082362e-03
4.750362919711747054e+03 3.419704371265511189e-01 6.761945498673298076e-03
4.755113282631459697e+03 3.803920899134891065e-01 6.868231143524252194e-03
4.759868395914093526e+03 4.176277762058846488e-01 6.898783987023968979e-03
4.764628264310008490e+03 4.465501089068130702e-01 6.531641796328197316e-03
4.769392892574320285e+03 4.657862165204710858e-01 5.817694517541250297e-03
4.774162285466896719e+03 4.880666735605564410e-01 5.760658626395052245e-03
4.778936447752364984e+03 5.151466154084258786e-01 5.451676847785740833e-03
4.783715384200118933e+03 5.431842277428886590e-01 5.761762503851446809e-03
4.788499099584319993e+03 5.632676169475987482e-01 5.617201220691837686e-03
4.793287598683906253e+03 5.672089228191812271e-01 5.582781329402033629e-03
4.798080886282591564e+03 5.536595704389236650e-01 5.827260631304360256e-03
4.802878967168876443e+03 5.309004043445827437e-01 5.956200938954814977e-03
4.807681846136046261e+03 4.973173486503213447e-01 6.738949720290769024e-03
4.812489527982183972e+03 4.594791970941547454e-01 7.096594107341953374e-03
4.817302017510168298e+03 4.261018308181349079e-01 7.016193605701303779e-03
4.822119319527679181e+03 4.061002685945610535e-01 6.951050081830786355e-03
4.826941438847208701e+03 3.942949303300976593e-01 6.797142562196484619e-03
4.831768380286057436e+03 3.935371215280014656e-01 6.713116888714312086e-03
4.836600148666345376e+03 4.045242403526326802e-01 6.623453325588624270e-03
4.841436748815013743e+03 4.293997216500878844e-01 6.984941125495298768e-03
4.846278185563829538e+03 4.719955126909091137e-01 7.687395012087956149e-03
4.851124463749395545e+03 5.241147018337816155e-01 6.512998382849010184e-03
4.855975588213146693e+03 5.749292176618604477e-01 5.072783435813468626e-03
4.860831563801360971e+03 6.124742946613532801e-01 4.744384425692131646e-03
4.865692395365163975e+03 6.356924938320591689e-01 5.478618685147687052e-03
4.870558087760530725e+03 6.484465451836973759e-01 5.843542847663705901e-03
4.875428645848292945e+03 6.599107813951071710e-01 5.666302200349799915e-03
4.880304074494142696e+03 6.765554249063537862e-01 6.744474242503078684e-03
4.885184378568638749e+03 6.800958089029932596e-01 7.158069579573146830e-03
4.890069562947209306e+03 6.683862840458694166e-01 7.180761551403898151e-03
4.894959632510157462e+03 6.559732195649183861e-01 7.088170776853300846e-03
4.899854592142669389e+03 6.310375572829607371e-01 7.250873832909691431e-03
4.904754446734813428e+03 5.983794829544487603e-01 7.649160584593365370e-03
4.909659201181550088e+03 5.685943436796472295e-01 7.886405214855021772e-03
4.914568860382732964e+03 5.437160460791208294e-01 8.168389882241002334e-03
4.919483429243117826e+03 5.243443568436662039e-01 8.383114465125188902e-03
4.924402912672362618e+03 5.152266729788054223e-01 8.010276538997654003e-03
4.929327315585036558e+03 5.174033721304093225e-01 7.083862207449367378e-03
4.934256642900622865e+03 5.365302244619618577e-01 7.166817579851355105e-03
4.939190899543525120e+03 5.746823907635250084e-01 7.614628059101831957e-03
4.944130090443070912e+03 6.259765905916596651e-01 7.396876041197112707e-03
4.949074220533515472e+03 6.891009460768166006e-01 6.384061259765057457e-03
4.954023294754050767e+03 7.480301663686012015e-01 5.283032286037846192e-03
4.958977318048806410e+03 7.969267671283309928e-01 5.738506912306538463e-03
4.963936295366856939e+03 8.398831854044328526e-01 5.800575106596192465e-03
4.968900231662225451e+03 8.774303611356834010e-01 5.251980459820917296e-03
4.973869131893889062e+03 9.212463301630817725e-01 5.439277512263375122e-03
4.978843001025784361e+03 9.613527508636940944e-01 5.706807126825547832e-03
4.983821844026811959e+03 9.851112226887613899e-01 5.646530355575274385e-03
4.988805665870840130e+03 1.001612625854045646e+00 5.597984550660029153e-03
4.993794471536712990e+03 1.013297263585493768e+00 5.065466519610759173e-03
4.998788266008251412e+03 1.008988463578539996e+00 5.529138066764367754e-03
5.003787054274261209e+03 1.000795951428981923e+00 6.031687800024537055e-03
5.008790841328536771e+03 9.882711034214580748e-01 6.075573451952564694e-03
5.013799632169867436e+03 9.704726587017300510e-01 5.834679764557362466e-03
5.018813431802038394e+03 9.443039718033546803e-01 7.362088187454100124e-03
5.023832245233842514e+03 9.272776775513982273e-01 7.306361629745667871e-03
5.028856077479077612e+03 9.277951392669052666e-01 7.746609964645019032e-03
5.033884933556558281e+03 9.427693244885043677e-01 1.138777151690652592e-02
5.038918818490116792e+03 9.565081565170682198e-01 1.337201209503382539e-02
5.043957737308608557e+03 9.595331548345367167e-01 1.238186324018697784e-02
5.049001695045918495e+03 9.458020764568009220e-01 1.161070764173734518e-02
5.054050696740966487e+03 9.128662967958256491e-01 1.313486241742633717e-02
5.059104747437709193e+03 8.690594259247355069e-01 1.559651494274996025e-02
5.064163852185148244e+03 8.332501496662214624e-01 1.526672947586245159e-02
5.069228016037335692e+03 8.107927000242546312e-01 1.491112349066656302e-02
