# starting wavelength: 3890.440
# ending wavelength: 7309.830
# wav flux eflux
3.893546554698777527e+03 1.429931814816204350e-02 6.282675099350931713e-02
3.897440101253477678e+03 8.951032676062714577e-02 4.792538460390099314e-02
3.901337541354732366e+03 1.350747144316368220e-01 3.698386400444792638e-02
3.905238878896088409e+03 1.633946486070998183e-01 2.872737609405009995e-02
3.909144117774985716e+03 1.797661069267309508e-01 2.333616539125748374e-02
3.913053261892762293e+03 1.895940726271894694e-01 1.976905194477104194e-02
3.916966315154656058e+03 1.990408692560727832e-01 1.659859584172908992e-02
3.920883281469812118e+03 2.075896312602552585e-01 1.431775450023069912e-02
3.924804164751283224e+03 2.149211665944285587e-01 1.218085602455861935e-02
3.928728968916035683e+03 2.191834366564638648e-01 1.052235216016190154e-02
3.932657697884953450e+03 2.189564731568184042e-01 9.272230653417617985e-03
3.936590355582839493e+03 2.148593027106263098e-01 8.357840316796004421e-03
3.940526945938423523e+03 2.069411022694407354e-01 7.736472363964600092e-03
3.944467472884363360e+03 1.973974759099466625e-01 7.275970957045128570e-03
3.948411940357249023e+03 1.874961467599807752e-01 6.871993081739566356e-03
3.952360352297607733e+03 1.770669558709072056e-01 6.588720283048073861e-03
3.956312712649906643e+03 1.679196210242305531e-01 6.326387004916150109e-03
3.960269025362557841e+03 1.599388338758193917e-01 6.207280384200825583e-03
3.964229294387921527e+03 1.547849961397958496e-01 5.581149850790226991e-03
3.968193523682310570e+03 1.469669829696593766e-01 5.502236462074649136e-03
3.972161717205994591e+03 1.391055078160822189e-01 5.681363543873759435e-03
3.976133878923201792e+03 1.293007817910822310e-01 5.346840422596729585e-03
3.980110012802126221e+03 1.236526409856685965e-01 5.243972681133708853e-03
3.984090122814929600e+03 1.174684793593738785e-01 4.831237568741282747e-03
3.988074212937745870e+03 1.112369672851505481e-01 4.163043564157043082e-03
3.992062287150684824e+03 1.106235006900457563e-01 3.955438789431325354e-03
3.996054349437837118e+03 1.165255044848110128e-01 3.950836501401991212e-03
4.000050403787276082e+03 1.305848312448481541e-01 3.771063791006100310e-03
4.004050454191064546e+03 1.485959073582325818e-01 3.836410984147336709e-03
4.008054504645257111e+03 1.668895853855758282e-01 3.993888739529279953e-03
4.012062559149903791e+03 1.871267043198355795e-01 4.242440455047812899e-03
4.016074621709055009e+03 2.092606185420071152e-01 4.120129636559968084e-03
4.020090696330765240e+03 2.281143772380984092e-01 3.997052564317595327e-03
4.024110787027097558e+03 2.450857613030878457e-01 4.018537960082050296e-03
4.028134897814125907e+03 2.634167253640836703e-01 3.989784341421709173e-03
4.032163032711941469e+03 2.835073792718366126e-01 4.646399667988499425e-03
4.036195195744654484e+03 2.981098206715051546e-01 4.792750706658043848e-03
4.040231390940400615e+03 3.077391058242824329e-01 4.826597162091087259e-03
4.044271622331342314e+03 3.127354851233219435e-01 4.963366271144084053e-03
4.048315893953675186e+03 3.157575674762920781e-01 5.164755391236649021e-03
4.052364209847629809e+03 3.178042672181330963e-01 5.477576193955106809e-03
4.056416574057479011e+03 3.177837186573006512e-01 5.629550747415039240e-03
4.060472990631537868e+03 3.158265063784340687e-01 5.565110582777954215e-03
4.064533463622170530e+03 3.137168733428958856e-01 5.442914432084909604e-03
4.068597997085794304e+03 3.100395254297355074e-01 5.313476465053869682e-03
4.072666595082881486e+03 3.035199100989079968e-01 5.237954328168961150e-03
4.076739261677965715e+03 2.980589745146393632e-01 5.255955557093211494e-03
4.080816000939644709e+03 2.913070234724961516e-01 5.270923428236251422e-03
4.084896816940585722e+03 2.874740143946010740e-01 5.205629342805443566e-03
4.088981713757527814e+03 2.833274880650815120e-01 5.154747145639320370e-03
4.093070695471286854e+03 2.783026483245661931e-01 5.185510373998213421e-03
4.097163766166759160e+03 2.750834341232702984e-01 5.184762106053164392e-03
4.101260929932927866e+03 2.719522979210046709e-01 5.158473161538884057e-03
4.105362190862862008e+03 2.682996429683234263e-01 5.174723028855109271e-03
4.109467553053726078e+03 2.605334579095847647e-01 5.318965423423126573e-03
4.113577020606780934e+03 2.567519770560675041e-01 5.254973439676578588e-03
4.117690597627389252e+03 2.564116979957232201e-01 5.346292412815867312e-03
4.121808288225018259e+03 2.580291328022890074e-01 5.394250309203271233e-03
4.125930096513244280e+03 2.602736685581199527e-01 5.589122506946103339e-03
4.130056026609759101e+03 2.602354358709831339e-01 5.571664746301352791e-03
4.134186082636369974e+03 2.576677747346113878e-01 5.527114429515866956e-03
4.138320268719007800e+03 2.569549697189961734e-01 5.528695538354445362e-03
4.142458588987728035e+03 2.608444236491997970e-01 5.088986799877151697e-03
4.146601047576717065e+03 2.654309239291214317e-01 3.487730423050146647e-03
4.150747648624294925e+03 2.627404207736134811e-01 3.377668706250995957e-03
4.154898396272920763e+03 2.512094718796996640e-01 3.935609110960566759e-03
4.159053294669195566e+03 2.374928131928674968e-01 4.070881850655730903e-03
4.163212347963865795e+03 2.234102523167485754e-01 3.795211834230202003e-03
4.167375560311830668e+03 2.127690136040253088e-01 3.628147448010490220e-03
4.171542935872143971e+03 2.080495016955204723e-01 4.059936636154006309e-03
4.175714478808017702e+03 2.015690790699476154e-01 4.221642002696283577e-03
4.179890193286827525e+03 1.955347083693973476e-01 4.369973349881477176e-03
4.184070083480115500e+03 1.869514956501958924e-01 4.346364987065938663e-03
4.188254153563597356e+03 1.794543460630680654e-01 4.332846495067418924e-03
4.192442407717161586e+03 1.746523047566034548e-01 4.316801175609183763e-03
4.196634850124880359e+03 1.704111379521754954e-01 4.183933966037388895e-03
4.200831484975006788e+03 1.656690340879247991e-01 4.190804696502893785e-03
4.205032316459983122e+03 1.583174705684849137e-01 4.126503472924274510e-03
4.209237348776444378e+03 1.510705983253611273e-01 3.834697561261295878e-03
4.213446586125221984e+03 1.455409395250866766e-01 3.870250308922042887e-03
4.217660032711349231e+03 1.400697646088198967e-01 3.852709298347068573e-03
4.221877692744061278e+03 1.325450914196177887e-01 3.637699190584487742e-03
4.226099570436806971e+03 1.274249123211878831e-01 3.638664389294174809e-03
4.230325670007245208e+03 1.264195789537985171e-01 3.574310327625969137e-03
4.234555995677254032e+03 1.287142287351863978e-01 3.352898015900676165e-03
4.238790551672932452e+03 1.328685046020876281e-01 3.237060895658594537e-03
4.243029342224606808e+03 1.378088375546942246e-01 3.320724522606711103e-03
4.247272371566832589e+03 1.397661572182380962e-01 3.149732162828458321e-03
4.251519643938400804e+03 1.395386732505500826e-01 2.838487318000295582e-03
4.255771163582340705e+03 1.451972265561368713e-01 2.923128288948677583e-03
4.260026934745924336e+03 1.589662673786473579e-01 2.839772719395479775e-03
4.264286961680671993e+03 1.760355959486154531e-01 2.824736302330727727e-03
4.268551248642354039e+03 1.959815969615791853e-01 2.834635499778591188e-03
4.272819799890998183e+03 2.174049887738038755e-01 2.944979533883496352e-03
4.277092619690890388e+03 2.394864623047333885e-01 3.383568674047370429e-03
4.281369712310583054e+03 2.606305407617907077e-01 3.486848382114036884e-03
4.285651082022895025e+03 2.758382297151110718e-01 3.392914666722540371e-03
4.289936733104918858e+03 2.860317836987225082e-01 3.352461092723238965e-03
4.294226669838025373e+03 2.922150063588740965e-01 3.318646025106086229e-03
4.298520896507864563e+03 2.933811142977887365e-01 3.429942096713387359e-03
4.302819417404373780e+03 2.892100565126022316e-01 3.492609840818127181e-03
4.307122236821779552e+03 2.803225020028113357e-01 3.466131922305035196e-03
4.311429359058603040e+03 2.694627168352971003e-01 3.202114065398665478e-03
4.315740788417662770e+03 2.595649847871607241e-01 2.733152927142208036e-03
4.320056529206081905e+03 2.544013432727778579e-01 2.855636503303731529e-03
4.324376585735290064e+03 2.525325636821125208e-01 2.727785984890179760e-03
4.328700962321026054e+03 2.535877863709231628e-01 2.219439610530434502e-03
4.333029663283348782e+03 2.550840000579943645e-01 2.245928344374117664e-03
4.337362692946633615e+03 2.573309913336553345e-01 2.279836348825564282e-03
4.341700055639581478e+03 2.591285897740928101e-01 2.389745023665197383e-03
4.346041755695222491e+03 2.605993381119210417e-01 2.435150687328367473e-03
4.350387797450919606e+03 2.634914259977035877e-01 2.683957422103013836e-03
4.354738185248371337e+03 2.641044656016272585e-01 2.898246476802064132e-03
4.359092923433621763e+03 2.635865093333502607e-01 2.849418426294890276e-03
4.363452016357056891e+03 2.583201553798627481e-01 2.710479091886420361e-03
4.367815468373414660e+03 2.490770621002462437e-01 2.737477243043170971e-03
4.372183283841789489e+03 2.349429137140623958e-01 2.907867348067730198e-03
4.376555467125633186e+03 2.210299102172650632e-01 3.003874850704347371e-03
4.380932022592760404e+03 2.065012871709783204e-01 3.073288175981717454e-03
4.385312954615354101e+03 1.940988575088429535e-01 2.955119067122892289e-03
4.389698267569970994e+03 1.831741281905410190e-01 2.769206821629333331e-03
4.394087965837542470e+03 1.758430007356309166e-01 2.412611180460427253e-03
4.398482053803381859e+03 1.753714991456653272e-01 2.665809874501702710e-03
4.402880535857186260e+03 1.780720491422586871e-01 2.619796693224252498e-03
4.407283416393044718e+03 1.831226720544111564e-01 2.714274190513347746e-03
4.411690699809440048e+03 1.893906810197814594e-01 2.530201897050455770e-03
4.416102390509250654e+03 1.964591289237022920e-01 2.159388428469766977e-03
4.420518492899761441e+03 1.983767747779309754e-01 2.147221583121287306e-03
4.424939011392662906e+03 1.962472173889363292e-01 2.477973401742280569e-03
4.429363950404056595e+03 1.921879425264614027e-01 2.011611266027189381e-03
4.433793314354462382e+03 1.901963132039745374e-01 2.050389914859295643e-03
4.438227107668818462e+03 1.902023183225607372e-01 2.029695132090150646e-03
4.442665334776488635e+03 1.929065930842299437e-01 1.986510166393904223e-03
4.447108000111265937e+03 1.982832453497563874e-01 2.203799472591980516e-03
4.451555108111379013e+03 2.054647418269330561e-01 2.401156698793540170e-03
4.456006663219492111e+03 2.134094157208150655e-01 2.503748769202682536e-03
4.460462669882713271e+03 2.213313878215829311e-01 2.454857952310936665e-03
4.464923132552597053e+03 2.258901148725796504e-01 2.302615586905493866e-03
4.469388055685150903e+03 2.256002992658179274e-01 2.608571345486703549e-03
4.473857443740837880e+03 2.210603092645291867e-01 3.237073205258595310e-03
4.478331301184580298e+03 2.178179310389330992e-01 3.457453229350823144e-03
4.482809632485766087e+03 2.164972751964909237e-01 3.260917887705579513e-03
4.487292442118253348e+03 2.167164160068428824e-01 2.891181686258421663e-03
4.491779734560373072e+03 2.207502115071241777e-01 2.605398509178370563e-03
4.496271514294934605e+03 2.312544993496343237e-01 3.028831205857368102e-03
4.500767785809231100e+03 2.478360853278099851e-01 2.965403370962126171e-03
4.505268553595042249e+03 2.645452696062339237e-01 2.976485358835778434e-03
4.509773822148638828e+03 2.813092337326723591e-01 2.864737269549819977e-03
4.514283595970789065e+03 2.991672070209910328e-01 2.864295808320765999e-03
4.518797879566761367e+03 3.182629957537707610e-01 2.820426129605748452e-03
4.523316677446328868e+03 3.385741499075313743e-01 2.841725105223772210e-03
4.527839994123776705e+03 3.557554749452617737e-01 2.759387535133333343e-03
4.532367834117902021e+03 3.713708762581008904e-01 2.774189448567436923e-03
4.536900201952022144e+03 3.867967803067262067e-01 2.741603863483235010e-03
4.541437102153975502e+03 4.031635760989028539e-01 2.756268882293790631e-03
4.545978539256130716e+03 4.217740441806059337e-01 2.736352991365737820e-03
4.550524517795388419e+03 4.433672026071757144e-01 2.518595866405242897e-03
4.555075042313184895e+03 4.634623809213168077e-01 2.495414765367752735e-03
4.559630117355500261e+03 4.837740623654864791e-01 2.544930729292458390e-03
4.564189747472856652e+03 5.028714038919895879e-01 2.640588246803448908e-03
4.568753937220330954e+03 5.212539054482053791e-01 2.731236168504653106e-03
4.573322691157552981e+03 5.353577623807237451e-01 2.777717638793610316e-03
4.577896013848711846e+03 5.463693184819199411e-01 2.708655045570357734e-03
4.582473909862562323e+03 5.537805469118739499e-01 2.655202984379773611e-03
4.587056383772426670e+03 5.575210304110741477e-01 2.615613509258447184e-03
4.591643440156200086e+03 5.594689310625944323e-01 2.602978367079331924e-03
4.596235083596357981e+03 5.545352499841208482e-01 2.513359103239387691e-03
4.600831318679955984e+03 5.437491782038863519e-01 2.412685609122008391e-03
4.605432149998637215e+03 5.289349284576513321e-01 2.393378669287002814e-03
4.610037582148637739e+03 5.130746274659214734e-01 2.615979582930179868e-03
4.614647619730787483e+03 4.984244353292957008e-01 2.629615464293153480e-03
4.619262267350520233e+03 4.845271223417231821e-01 2.791866483351960939e-03
4.623881529617872729e+03 4.689700987498153784e-01 3.609398857256780960e-03
4.628505411147491941e+03 4.622004924678299043e-01 3.496243184846716066e-03
4.633133916558640522e+03 4.622538671587838044e-01 3.583462821815883940e-03
4.637767050475200449e+03 4.678151447255859963e-01 3.943280357396467851e-03
4.642404817525677572e+03 4.765602838997572976e-01 4.282875053507261345e-03
4.647047222343205249e+03 4.872137747653755846e-01 4.399612684878804504e-03
4.651694269565549803e+03 4.976716191949184798e-01 4.204508378154250998e-03
4.656345963835116891e+03 5.051721972027656271e-01 3.769022752448630224e-03
4.661002309798953320e+03 5.068667697267749128e-01 3.752054099134091020e-03
4.665663312108753416e+03 5.047365609642996409e-01 3.823379442290535373e-03
4.670328975420864481e+03 4.956538180990406328e-01 3.737791874481396007e-03
4.674999304396286789e+03 4.775781608211382423e-01 3.606850548009898298e-03
4.679674303700684504e+03 4.557301016958568152e-01 3.268962468502415071e-03
4.684353978004386590e+03 4.349621863854763459e-01 3.615133239179742827e-03
4.689038331982392265e+03 4.100214333279963430e-01 3.918625887965369002e-03
4.693727370314376458e+03 3.785357794161571809e-01 3.980314974027831035e-03
4.698421097684692540e+03 3.408994250066875176e-01 3.985951792081339484e-03
4.703119518782378691e+03 3.027900079232636044e-01 4.071909659488182238e-03
4.707822638301162442e+03 2.592728198418293162e-01 5.422735522000326353e-03
4.712530460939465229e+03 2.187646922270889971e-01 5.193775642993097436e-03
4.717242991400406027e+03 1.864022318766989650e-01 4.248715022478945051e-03
4.721960234391808626e+03 1.672054090191751607e-01 3.826272517832309938e-03
4.726682194626201635e+03 1.638373440299230044e-01 3.860064366305332711e-03
4.731408876820829391e+03 1.732368076655295408e-01 4.133195082630278586e-03
4.736140285697651962e+03 1.965153670171584377e-01 4.476221270498858401e-03
4.740876425983350600e+03 2.312048832270717780e-01 4.424541398076562750e-03
4.745617302409335934e+03 2.714033304121514223e-01 4.095982579251095622e-03
4.750362919711747054e+03 3.117624685819856967e-01 3.663547759386238858e-03
4.755113282631459697e+03 3.514367159666078044e-01 2.933849624164082490e-03
4.759868395914093526e+03 3.845986275202889493e-01 2.627902805120836856e-03
4.764628264310008490e+03 4.067431116119127332e-01 2.556244169334221609e-03
4.769392892574320285e+03 4.189008443940354098e-01 2.536291097927504627e-03
4.774162285466896719e+03 4.287324942411183670e-01 2.432924791450572118e-03
4.778936447752364984e+03 4.385871070702043184e-01 2.258403606609537314e-03
4.783715384200118933e+03 4.495230302056981708e-01 2.243114486809417042e-03
4.788499099584319993e+03 4.592526913548977685e-01 2.248128866317071744e-03
4.793287598683906253e+03 4.693192101899614221e-01 2.499731995147931769e-03
4.798080886282591564e+03 4.773967723224135096e-01 3.279087395948077684e-03
4.802878967168876443e+03 4.823448251182658741e-01 3.377343299109227502e-03
4.807681846136046261e+03 4.812055742884829290e-01 3.165107036041330847e-03
4.812489527982183972e+03 4.752321369151685237e-01 3.450091735503569689e-03
4.817302017510168298e+03 4.697627781207587838e-01 3.561884290349098901e-03
4.822119319527679181e+03 4.623069811631445036e-01 3.548912747316175075e-03
4.826941438847208701e+03 4.494766274578022025e-01 3.891854972785324662e-03
4.831768380286057436e+03 4.369906092456963820e-01 4.501863549169575311e-03
4.836600148666345376e+03 4.311925693583664732e-01 4.005076882455905866e-03
4.841436748815013743e+03 4.360728831298645858e-01 3.991153356385913724e-03
4.846278185563829538e+03 4.501009242289936707e-01 4.617954989465657481e-03
4.851124463749395545e+03 4.700235908365598125e-01 4.873814901712758031e-03
4.855975588213146693e+03 4.909542437545083571e-01 4.732109857987961028e-03
4.860831563801360971e+03 5.106896288554775287e-01 4.322278383213261181e-03
4.865692395365163975e+03 5.262843289744990605e-01 4.018760095804753581e-03
4.870558087760530725e+03 5.354872179850600489e-01 3.817368057361894117e-03
4.875428645848292945e+03 5.348079425802474418e-01 3.860773650886921253e-03
4.880304074494142696e+03 5.240212417041232307e-01 3.936265279163978816e-03
4.885184378568638749e+03 5.072324904160122605e-01 4.021965576949552978e-03
4.890069562947209306e+03 4.879509994563280828e-01 4.145091907945350901e-03
4.894959632510157462e+03 4.678138717398190871e-01 4.064516574569767421e-03
4.899854592142669389e+03 4.433765302766332628e-01 3.579782574478450590e-03
4.904754446734813428e+03 4.205383693939330758e-01 3.295398308436048133e-03
4.909659201181550088e+03 4.072954199577993872e-01 3.236984961138480478e-03
4.914568860382732964e+03 4.053610230590544150e-01 2.805591473980462158e-03
4.919483429243117826e+03 4.052344468234156949e-01 2.735965140296766750e-03
4.924402912672362618e+03 4.064287046484802990e-01 2.680432017594398548e-03
4.929327315585036558e+03 4.151695284368139283e-01 2.467979676903935601e-03
4.934256642900622865e+03 4.351922196617513672e-01 2.531776773454391151e-03
4.939190899543525120e+03 4.664427567554189635e-01 2.820993730204781561e-03
4.944130090443070912e+03 5.048327612559297961e-01 3.032503404569807971e-03
4.949074220533515472e+03 5.472987214196068928e-01 3.070398102437583380e-03
4.954023294754050767e+03 5.942872779283608908e-01 3.086562549340425305e-03
4.958977318048806410e+03 6.456008491427489560e-01 3.172433418616922487e-03
4.963936295366856939e+03 6.991579125391597094e-01 3.258291215732959673e-03
4.968900231662225451e+03 7.524093239038238679e-01 3.291699798295427085e-03
4.973869131893889062e+03 8.068911851641465960e-01 3.934803925628940421e-03
4.978843001025784361e+03 8.568747072234100814e-01 4.997124852630887258e-03
4.983821844026811959e+03 8.958412031789800833e-01 6.021960105330780369e-03
4.988805665870840130e+03 9.184832360743054869e-01 5.776684302683273223e-03
4.993794471536712990e+03 9.209967182193696811e-01 6.027310091113317544e-03
4.998788266008251412e+03 9.052132472033824762e-01 6.574627578850701301e-03
5.003787054274261209e+03 8.771092724951694564e-01 7.556739659656948674e-03
5.008790841328536771e+03 8.413393805777270584e-01 9.180882018724356719e-03
5.013799632169867436e+03 8.122943321239576298e-01 8.887238359949924463e-03
5.018813431802038394e+03 7.866198142360595336e-01 8.664315793300122331e-03
5.023832245233842514e+03 7.640649341281162688e-01 9.134598366678237102e-03
5.028856077479077612e+03 7.407177051009755653e-01 9.411806801656407914e-03
5.033884933556558281e+03 7.214613090842539878e-01 9.433645081970332483e-03
5.038918818490116792e+03 7.097685337777288606e-01 8.819717352044436492e-03
5.043957737308608557e+03 6.955016821003446870e-01 8.209812011443674493e-03
5.049001695045918495e+03 6.773411746361267527e-01 7.518516597917739887e-03
5.054050696740966487e+03 6.472024912528924201e-01 7.330602954851238306e-03
5.059104747437709193e+03 6.055285244007050371e-01 8.103004291996169020e-03
5.064163852185148244e+03 5.498929290749257071e-01 8.213448021496733142e-03
5.069228016037335692e+03 5.017002863108703803e-01 7.112731345812925779e-03
