# starting wavelength: 3690.150
# ending wavelength: 7526.900
# wav flux eflux
3.692659519139885560e+03 1.846834834329312613e+00 8.787762623208987822e-01
3.696352178659026777e+03 1.829418633543215433e+00 6.443610328983330193e-01
3.700048530837686940e+03 1.822982637529555250e+00 4.860810715749878108e-01
3.703748579368525952e+03 1.824346651951264331e+00 3.735133192497616106e-01
3.707452327947895355e+03 1.764059197072337160e+00 3.002009000791457383e-01
3.711159780275844696e+03 1.747362152754566411e+00 2.372681262303910354e-01
3.714870940056121526e+03 1.735137594283446383e+00 1.920468355126803972e-01
3.718585810996179134e+03 1.727031630099821635e+00 1.645994545460331138e-01
3.722304396807176545e+03 1.716733197454812565e+00 1.402495236264575396e-01
3.726026701203984885e+03 1.715296449645782317e+00 1.207776315805750428e-01
3.729752727905190113e+03 1.716318978528650563e+00 1.066075085907274150e-01
3.733482480633096657e+03 1.709055759498497196e+00 9.559100329892099290e-02
3.737215963113731050e+03 1.673372717844857416e+00 8.845313199866100540e-02
3.740953179076846027e+03 1.663652539396350605e+00 8.269643990663061439e-02
3.744694132255923705e+03 1.603407109564895627e+00 7.911547227943520333e-02
3.748438826388181042e+03 1.574466860053369555e+00 7.544794524487631604e-02
3.752187265214570289e+03 1.513938380686388419e+00 7.271379773381676792e-02
3.755939452479786269e+03 1.446087971802952232e+00 7.056867191716231780e-02
3.759695391932267285e+03 1.365196298007111952e+00 6.906335533828622530e-02
3.763455087324201031e+03 1.284142873172048116e+00 6.480247440562900141e-02
3.767218542411526414e+03 1.156433483342838020e+00 6.140493439295827138e-02
3.770985760953939007e+03 1.047767134090824781e+00 5.970514140678856441e-02
3.774756746714894234e+03 9.726605211761228942e-01 5.851666389102175292e-02
3.778531503461610555e+03 8.784725617920677854e-01 5.653811565324125266e-02
3.782310034965073100e+03 7.980038560351482291e-01 5.597204792750568036e-02
3.786092345000039586e+03 7.508275392936378800e-01 5.668657885442619782e-02
3.789878437345040766e+03 7.096364164362376492e-01 5.498826703296077340e-02
3.793668315782387253e+03 6.502623956469952837e-01 5.483281603326765202e-02
3.797461984098170888e+03 6.188574800895803030e-01 5.526308099770783216e-02
3.801259446082270188e+03 5.911470626593915423e-01 5.431583982982998021e-02
3.805060705528353537e+03 5.972577399191545400e-01 5.165616862902371736e-02
3.808865766233883278e+03 5.869427189018576740e-01 5.220826249045043554e-02
3.812674632000118436e+03 5.906138366625827141e-01 5.199214248585753290e-02
3.816487306632119726e+03 5.904005748026120992e-01 5.342162215469010988e-02
3.820303793938753188e+03 6.205349227536343104e-01 5.320295604794712807e-02
3.824124097732693372e+03 6.464791688811227788e-01 5.352093601868017358e-02
3.827948221830427428e+03 6.905101375225302096e-01 5.320305701063477583e-02
3.831776170052258749e+03 7.335531912511291663e-01 5.284374327122759452e-02
3.835607946222312421e+03 7.562509866634671285e-01 5.250342396300895775e-02
3.839443554168536139e+03 8.127511486501801663e-01 5.042148886059310414e-02
3.843282997722705659e+03 8.390732785975298924e-01 5.016362121466780982e-02
3.847126280720429804e+03 8.383228570223392184e-01 4.832633268970081691e-02
3.850973407001151372e+03 8.533070721403915870e-01 4.529722375758802461e-02
3.854824380408153957e+03 8.729768437476382870e-01 4.554517795358737492e-02
3.858679204788563311e+03 8.839628138991950657e-01 4.495684565754787254e-02
3.862537883993353262e+03 8.897936781307589360e-01 4.529823465793089005e-02
3.866400421877347981e+03 9.056599871053596651e-01 4.346925070922633833e-02
3.870266822299226533e+03 8.984037352849010283e-01 4.335851157710536585e-02
3.874137089121526969e+03 9.248037561148214625e-01 3.962562704019620408e-02
3.878011226210649966e+03 9.090504967165298211e-01 4.246726277605575306e-02
3.881889237436861549e+03 9.026077518150303902e-01 4.242462962003833854e-02
3.885771126674299921e+03 8.877410436004453675e-01 4.105313879269222727e-02
3.889656897800975457e+03 8.450964159261715736e-01 3.814371968662136347e-02
3.893546554698777527e+03 8.178112725176718278e-01 3.797720955023705519e-02
3.897440101253477678e+03 8.229951950610068234e-01 3.885323393082899812e-02
3.901337541354732366e+03 8.159806704272638544e-01 3.875669353659660227e-02
3.905238878896088409e+03 8.336915349366463834e-01 3.597196810952164869e-02
3.909144117774985716e+03 8.277420871080218845e-01 3.645465904869654022e-02
3.913053261892762293e+03 8.307511128494169395e-01 3.675660086616303751e-02
3.916966315154656058e+03 8.474397788270502385e-01 3.538278270287573829e-02
3.920883281469812118e+03 8.778736920849993242e-01 3.497743528196241292e-02
3.924804164751283224e+03 9.074346610598738039e-01 3.549623650916143569e-02
3.928728968916035683e+03 9.219420827002680063e-01 3.384647220894792391e-02
3.932657697884953450e+03 9.309873619316983984e-01 3.225699627026482746e-02
3.936590355582839493e+03 9.224540970406776008e-01 3.407432898252155118e-02
3.940526945938423523e+03 9.453851489846190059e-01 3.449808553699473118e-02
3.944467472884363360e+03 9.928406154919916515e-01 3.572451638616921249e-02
3.948411940357249023e+03 9.976665217696946142e-01 3.628137637775328411e-02
3.952360352297607733e+03 1.021547121844697426e+00 3.585435289523992985e-02
3.956312712649906643e+03 1.040434144652078174e+00 3.637577385738412217e-02
3.960269025362557841e+03 1.052980971917431896e+00 3.849000509417158100e-02
3.964229294387921527e+03 1.081385213276234047e+00 3.805276178662889142e-02
3.968193523682310570e+03 1.102662162335082963e+00 3.877860022470919210e-02
3.972161717205994591e+03 1.101552894911039804e+00 3.926677243939336037e-02
3.976133878923201792e+03 1.097140774424765874e+00 3.952758668443233370e-02
3.980110012802126221e+03 1.088984174559961104e+00 3.950580821625288008e-02
3.984090122814929600e+03 1.072252995047535240e+00 3.719628359769020648e-02
3.988074212937745870e+03 1.057243294517158150e+00 3.857566859351869992e-02
3.992062287150684824e+03 1.038382857462931019e+00 3.790435634804764642e-02
3.996054349437837118e+03 1.030195332673462971e+00 3.803611303023744089e-02
4.000050403787276082e+03 1.059277828319071801e+00 3.794099131996583191e-02
4.004050454191064546e+03 1.096612273701248030e+00 3.930765707739035386e-02
4.008054504645257111e+03 1.125236595556988073e+00 4.047645106424741651e-02
4.012062559149903791e+03 1.151121846480503308e+00 4.053638935422939488e-02
4.016074621709055009e+03 1.174768614498657326e+00 4.139469832608638072e-02
4.020090696330765240e+03 1.236079331820824967e+00 3.828953554757300731e-02
4.024110787027097558e+03 1.277721855055965472e+00 3.778017436673212354e-02
4.028134897814125907e+03 1.277324097779167555e+00 3.915666004784837395e-02
4.032163032711941469e+03 1.245482825390810122e+00 4.077681006083707510e-02
4.036195195744654484e+03 1.250473723431295481e+00 3.918882381220341327e-02
4.040231390940400615e+03 1.213884009996662128e+00 4.129601183112884683e-02
4.044271622331342314e+03 1.173904820051751896e+00 3.684241714190605865e-02
4.048315893953675186e+03 1.155992841244561697e+00 3.880239439967900217e-02
4.052364209847629809e+03 1.113792410018519474e+00 3.697877728479085496e-02
4.056416574057479011e+03 1.100506503669131719e+00 3.686405296050387914e-02
4.060472990631537868e+03 1.087648031085022504e+00 3.544817096753967445e-02
4.064533463622170530e+03 1.104727339734673075e+00 3.566987632151389503e-02
4.068597997085794304e+03 1.131710404204298914e+00 3.474896767107778228e-02
4.072666595082881486e+03 1.129549972799515745e+00 3.533840573056286349e-02
4.076739261677965715e+03 1.093962477159428071e+00 3.658042313838598403e-02
4.080816000939644709e+03 1.040876691636115847e+00 3.782205376976743860e-02
4.084896816940585722e+03 1.028604391289604569e+00 3.757866181111359227e-02
4.088981713757527814e+03 1.022022854525772795e+00 3.847175422457325272e-02
4.093070695471286854e+03 1.014304345096099125e+00 3.676674670395176092e-02
4.097163766166759160e+03 1.035066462803738707e+00 3.609807085841237884e-02
4.101260929932927866e+03 1.082689800269649671e+00 3.873783717970001594e-02
4.105362190862862008e+03 1.152617323846279351e+00 3.936865693577523695e-02
4.109467553053726078e+03 1.174798748749394939e+00 4.013857926462405246e-02
4.113577020606780934e+03 1.182428683582091855e+00 4.101669404940549296e-02
4.117690597627389252e+03 1.230856907958357338e+00 3.997641157535900686e-02
4.121808288225018259e+03 1.257687002698993695e+00 3.982333949364772613e-02
4.125930096513244280e+03 1.276293349949633393e+00 3.874984810529771145e-02
4.130056026609759101e+03 1.286538194890268993e+00 3.778078465634458066e-02
4.134186082636369974e+03 1.253675327881233148e+00 3.569551984411316325e-02
4.138320268719007800e+03 1.226654676702837010e+00 3.802628368436145739e-02
4.142458588987728035e+03 1.174306753774941647e+00 3.733968209555842133e-02
4.146601047576717065e+03 1.169717784952664541e+00 3.627592873101688487e-02
4.150747648624294925e+03 1.148663029729009466e+00 3.573551351753292971e-02
4.154898396272920763e+03 1.147262155302173348e+00 3.711964198287499156e-02
4.159053294669195566e+03 1.106043438417718905e+00 3.979996565411878656e-02
4.163212347963865795e+03 1.106390399022531223e+00 4.014206583986265620e-02
4.167375560311830668e+03 1.084507952837180600e+00 4.005524264449038252e-02
4.171542935872143971e+03 1.093890062913348338e+00 4.134488933948560208e-02
4.175714478808017702e+03 1.078746838575790790e+00 4.049600485219914670e-02
4.179890193286827525e+03 1.087114682256642650e+00 3.939988190086331221e-02
4.184070083480115500e+03 1.088255968990522904e+00 3.966001807181319255e-02
4.188254153563597356e+03 1.078480302328928664e+00 3.802372654762101872e-02
4.192442407717161586e+03 1.057912392562790682e+00 3.614018261984715957e-02
4.196634850124880359e+03 1.049712235515217529e+00 3.623725294440070799e-02
4.200831484975006788e+03 1.045805463365970800e+00 3.682913233538021025e-02
4.205032316459983122e+03 1.054223552898961636e+00 3.662899005095122951e-02
4.209237348776444378e+03 1.088679765194655591e+00 3.691030661942788782e-02
4.213446586125221984e+03 1.105270687778137306e+00 3.755780594725051380e-02
4.217660032711349231e+03 1.155239318269288162e+00 3.728696232810200378e-02
4.221877692744061278e+03 1.168411046454819857e+00 3.512813069343798805e-02
4.226099570436806971e+03 1.194779420229920230e+00 3.464504336982002219e-02
4.230325670007245208e+03 1.211827878025970140e+00 3.517208534466398362e-02
4.234555995677254032e+03 1.228540912101377280e+00 3.481901230573788281e-02
4.238790551672932452e+03 1.214360696106578930e+00 3.110103673602677976e-02
4.243029342224606808e+03 1.222557411806411309e+00 3.023083756625107726e-02
4.247272371566832589e+03 1.190256189735949377e+00 3.053871215818045395e-02
4.251519643938400804e+03 1.167143871611469708e+00 2.920727421206285868e-02
4.255771163582340705e+03 1.125682555958456232e+00 2.841173209820023124e-02
4.260026934745924336e+03 1.084926810280893550e+00 2.972416617641699885e-02
4.264286961680671993e+03 1.030267319117730285e+00 2.635968156400392629e-02
4.268551248642354039e+03 1.044164162603677948e+00 2.663312399609461117e-02
4.272819799890998183e+03 1.068472431390921074e+00 2.855654922647180016e-02
4.277092619690890388e+03 1.084186929431279589e+00 2.931008902592080120e-02
4.281369712310583054e+03 1.101232032494157576e+00 3.070308311147921035e-02
4.285651082022895025e+03 1.128931335770747779e+00 2.995456778747340038e-02
4.289936733104918858e+03 1.137588671919270489e+00 3.045819982668163117e-02
4.294226669838025373e+03 1.150467705319729195e+00 3.049206610709544185e-02
4.298520896507864563e+03 1.169456912327901943e+00 2.929858173970950608e-02
4.302819417404373780e+03 1.166544200249287178e+00 2.900284675956434771e-02
4.307122236821779552e+03 1.149441816362623880e+00 3.070608888514379797e-02
4.311429359058603040e+03 1.152388169271673757e+00 2.875915973704772088e-02
4.315740788417662770e+03 1.162259531636583576e+00 2.846326150551980669e-02
4.320056529206081905e+03 1.178246879895357369e+00 2.796326634430914421e-02
4.324376585735290064e+03 1.220070823624028300e+00 2.809849772904735032e-02
4.328700962321026054e+03 1.276977298237192970e+00 2.905905137064275848e-02
4.333029663283348782e+03 1.305298861970628277e+00 2.674768902425362846e-02
4.337362692946633615e+03 1.317115774413464946e+00 2.786424474625537329e-02
4.341700055639581478e+03 1.315747185107896122e+00 2.785160691374156602e-02
4.346041755695222491e+03 1.297886244235402664e+00 2.710585162215885247e-02
4.350387797450919606e+03 1.288919304290550905e+00 2.612497577013919714e-02
4.354738185248371337e+03 1.276255897446574528e+00 2.536765366206348779e-02
4.359092923433621763e+03 1.269005683406302820e+00 2.511039820502304273e-02
4.363452016357056891e+03 1.259443440764182354e+00 2.490650050149331371e-02
4.367815468373414660e+03 1.254312330395025876e+00 2.319414025678133082e-02
4.372183283841789489e+03 1.261147087261414779e+00 2.295430025638242610e-02
4.376555467125633186e+03 1.264798025044344465e+00 2.133805495230645458e-02
4.380932022592760404e+03 1.276459472566662923e+00 2.153581814527811070e-02
4.385312954615354101e+03 1.270190990548856202e+00 2.121186783223575137e-02
4.389698267569970994e+03 1.242803052629158245e+00 2.255798044033761884e-02
4.394087965837542470e+03 1.222677318234150823e+00 2.235970110184710286e-02
4.398482053803381859e+03 1.187702141207958251e+00 2.271332499711054692e-02
4.402880535857186260e+03 1.160203807750325833e+00 2.062779521771508640e-02
4.407283416393044718e+03 1.147648134602363701e+00 1.985543952816021251e-02
4.411690699809440048e+03 1.189390161465475826e+00 2.437609157543789429e-02
4.416102390509250654e+03 1.189853177499502701e+00 2.406381815466657539e-02
4.420518492899761441e+03 1.201359794362352185e+00 2.413359832803201044e-02
4.424939011392662906e+03 1.226040624756946196e+00 2.374018695820666672e-02
4.429363950404056595e+03 1.260700568933896815e+00 2.406281691792095875e-02
4.433793314354462382e+03 1.283602646476526221e+00 2.357364485826026618e-02
4.438227107668818462e+03 1.296686931970533863e+00 2.380429739025387639e-02
4.442665334776488635e+03 1.304484935403077639e+00 2.413963095581624432e-02
4.447108000111265937e+03 1.298765704464150295e+00 2.428388622656672130e-02
4.451555108111379013e+03 1.301463123142074352e+00 2.487140295652256680e-02
4.456006663219492111e+03 1.296972982731287027e+00 2.485355757581138303e-02
4.460462669882713271e+03 1.289854497791603993e+00 2.502615960586354257e-02
4.464923132552597053e+03 1.287399450778725418e+00 2.510158305117851305e-02
4.469388055685150903e+03 1.299568365637438161e+00 2.456360600386669688e-02
4.473857443740837880e+03 1.314394121051461584e+00 2.498067402675921075e-02
4.478331301184580298e+03 1.321174009765173851e+00 2.364132302368733909e-02
4.482809632485766087e+03 1.299212018280951453e+00 2.390963311230261817e-02
4.487292442118253348e+03 1.285641603404302558e+00 2.424186408244777963e-02
4.491779734560373072e+03 1.250656024193882443e+00 2.474213551344158629e-02
4.496271514294934605e+03 1.239045163445513520e+00 2.403311247915179000e-02
4.500767785809231100e+03 1.209094674726523433e+00 2.205914426039006296e-02
4.505268553595042249e+03 1.192336794740000983e+00 2.292642792831282167e-02
4.509773822148638828e+03 1.183673923514719784e+00 2.182531279074623534e-02
4.514283595970789065e+03 1.196429413877984294e+00 2.172853293037069894e-02
4.518797879566761367e+03 1.224441675442822897e+00 2.300786374262031586e-02
4.523316677446328868e+03 1.235771256460842737e+00 2.299552731482556664e-02
4.527839994123776705e+03 1.268081930870791796e+00 2.281592861509734033e-02
4.532367834117902021e+03 1.287643450676841050e+00 2.279977940473948764e-02
4.536900201952022144e+03 1.295488828581268237e+00 2.365656728354335533e-02
4.541437102153975502e+03 1.320444623182398747e+00 2.216746030917421742e-02
4.545978539256130716e+03 1.327574202611205623e+00 2.237495067433455109e-02
4.550524517795388419e+03 1.318240409610577091e+00 1.975228583602055971e-02
4.555075042313184895e+03 1.312530162536543088e+00 1.966384942223768986e-02
4.559630117355500261e+03 1.329209340443879617e+00 2.025695140776859887e-02
4.564189747472856652e+03 1.340512516670431253e+00 2.131802138722787426e-02
4.568753937220330954e+03 1.343327908489128308e+00 2.143847259070130046e-02
4.573322691157552981e+03 1.354411009430813717e+00 2.058721771331492242e-02
4.577896013848711846e+03 1.362287507635481454e+00 2.025218883109817028e-02
4.582473909862562323e+03 1.379023948235154728e+00 2.047849044980829328e-02
4.587056383772426670e+03 1.379085022747572831e+00 1.989527246463311874e-02
4.591643440156200086e+03 1.377513384590811629e+00 1.969523132830224010e-02
4.596235083596357981e+03 1.390045056674803270e+00 1.952116964330457421e-02
4.600831318679955984e+03 1.383602663610509431e+00 1.932075686311674964e-02
4.605432149998637215e+03 1.378918827813356174e+00 1.907823166734867390e-02
4.610037582148637739e+03 1.373445324159174863e+00 1.880747049816343733e-02
4.614647619730787483e+03 1.361057324050020556e+00 1.803397426964806552e-02
4.619262267350520233e+03 1.356756157353435244e+00 1.783724273019594853e-02
4.623881529617872729e+03 1.332373011871043067e+00 1.670824547399173132e-02
4.628505411147491941e+03 1.333131680495396765e+00 1.651134137581670644e-02
4.633133916558640522e+03 1.342143858490150610e+00 1.703818145068678944e-02
4.637767050475200449e+03 1.343711760840887059e+00 1.723212476457903347e-02
4.642404817525677572e+03 1.353266059053124248e+00 1.835177209853648683e-02
4.647047222343205249e+03 1.360671423436680127e+00 1.768859162322186304e-02
4.651694269565549803e+03 1.352867317407854930e+00 1.730825073263201480e-02
4.656345963835116891e+03 1.345605764530241721e+00 1.632215418394236672e-02
4.661002309798953320e+03 1.312674647054626220e+00 1.734426314471416292e-02
4.665663312108753416e+03 1.287387377708170133e+00 1.727216224305737000e-02
4.670328975420864481e+03 1.252778514031755774e+00 1.795724921251048989e-02
4.674999304396286789e+03 1.220007955178360692e+00 1.629402778496483184e-02
4.679674303700684504e+03 1.193240662055237600e+00 1.626179841947174992e-02
4.684353978004386590e+03 1.171219808625102443e+00 1.534746952904187355e-02
4.689038331982392265e+03 1.163837040602068829e+00 1.575420892430568973e-02
4.693727370314376458e+03 1.157721496777283532e+00 1.567764342791897955e-02
4.698421097684692540e+03 1.167635735872670999e+00 1.507174358670489850e-02
4.703119518782378691e+03 1.175408468266545103e+00 1.467003646862059286e-02
4.707822638301162442e+03 1.171947662102622356e+00 1.527521729847634499e-02
4.712530460939465229e+03 1.164080679715124855e+00 1.533316117624106134e-02
4.717242991400406027e+03 1.163013564688706980e+00 1.513965239228061248e-02
4.721960234391808626e+03 1.161256543092712201e+00 1.516507914028755559e-02
4.726682194626201635e+03 1.163545552036352904e+00 1.525459550766407324e-02
4.731408876820829391e+03 1.168150144519187972e+00 1.475125782541248341e-02
4.736140285697651962e+03 1.174681931102343313e+00 1.577950916179008886e-02
4.740876425983350600e+03 1.170240592111523315e+00 1.524488036789392771e-02
4.745617302409335934e+03 1.169670757975102005e+00 1.507036618997681550e-02
4.750362919711747054e+03 1.166291938503580594e+00 1.490766890603016821e-02
4.755113282631459697e+03 1.149454497550445931e+00 1.615542448811595200e-02
4.759868395914093526e+03 1.132720483547944079e+00 1.568453082594162273e-02
4.764628264310008490e+03 1.125604182439441603e+00 1.554843130981600069e-02
4.769392892574320285e+03 1.119481499558561799e+00 1.621596840484377036e-02
4.774162285466896719e+03 1.096108462849592735e+00 1.536138267193557644e-02
4.778936447752364984e+03 1.075326214035264627e+00 1.551238061407689273e-02
4.783715384200118933e+03 1.058956828099780312e+00 1.570495897695338774e-02
4.788499099584319993e+03 1.057821476240105696e+00 1.636221464955410140e-02
4.793287598683906253e+03 1.049740180287385360e+00 1.600727915949414285e-02
4.798080886282591564e+03 1.041500826732006280e+00 1.626466948460703402e-02
4.802878967168876443e+03 1.031308814214051406e+00 1.670030443135385803e-02
4.807681846136046261e+03 1.024331992759702992e+00 1.636775763722373572e-02
