# starting wavelength: 3690.150
# ending wavelength: 7537.170
# wav flux eflux
3.692659519139885560e+03 8.451909814730366177e-01 2.821470357901654791e-01
3.696352178659026777e+03 7.937231962426122278e-01 2.042224719207011430e-01
3.700048530837686940e+03 7.520771246961032164e-01 1.530424312177412760e-01
3.703748579368525952e+03 7.231745770865459777e-01 1.165258580663433852e-01
3.707452327947895355e+03 6.998589053878951916e-01 9.184639795615602564e-02
3.711159780275844696e+03 6.972709616995635962e-01 7.260326089751553691e-02
3.714870940056121526e+03 7.021744936000982040e-01 5.964997338495317547e-02
3.718585810996179134e+03 7.201395817272371325e-01 5.624912420067031821e-02
3.722304396807176545e+03 7.361324706179281918e-01 4.916210018208742871e-02
3.726026701203984885e+03 7.381077085956128103e-01 4.553739986487598257e-02
3.729752727905190113e+03 7.274718054866440298e-01 4.248643748296040967e-02
3.733482480633096657e+03 7.251741226072283553e-01 3.814844568221574528e-02
3.737215963113731050e+03 7.232469115002639892e-01 3.492979541962187157e-02
3.740953179076846027e+03 7.246148159407497236e-01 3.247165803754977625e-02
3.744694132255923705e+03 7.252183660617776972e-01 3.063422653513139457e-02
3.748438826388181042e+03 7.271827376835787726e-01 2.909120131419216243e-02
3.752187265214570289e+03 7.254947366299810962e-01 2.804519551877827921e-02
3.755939452479786269e+03 7.214344588683242465e-01 2.723179193746667545e-02
3.759695391932267285e+03 7.121119050853178534e-01 2.639310788542016672e-02
3.763455087324201031e+03 7.033421540791900961e-01 2.635065142874954552e-02
3.767218542411526414e+03 6.924218182281687284e-01 2.663780019733316684e-02
3.770985760953939007e+03 6.730707513516757112e-01 2.633941430690835139e-02
3.774756746714894234e+03 6.489218602040093264e-01 2.606849339637742555e-02
3.778531503461610555e+03 6.273114155396242175e-01 2.617636524088753913e-02
3.782310034965073100e+03 6.045660564122258274e-01 2.588150496595184591e-02
3.786092345000039586e+03 5.884352690479579540e-01 2.607823301223723134e-02
3.789878437345040766e+03 5.790114125368723830e-01 2.576561344995427147e-02
3.793668315782387253e+03 5.698000923489644487e-01 2.552327108457655078e-02
3.797461984098170888e+03 5.727089250369330475e-01 2.503714937777423016e-02
3.801259446082270188e+03 5.559119643710724867e-01 2.333634426218538643e-02
3.805060705528353537e+03 5.412248444691004634e-01 2.261719112237491752e-02
3.808865766233883278e+03 5.384699643249455381e-01 2.258556521653549282e-02
3.812674632000118436e+03 5.343130295908722349e-01 2.227144211288780221e-02
3.816487306632119726e+03 5.322918674793416516e-01 2.222716810721737588e-02
3.820303793938753188e+03 5.405673870855459695e-01 2.191788337877674173e-02
3.824124097732693372e+03 5.348373520449956064e-01 2.005239655372611368e-02
3.827948221830427428e+03 5.381652461379957675e-01 2.005353553523291435e-02
3.831776170052258749e+03 5.490782673684463377e-01 1.991988585043421092e-02
3.835607946222312421e+03 5.625592574752820152e-01 2.006425291180975734e-02
3.839443554168536139e+03 5.884194060633136658e-01 1.899703695547679677e-02
3.843282997722705659e+03 6.189904944956834409e-01 1.752855938545497261e-02
3.847126280720429804e+03 6.542439162832622834e-01 1.456426912492241564e-02
3.850973407001151372e+03 6.602720796831543781e-01 9.911046554153044377e-03
3.854824380408153957e+03 6.726749110147318689e-01 7.676467517567541095e-03
3.858679204788563311e+03 6.888679532172273801e-01 7.170601862735260373e-03
3.862537883993353262e+03 7.089148203728196096e-01 7.374127881438793768e-03
3.866400421877347981e+03 7.306108336916325996e-01 7.671638468714318815e-03
3.870266822299226533e+03 7.526341616305386450e-01 7.777481858616299738e-03
3.874137089121526969e+03 7.751790592368080768e-01 8.083045818687725759e-03
3.878011226210649966e+03 7.987961997423557170e-01 8.044318144652852151e-03
3.881889237436861549e+03 8.186195419977324583e-01 7.994071114435404024e-03
3.885771126674299921e+03 8.322087394001737026e-01 8.095641153973312173e-03
3.889656897800975457e+03 8.476433981394720929e-01 7.790196055979517996e-03
3.893546554698777527e+03 8.582277081214486625e-01 7.455680774785018380e-03
3.897440101253477678e+03 8.647249427376243469e-01 7.409653232786917766e-03
3.901337541354732366e+03 8.723855289071701380e-01 7.547236590847716808e-03
3.905238878896088409e+03 8.762548662822181589e-01 7.578744565196628320e-03
3.909144117774985716e+03 8.799598072134741100e-01 7.587754478901719002e-03
3.913053261892762293e+03 8.847881281783266383e-01 7.605055140047456592e-03
3.916966315154656058e+03 8.924535709679756179e-01 7.662093419443610082e-03
3.920883281469812118e+03 8.899020723393560317e-01 7.312239896663438703e-03
3.924804164751283224e+03 8.845416939549255453e-01 6.826037988051508743e-03
3.928728968916035683e+03 8.811978967523342865e-01 6.871461688612196493e-03
3.932657697884953450e+03 8.810356755501136394e-01 6.646951594415212265e-03
3.936590355582839493e+03 8.805796899826113799e-01 6.533051939078301021e-03
3.940526945938423523e+03 8.740663432223209073e-01 7.015418333663744031e-03
3.944467472884363360e+03 8.748746001778223702e-01 7.088148207305556246e-03
3.948411940357249023e+03 8.735062306674615806e-01 7.103318884058154765e-03
3.952360352297607733e+03 8.715196140837062622e-01 7.371865138344586670e-03
3.956312712649906643e+03 8.698824256287486234e-01 7.225655849293400462e-03
3.960269025362557841e+03 8.681485828603973109e-01 7.167060234735098817e-03
3.964229294387921527e+03 8.681264585446669679e-01 6.891696111751598533e-03
3.968193523682310570e+03 8.728998386337106785e-01 6.815493563496417655e-03
3.972161717205994591e+03 8.828864513867458186e-01 6.651619025216031628e-03
3.976133878923201792e+03 8.951399125461110273e-01 6.662881789021634325e-03
3.980110012802126221e+03 9.098626089604614497e-01 6.317084766239816108e-03
3.984090122814929600e+03 9.259406847751242564e-01 5.981799276291329542e-03
3.988074212937745870e+03 9.428464183504645657e-01 5.948368083572035461e-03
3.992062287150684824e+03 9.578930075173357483e-01 5.911729339739367831e-03
3.996054349437837118e+03 9.748200250576495307e-01 5.657785656827215258e-03
4.000050403787276082e+03 9.864921826916378533e-01 5.768438454636130690e-03
4.004050454191064546e+03 9.948261114889156431e-01 5.751363007875217627e-03
4.008054504645257111e+03 9.993283715648828558e-01 5.943138371990918691e-03
4.012062559149903791e+03 1.003039470161380731e+00 5.974660259858629099e-03
4.016074621709055009e+03 1.005697999709561863e+00 5.931766286829367324e-03
4.020090696330765240e+03 1.001758704069293238e+00 6.114529057892499446e-03
4.024110787027097558e+03 9.979315251273669363e-01 6.325724197657189678e-03
4.028134897814125907e+03 9.946024607412832230e-01 6.199762016391299063e-03
4.032163032711941469e+03 9.913691700565875342e-01 6.322331595772931467e-03
4.036195195744654484e+03 9.872676865328372520e-01 5.696779639542158720e-03
4.040231390940400615e+03 9.881744999761463699e-01 5.554337905061268454e-03
4.044271622331342314e+03 9.880956672133396346e-01 5.193037958322373020e-03
4.048315893953675186e+03 9.962949246714452034e-01 5.377824184989079409e-03
4.052364209847629809e+03 9.990480097866631937e-01 6.169729040054703142e-03
4.056416574057479011e+03 1.005910438625368331e+00 6.186533103496780726e-03
4.060472990631537868e+03 1.013562327308715094e+00 6.328056781738491086e-03
4.064533463622170530e+03 1.017489602672253524e+00 6.355028124280223678e-03
4.068597997085794304e+03 1.015449795768986974e+00 6.888946886729104165e-03
4.072666595082881486e+03 1.011540185125111568e+00 6.822916789703669695e-03
4.076739261677965715e+03 1.008419640305839415e+00 6.750831589217310899e-03
4.080816000939644709e+03 1.004274321597002917e+00 6.838948178055057753e-03
4.084896816940585722e+03 1.002930177406148315e+00 6.744970864287705946e-03
4.088981713757527814e+03 1.003070170515660831e+00 7.037462882213380878e-03
4.093070695471286854e+03 1.011053811605565178e+00 6.872671228921111569e-03
4.097163766166759160e+03 1.024401633166506009e+00 7.121790723856570408e-03
4.101260929932927866e+03 1.038701952785457960e+00 7.303945352842824458e-03
4.105362190862862008e+03 1.052350255161710990e+00 7.371060907181992312e-03
4.109467553053726078e+03 1.064208035784871331e+00 6.863440959213207293e-03
4.113577020606780934e+03 1.075387457926166190e+00 6.801500089307363842e-03
4.117690597627389252e+03 1.079304176141967275e+00 7.240744474034568889e-03
4.121808288225018259e+03 1.079082960292916615e+00 7.725675873883631681e-03
4.125930096513244280e+03 1.084184404756592279e+00 7.758243591518585586e-03
4.130056026609759101e+03 1.088419650518477333e+00 7.606170034993529547e-03
4.134186082636369974e+03 1.088284484179168343e+00 6.828305253534889055e-03
4.138320268719007800e+03 1.094295010847164962e+00 6.445971158874122184e-03
4.142458588987728035e+03 1.100100121698307065e+00 6.825344687754219576e-03
4.146601047576717065e+03 1.104545260374963478e+00 6.812605995719324924e-03
4.150747648624294925e+03 1.105270069972082991e+00 6.262483379638308749e-03
4.154898396272920763e+03 1.104437443052853851e+00 5.820269145277751077e-03
4.159053294669195566e+03 1.099229080216722387e+00 5.841853443835530110e-03
4.163212347963865795e+03 1.089592686594204274e+00 5.832922711356050387e-03
4.167375560311830668e+03 1.070862043657247131e+00 5.367778652581825516e-03
4.171542935872143971e+03 1.053097509091999173e+00 5.357230593216161241e-03
4.175714478808017702e+03 1.029941394552436496e+00 5.219406225949483301e-03
4.179890193286827525e+03 1.010367427843054333e+00 5.260676458372959968e-03
4.184070083480115500e+03 9.871909766172586309e-01 5.484344121009492729e-03
4.188254153563597356e+03 9.630148322360838620e-01 6.637556102210768680e-03
4.192442407717161586e+03 9.494791246281427677e-01 6.701384582020120800e-03
4.196634850124880359e+03 9.412124087974909070e-01 6.347881850966716893e-03
4.200831484975006788e+03 9.411253298015418434e-01 5.671216378442796822e-03
4.205032316459983122e+03 9.550416891756312587e-01 5.657993931467110958e-03
4.209237348776444378e+03 9.792971704825412793e-01 6.189368830524072038e-03
4.213446586125221984e+03 1.011655958905202990e+00 7.070862098354017446e-03
4.217660032711349231e+03 1.050379724651052893e+00 6.887861179394231571e-03
4.221877692744061278e+03 1.091471429319228026e+00 6.414136881339405939e-03
4.226099570436806971e+03 1.128752272299123227e+00 5.450728922161374342e-03
4.230325670007245208e+03 1.160657848184165619e+00 5.509108127375343320e-03
4.234555995677254032e+03 1.188545912383083714e+00 5.524799518436472080e-03
4.238790551672932452e+03 1.207368340390309713e+00 5.624211419075889062e-03
4.243029342224606808e+03 1.222718186889684144e+00 5.494787181233832737e-03
4.247272371566832589e+03 1.233119975962413184e+00 5.220840191335246287e-03
4.251519643938400804e+03 1.239432770411360130e+00 5.047996908780796183e-03
4.255771163582340705e+03 1.243778319796581711e+00 5.007950996850666844e-03
4.260026934745924336e+03 1.250039544203453534e+00 4.568528760794192053e-03
4.264286961680671993e+03 1.251255185870075559e+00 4.588388701521361503e-03
4.268551248642354039e+03 1.249202954049875025e+00 4.494452556871644626e-03
4.272819799890998183e+03 1.249089592178907582e+00 4.518668769893995768e-03
4.277092619690890388e+03 1.247264612797647443e+00 4.506144219367068902e-03
4.281369712310583054e+03 1.242158078830265522e+00 4.538492730653081314e-03
4.285651082022895025e+03 1.238423134671803982e+00 4.250571065845878960e-03
4.289936733104918858e+03 1.238618754052543514e+00 3.976529837937428126e-03
4.294226669838025373e+03 1.241352408686285269e+00 4.102025500541563521e-03
4.298520896507864563e+03 1.247605143748030887e+00 4.196145194806609295e-03
4.302819417404373780e+03 1.254259608553389027e+00 4.014415583135953064e-03
4.307122236821779552e+03 1.257189296070030604e+00 3.842027728041064964e-03
4.311429359058603040e+03 1.260008888958226825e+00 3.831653780759391569e-03
4.315740788417662770e+03 1.262281964960928926e+00 3.624333201783046850e-03
4.320056529206081905e+03 1.260465897607043528e+00 3.747644456309659824e-03
4.324376585735290064e+03 1.252429678831552984e+00 3.485963813783693119e-03
4.328700962321026054e+03 1.241762178579624898e+00 3.436493443649534310e-03
4.333029663283348782e+03 1.225115977544247503e+00 3.406861328416406227e-03
4.337362692946633615e+03 1.203523370670679604e+00 3.426449773301960908e-03
4.341700055639581478e+03 1.180732335828558854e+00 3.511900263439550213e-03
4.346041755695222491e+03 1.158701248766409675e+00 3.248396174545909159e-03
4.350387797450919606e+03 1.136782446884337494e+00 3.388995030521131310e-03
4.354738185248371337e+03 1.118134981696526253e+00 3.408462006911286337e-03
4.359092923433621763e+03 1.104096768535210105e+00 3.896223092427130059e-03
4.363452016357056891e+03 1.097401456884113058e+00 3.671976589511949211e-03
4.367815468373414660e+03 1.101233663586895339e+00 4.755310222376014744e-03
4.372183283841789489e+03 1.107948572991158898e+00 4.759979609063777831e-03
4.376555467125633186e+03 1.117379713118322515e+00 4.826299156212895090e-03
4.380932022592760404e+03 1.131771168519908111e+00 4.394975358121746417e-03
4.385312954615354101e+03 1.145645556014514455e+00 4.250916000544467666e-03
4.389698267569970994e+03 1.158256594946608597e+00 4.283849309808075191e-03
4.394087965837542470e+03 1.171565833929733902e+00 4.303622016569365674e-03
4.398482053803381859e+03 1.185921607202242933e+00 4.402439450785338056e-03
4.402880535857186260e+03 1.197924627286794053e+00 4.370936357624010879e-03
4.407283416393044718e+03 1.206201092741542968e+00 4.340892967198886794e-03
4.411690699809440048e+03 1.213064570450648860e+00 4.527053237327260775e-03
4.416102390509250654e+03 1.219624914062714449e+00 4.671333882211322827e-03
4.420518492899761441e+03 1.229450797634903392e+00 4.720309912316979564e-03
4.424939011392662906e+03 1.240930568549165836e+00 4.708061145878687098e-03
4.429363950404056595e+03 1.257030283307894125e+00 4.857855876062785148e-03
4.433793314354462382e+03 1.274743116453530778e+00 4.758490318125754674e-03
4.438227107668818462e+03 1.290537140305173525e+00 4.912535837516080785e-03
4.442665334776488635e+03 1.308719590732997151e+00 4.697565366588489499e-03
4.447108000111265937e+03 1.330696794616129441e+00 4.613883614792677751e-03
4.451555108111379013e+03 1.354417806683672731e+00 4.496014564525427706e-03
4.456006663219492111e+03 1.381111617434145566e+00 4.156832385637542794e-03
4.460462669882713271e+03 1.407169906972464135e+00 4.078503613629992121e-03
4.464923132552597053e+03 1.432178899786699766e+00 4.093731740168524320e-03
4.469388055685150903e+03 1.452796015577711319e+00 4.223973523438993329e-03
4.473857443740837880e+03 1.471307513729803285e+00 3.983330387442106379e-03
4.478331301184580298e+03 1.490085227237051724e+00 4.045900387090160984e-03
4.482809632485766087e+03 1.507177607626527971e+00 3.877607671753825671e-03
4.487292442118253348e+03 1.520507271735265231e+00 3.966785012519416509e-03
4.491779734560373072e+03 1.532299459756543358e+00 4.038030669134764702e-03
4.496271514294934605e+03 1.543052573810883787e+00 4.054403679950694533e-03
4.500767785809231100e+03 1.550436192555118442e+00 3.935226321749778731e-03
4.505268553595042249e+03 1.558491945190184635e+00 3.795919216752604176e-03
4.509773822148638828e+03 1.567655742412506825e+00 3.976690553394005706e-03
4.514283595970789065e+03 1.573437833846519585e+00 4.008275666811497891e-03
4.518797879566761367e+03 1.578131575096502814e+00 3.580149444776050544e-03
4.523316677446328868e+03 1.580243783447497830e+00 3.607257189184789360e-03
4.527839994123776705e+03 1.579397326730811235e+00 3.451091724503233329e-03
4.532367834117902021e+03 1.578098894322119916e+00 3.347819383899444494e-03
4.536900201952022144e+03 1.574580151875199840e+00 3.379243694240937398e-03
4.541437102153975502e+03 1.569498677164279155e+00 3.966576809191955065e-03
4.545978539256130716e+03 1.569153952641996419e+00 3.947171732167908953e-03
4.550524517795388419e+03 1.572194063113284246e+00 4.607435966094352957e-03
4.555075042313184895e+03 1.570125738947810490e+00 4.469064845967804511e-03
4.559630117355500261e+03 1.570295706721586804e+00 4.522955171640624834e-03
4.564189747472856652e+03 1.569908489236786497e+00 4.303972089010970996e-03
4.568753937220330954e+03 1.565364024045151847e+00 4.301367409525266514e-03
4.573322691157552981e+03 1.559382413893031449e+00 4.279625849473413061e-03
4.577896013848711846e+03 1.550047250790552722e+00 4.373817759156414277e-03
4.582473909862562323e+03 1.538217372988571752e+00 4.600514161268373647e-03
4.587056383772426670e+03 1.523803463401115055e+00 4.135793865345896957e-03
4.591643440156200086e+03 1.514209440372688897e+00 3.970292160283202774e-03
4.596235083596357981e+03 1.506460864918418352e+00 3.918582180819439598e-03
4.600831318679955984e+03 1.501609173213488413e+00 3.920399545760118280e-03
4.605432149998637215e+03 1.498469102238166650e+00 3.915809579818712270e-03
4.610037582148637739e+03 1.496707344673180673e+00 3.908302106349149756e-03
4.614647619730787483e+03 1.499827133028051040e+00 3.637125320873343254e-03
4.619262267350520233e+03 1.499656594800591103e+00 3.725080956254145283e-03
4.623881529617872729e+03 1.496162252330534681e+00 3.739264916467804380e-03
4.628505411147491941e+03 1.486983369461956306e+00 3.323048606628646075e-03
4.633133916558640522e+03 1.477121845749634899e+00 3.235154014602773052e-03
4.637767050475200449e+03 1.463213404608259216e+00 3.124740523222519981e-03
4.642404817525677572e+03 1.441883368025531853e+00 2.906759033559724089e-03
4.647047222343205249e+03 1.417605553548327846e+00 3.094808158754844881e-03
4.651694269565549803e+03 1.385130559819656382e+00 3.129893058770504433e-03
4.656345963835116891e+03 1.346493279485677430e+00 3.166686767384725362e-03
4.661002309798953320e+03 1.303910531275550788e+00 2.902821275195231494e-03
4.665663312108753416e+03 1.253282797426196638e+00 2.745097507401358071e-03
4.670328975420864481e+03 1.193593446903575828e+00 2.797112084920213258e-03
4.674999304396286789e+03 1.127356579218133259e+00 2.909870787513335524e-03
4.679674303700684504e+03 1.056040464124831546e+00 4.021541698187048978e-03
4.684353978004386590e+03 9.792810759221599604e-01 6.358880584236487228e-03
4.689038331982392265e+03 9.140304234923397608e-01 7.264697581081038837e-03
4.693727370314376458e+03 8.638543078028603217e-01 6.762308864441322204e-03
4.698421097684692540e+03 8.311615946866758309e-01 5.815444539417289824e-03
4.703119518782378691e+03 8.207460130247453689e-01 5.335068929967577873e-03
4.707822638301162442e+03 8.334450992574332640e-01 6.107410928679113393e-03
4.712530460939465229e+03 8.634711266237392602e-01 6.899131314520934657e-03
4.717242991400406027e+03 9.111089750673332377e-01 7.332881728176108248e-03
4.721960234391808626e+03 9.688970502620558589e-01 7.466824477245030331e-03
4.726682194626201635e+03 1.028088507960077669e+00 6.579821886717570484e-03
4.731408876820829391e+03 1.077105355559497379e+00 5.133515100394060206e-03
4.736140285697651962e+03 1.116173190616021937e+00 4.377077092484100290e-03
4.740876425983350600e+03 1.134050090850377890e+00 6.119997299178661296e-03
4.745617302409335934e+03 1.144438048579714096e+00 6.349916662113898151e-03
4.750362919711747054e+03 1.147157280546465152e+00 5.521034267676963245e-03
4.755113282631459697e+03 1.144036054515340961e+00 4.327684958814670933e-03
4.759868395914093526e+03 1.139471200332945466e+00 3.502710986816473179e-03
4.764628264310008490e+03 1.138696405308986082e+00 3.499132222068376558e-03
4.769392892574320285e+03 1.139395515313069707e+00 3.704356896917299340e-03
4.774162285466896719e+03 1.139214688445338908e+00 3.846423071244188356e-03
4.778936447752364984e+03 1.143555874911497350e+00 4.002596949112769038e-03
4.783715384200118933e+03 1.146562079954750457e+00 3.586507247218620638e-03
4.788499099584319993e+03 1.147713444030814767e+00 3.519413875166888060e-03
4.793287598683906253e+03 1.145388324123858714e+00 4.336016953142033878e-03
4.798080886282591564e+03 1.147437015052536813e+00 4.279327940744916299e-03
4.802878967168876443e+03 1.147039618979167175e+00 3.839214196606585260e-03
4.807681846136046261e+03 1.149801405897342255e+00 3.737871439019504593e-03
