# starting wavelength: 3538.400
# ending wavelength: 9264.050
# wav flux eflux
3.540853930464530094e+03 3.906238286004729554e-01 1.886300902584711267e-02
3.544394784394995895e+03 4.016980919406183959e-01 1.384435829716909941e-02
3.547939179179392340e+03 4.114377765311195700e-01 1.058001046740203628e-02
3.551487118358572843e+03 4.208114546720427840e-01 8.219466675722189933e-03
3.555038605476932389e+03 4.311445886774029068e-01 6.495510441932916823e-03
3.558593644082410719e+03 4.414083274529683742e-01 6.090177461350840780e-03
3.562152237726494150e+03 4.483833382478299434e-01 5.684154440816217152e-03
3.565714389964221937e+03 4.520594339963482367e-01 5.457157290903700241e-03
3.569280104354187188e+03 4.529664516645351968e-01 4.937006039802399084e-03
3.572849384458542772e+03 4.541270107164476211e-01 4.282345262310338282e-03
3.576422233843002232e+03 4.574924788897749006e-01 4.117503710920519290e-03
3.579998656076846601e+03 4.614092679922808249e-01 3.923156218963583935e-03
3.583578654732924406e+03 4.661103986087516970e-01 3.770098006333836172e-03
3.587162233387658489e+03 4.697947462381795170e-01 3.553813567398545533e-03
3.590749395621047370e+03 4.728751831299352060e-01 3.365283640232836094e-03
3.594340145016669794e+03 4.758540948373090607e-01 3.212801057444774570e-03
3.597934485161687462e+03 4.787333551614413318e-01 3.127671549168289673e-03
3.601532419646850485e+03 4.815608549871387423e-01 3.069369950100272939e-03
3.605133952066498296e+03 4.826597895134115968e-01 2.995687130958570293e-03
3.608739086018566013e+03 4.824414725016032968e-01 3.012087750697191573e-03
3.612347825104585809e+03 4.831906177889886411e-01 3.051403968780609828e-03
3.615960172929691907e+03 4.851586388098944047e-01 3.038942977067168698e-03
3.619576133102622407e+03 4.873616324538698197e-01 3.032903415536958996e-03
3.623195709235726554e+03 4.889374273675571869e-01 3.069139972058480392e-03
3.626818904944963379e+03 4.904705321557783493e-01 3.106982017092497009e-03
3.630445723849909427e+03 4.943821289380384565e-01 3.072799808798619414e-03
3.634076169573760581e+03 4.965680719371678431e-01 3.042441168766835471e-03
3.637710245743335690e+03 4.985645808352628938e-01 2.977301338706324178e-03
3.641347955989080219e+03 5.008832636220267309e-01 2.961044802208935480e-03
3.644989303945070333e+03 5.047283764490677616e-01 2.986652337282609190e-03
3.648634293249016537e+03 5.081713908153393522e-01 3.028479675372422204e-03
3.652282927542266862e+03 5.113799272852687094e-01 3.051833249208627148e-03
3.655935210469810499e+03 5.160284274225683809e-01 3.022010153312097280e-03
3.659591145680281443e+03 5.232381966969041898e-01 2.984115424160310465e-03
3.663250736825963031e+03 5.321263506529050336e-01 2.912661796364352483e-03
3.666913987562790226e+03 5.431015650602044609e-01 2.884970822200020463e-03
3.670580901550354156e+03 5.574177936139934619e-01 2.906420235303755484e-03
3.674251482451905758e+03 5.748697470796311215e-01 2.945342878335819974e-03
3.677925733934358959e+03 5.947986835241717563e-01 2.817358238271757635e-03
3.681603659668294313e+03 6.170696887210552761e-01 2.575120341941275828e-03
3.685285263327964003e+03 6.395480838391741640e-01 2.509371355235413825e-03
3.688970548591293209e+03 6.607010631586970328e-01 2.503542758695788146e-03
3.692659519139885560e+03 6.822593725128869302e-01 2.400265934041582311e-03
3.696352178659026777e+03 7.033381978661871203e-01 2.237435492207054920e-03
3.700048530837686940e+03 7.265740887229589218e-01 2.226863242805964937e-03
3.703748579368525952e+03 7.509892750340485534e-01 2.133787484811396160e-03
3.707452327947895355e+03 7.748552387651246320e-01 2.122750597587240180e-03
3.711159780275844696e+03 7.980240545489616366e-01 2.298245392329218567e-03
3.714870940056121526e+03 8.214647392339184950e-01 2.353428870437552622e-03
3.718585810996179134e+03 8.457641724705270425e-01 2.409955512780661332e-03
3.722304396807176545e+03 8.700196013143189910e-01 2.452749878927488244e-03
3.726026701203984885e+03 8.925209705816100625e-01 2.428736418298346831e-03
3.729752727905190113e+03 9.126564150040622492e-01 2.461713332430003152e-03
3.733482480633096657e+03 9.303116546949165011e-01 2.650896499207545335e-03
3.737215963113731050e+03 9.451506654842307675e-01 2.913095426961582069e-03
3.740953179076846027e+03 9.571759603162978136e-01 3.036910917130998186e-03
3.744694132255923705e+03 9.655735961717314408e-01 3.048125110327555305e-03
3.748438826388181042e+03 9.693852666397287932e-01 3.132654827569831147e-03
3.752187265214570289e+03 9.696120199244768756e-01 3.111288184306434078e-03
3.755939452479786269e+03 9.667665327025387612e-01 2.705919980089629886e-03
3.759695391932267285e+03 9.573614810203907588e-01 2.541924085682658544e-03
3.763455087324201031e+03 9.421297527326134569e-01 2.734348406604436479e-03
3.767218542411526414e+03 9.222511912883372132e-01 3.000598158685174096e-03
3.770985760953939007e+03 8.981932360331814635e-01 3.255195933146043299e-03
3.774756746714894234e+03 8.686369952295416308e-01 3.490502253758421321e-03
3.778531503461610555e+03 8.377023328014840953e-01 3.522757298627419726e-03
3.782310034965073100e+03 8.055369728866856871e-01 3.374958033202414727e-03
3.786092345000039586e+03 7.719385891324731519e-01 2.948166367527732968e-03
3.789878437345040766e+03 7.393351044875103861e-01 2.620642041316729402e-03
3.793668315782387253e+03 7.086046537283805513e-01 2.393304874324278086e-03
3.797461984098170888e+03 6.797180622097539482e-01 2.264464127027087954e-03
3.801259446082270188e+03 6.544363377159103656e-01 2.380602634078185249e-03
3.805060705528353537e+03 6.332217015353235334e-01 2.684274845390908267e-03
3.808865766233883278e+03 6.147354339366692955e-01 2.737872650140232150e-03
3.812674632000118436e+03 5.996628226869598066e-01 2.281409438363588785e-03
3.816487306632119726e+03 5.861704136001563148e-01 2.038347097326257112e-03
3.820303793938753188e+03 5.761134507695079288e-01 1.776413860746889903e-03
3.824124097732693372e+03 5.668797872685295003e-01 1.748982069195363035e-03
3.827948221830427428e+03 5.587611272244010774e-01 1.833929952276398129e-03
3.831776170052258749e+03 5.534897582947024830e-01 2.077550475006763146e-03
3.835607946222312421e+03 5.527437811590593109e-01 2.132126523300606220e-03
3.839443554168536139e+03 5.548816977929550420e-01 2.100667713441998694e-03
3.843282997722705659e+03 5.598574463356169595e-01 2.103007534266418486e-03
3.847126280720429804e+03 5.670836362035662770e-01 2.210430751399698746e-03
3.850973407001151372e+03 5.769671461890401032e-01 2.492475886964919552e-03
3.854824380408153957e+03 5.910720573427703517e-01 2.517006336254249289e-03
3.858679204788563311e+03 6.116548875532933360e-01 2.478368945903252751e-03
3.862537883993353262e+03 6.392059104409655301e-01 2.477918510764647118e-03
3.866400421877347981e+03 6.718193993663430508e-01 2.531110783612358205e-03
3.870266822299226533e+03 7.099448897124219782e-01 2.539051996279534634e-03
3.874137089121526969e+03 7.532942106192804799e-01 2.571122770744171948e-03
3.878011226210649966e+03 8.022509759938173390e-01 2.686506154608878181e-03
3.881889237436861549e+03 8.538105931336891219e-01 2.751740259406957202e-03
3.885771126674299921e+03 9.077306816452722638e-01 2.785503243593351590e-03
3.889656897800975457e+03 9.652451887104902539e-01 2.934286397441704473e-03
3.893546554698777527e+03 1.025189375614349085e+00 3.533821256505859012e-03
3.897440101253477678e+03 1.084166006901981616e+00 4.079847849270126607e-03
3.901337541354732366e+03 1.138481221389606723e+00 3.994980360923976875e-03
3.905238878896088409e+03 1.187850792281533341e+00 3.831207478236998282e-03
3.909144117774985716e+03 1.231932328433042789e+00 3.775482154793101223e-03
3.913053261892762293e+03 1.271095725051661240e+00 3.893604451763553378e-03
3.916966315154656058e+03 1.304489198086624224e+00 4.167887994172348072e-03
3.920883281469812118e+03 1.330719375976601171e+00 4.230203315354504751e-03
3.924804164751283224e+03 1.353771317197649315e+00 4.179678148332291801e-03
3.928728968916035683e+03 1.371734248978387249e+00 4.060979694901230459e-03
3.932657697884953450e+03 1.384053042781558052e+00 3.844432918205395889e-03
3.936590355582839493e+03 1.392194715739694111e+00 3.818773869964413575e-03
3.940526945938423523e+03 1.398802220656093720e+00 4.099379328067476180e-03
3.944467472884363360e+03 1.403602021341945560e+00 3.863964321444577233e-03
3.948411940357249023e+03 1.400706350749560958e+00 3.718127234407848057e-03
3.952360352297607733e+03 1.390531291746716080e+00 3.750299803471393925e-03
3.956312712649906643e+03 1.377045349459589341e+00 3.813039675703161231e-03
3.960269025362557841e+03 1.361687867765302373e+00 3.948140851233294946e-03
3.964229294387921527e+03 1.342594225523469076e+00 4.501616914793282742e-03
3.968193523682310570e+03 1.320351580014449411e+00 5.200819326602412404e-03
3.972161717205994591e+03 1.302405597051397912e+00 5.436595015818176425e-03
3.976133878923201792e+03 1.289420527131625027e+00 5.172555265861966678e-03
3.980110012802126221e+03 1.279619720267851868e+00 4.370611386317549939e-03
3.984090122814929600e+03 1.275843284251182208e+00 3.132947683104088995e-03
3.988074212937745870e+03 1.284227452657544344e+00 2.955952100048771757e-03
3.992062287150684824e+03 1.305672734582477457e+00 3.012823643760869675e-03
3.996054349437837118e+03 1.336663701344038113e+00 2.973884546605669570e-03
4.000050403787276082e+03 1.375725186727272842e+00 3.579313446558338684e-03
4.004050454191064546e+03 1.417878159289295059e+00 3.488540129439300901e-03
4.008054504645257111e+03 1.457370185287724107e+00 2.922925410034901261e-03
4.012062559149903791e+03 1.494267973246245607e+00 2.566011082508443206e-03
4.016074621709055009e+03 1.527734542207547230e+00 2.458945086408016734e-03
4.020090696330765240e+03 1.557669796506430560e+00 2.484432310430682422e-03
4.024110787027097558e+03 1.580223165490600268e+00 2.643445692439740004e-03
4.028134897814125907e+03 1.595099176082247716e+00 2.686340577288425565e-03
4.032163032711941469e+03 1.600682667172163454e+00 2.686901303243249741e-03
4.036195195744654484e+03 1.597599562539965934e+00 2.779162375828255621e-03
4.040231390940400615e+03 1.585721880230647862e+00 2.981804633072067650e-03
4.044271622331342314e+03 1.567986132181474312e+00 3.102569274654440584e-03
4.048315893953675186e+03 1.545576187317188932e+00 3.283487250869216757e-03
4.052364209847629809e+03 1.520088200874343931e+00 3.445345829091769896e-03
4.056416574057479011e+03 1.492056508953254257e+00 3.236479086879951155e-03
4.060472990631537868e+03 1.464250206188178804e+00 3.012975334581342868e-03
4.064533463622170530e+03 1.439707490541723311e+00 3.036472107000809818e-03
4.068597997085794304e+03 1.418106572864632708e+00 3.014281130087126132e-03
4.072666595082881486e+03 1.399693448865829026e+00 3.020779431991490668e-03
4.076739261677965715e+03 1.386056397781075811e+00 3.109716322520741233e-03
4.080816000939644709e+03 1.374489935861321399e+00 3.128426695603143352e-03
4.084896816940585722e+03 1.368786013457377271e+00 2.781418558111584203e-03
4.088981713757527814e+03 1.368341649122864601e+00 1.499701051339738002e-03
4.093070695471286854e+03 1.363740169893497001e+00 1.453513160507467370e-03
4.097163766166759160e+03 1.356065023627812227e+00 1.433829561428316560e-03
4.101260929932927866e+03 1.349269554511500990e+00 1.120053866237017640e-03
4.105362190862862008e+03 1.345632961617242440e+00 1.433965625700520195e-03
4.109467553053726078e+03 1.341407057832654903e+00 1.475433667530846307e-03
4.113577020606780934e+03 1.332989365481468624e+00 1.651080086765451243e-03
4.117690597627389252e+03 1.324275419374553842e+00 1.763049061949946731e-03
4.121808288225018259e+03 1.315541551981311619e+00 2.001298749507840653e-03
4.125930096513244280e+03 1.302889590360459371e+00 2.009153642247918543e-03
4.130056026609759101e+03 1.286243752487788550e+00 2.137930834711664931e-03
4.134186082636369974e+03 1.267388546185928888e+00 2.209353657726737929e-03
4.138320268719007800e+03 1.247696105321678406e+00 2.234437215045109466e-03
4.142458588987728035e+03 1.227126134686807868e+00 2.236401645131154501e-03
4.146601047576717065e+03 1.204167154959734365e+00 2.220482780098309485e-03
4.150747648624294925e+03 1.179278751054597674e+00 2.229322895243458086e-03
4.154898396272920763e+03 1.155261485947465694e+00 2.216681757290442020e-03
4.159053294669195566e+03 1.131247841986317892e+00 2.396204019230750541e-03
4.163212347963865795e+03 1.104472075890079230e+00 2.416232179009933975e-03
4.167375560311830668e+03 1.075311587100606925e+00 2.437537025319012115e-03
4.171542935872143971e+03 1.045565566938125635e+00 2.467667497866163004e-03
4.175714478808017702e+03 1.014586313157260777e+00 2.402740175260009627e-03
4.179890193286827525e+03 9.839039609994647551e-01 2.334866301573533618e-03
4.184070083480115500e+03 9.546454550651798376e-01 2.285881361112819359e-03
4.188254153563597356e+03 9.261385655046557863e-01 2.303758948591182534e-03
4.192442407717161586e+03 8.982974481352375973e-01 2.086084879496820192e-03
4.196634850124880359e+03 8.727744366717425928e-01 1.943247344459816950e-03
4.200831484975006788e+03 8.556284667350988471e-01 1.829803585944956906e-03
4.205032316459983122e+03 8.433133008013481424e-01 1.822750161301155960e-03
4.209237348776444378e+03 8.347302552406686837e-01 1.854642067137222744e-03
4.213446586125221984e+03 8.338673469071952171e-01 1.753654740066913241e-03
4.217660032711349231e+03 8.420851780763638494e-01 1.910752303173745593e-03
4.221877692744061278e+03 8.583522435726829158e-01 2.069767929502956943e-03
4.226099570436806971e+03 8.788163517108928957e-01 2.026271151910835969e-03
4.230325670007245208e+03 9.028197053782816006e-01 2.021817265354761573e-03
4.234555995677254032e+03 9.319536430920311032e-01 2.158708762362253255e-03
4.238790551672932452e+03 9.645715163415803373e-01 1.726641827007720665e-03
4.243029342224606808e+03 9.962363289718645376e-01 1.376180983914299496e-03
4.247272371566832589e+03 1.025572310758999794e+00 1.563326917313529471e-03
4.251519643938400804e+03 1.051124455410290981e+00 1.681512725758112269e-03
4.255771163582340705e+03 1.070166135244269068e+00 2.092954836976138305e-03
4.260026934745924336e+03 1.085215176837156292e+00 2.678196979861076268e-03
4.264286961680671993e+03 1.099817519237645147e+00 2.590988473180675863e-03
4.268551248642354039e+03 1.112848602889746630e+00 2.529388471130304943e-03
4.272819799890998183e+03 1.125957724012583983e+00 2.527318272996849705e-03
4.277092619690890388e+03 1.139945800131936693e+00 2.409243271321192658e-03
4.281369712310583054e+03 1.155723784717933356e+00 2.351284009490534586e-03
4.285651082022895025e+03 1.178157785777026234e+00 3.132551340773826170e-03
4.289936733104918858e+03 1.197232201136244178e+00 3.372987057533622865e-03
4.294226669838025373e+03 1.215416917822164766e+00 3.421750346355814567e-03
4.298520896507864563e+03 1.233708728360295437e+00 2.917770793299441414e-03
4.302819417404373780e+03 1.247316245825853542e+00 2.844943589261155446e-03
4.307122236821779552e+03 1.257512370210531527e+00 3.082218283509530806e-03
4.311429359058603040e+03 1.265238076863116401e+00 3.161878576902942863e-03
4.315740788417662770e+03 1.271744332943042677e+00 3.274539581913266193e-03
4.320056529206081905e+03 1.278953693142881320e+00 3.017574196492069007e-03
4.324376585735290064e+03 1.288394042193193201e+00 2.506257669541876384e-03
4.328700962321026054e+03 1.305851909962254975e+00 2.317719385367874533e-03
4.333029663283348782e+03 1.331726861118782246e+00 2.496429364685272961e-03
4.337362692946633615e+03 1.363175545521770227e+00 3.577627226360616773e-03
4.341700055639581478e+03 1.395396229375160502e+00 4.627147680015131735e-03
4.346041755695222491e+03 1.428039421391193997e+00 4.232261172351850856e-03
4.350387797450919606e+03 1.450308083707117612e+00 3.458816151366028192e-03
4.354738185248371337e+03 1.460721598693058842e+00 2.975013426320582879e-03
4.359092923433621763e+03 1.456629962239604392e+00 2.984412275359790180e-03
4.363452016357056891e+03 1.437546850900914830e+00 3.347889390988560698e-03
4.367815468373414660e+03 1.408714105906087255e+00 3.804586356398153169e-03
4.372183283841789489e+03 1.369216877140312150e+00 4.076250633274991486e-03
4.376555467125633186e+03 1.322611666833552135e+00 3.797942275065770406e-03
4.380932022592760404e+03 1.273909330263564676e+00 3.012697927440404367e-03
4.385312954615354101e+03 1.227125505059657229e+00 2.412694547235420556e-03
4.389698267569970994e+03 1.183373785511742549e+00 2.129684502260849842e-03
4.394087965837542470e+03 1.146929689716793987e+00 2.125823819403383462e-03
4.398482053803381859e+03 1.117314225329887778e+00 2.155200128647865275e-03
4.402880535857186260e+03 1.091018530280854160e+00 1.629967224665527896e-03
4.407283416393044718e+03 1.063011273497703524e+00 1.427390828158915962e-03
4.411690699809440048e+03 1.035249967698145923e+00 1.674122346245840052e-03
4.416102390509250654e+03 1.010081418591723512e+00 1.694904425602916740e-03
4.420518492899761441e+03 9.898323296906336166e-01 1.682495598264368815e-03
4.424939011392662906e+03 9.737347721055766847e-01 1.723557712358750023e-03
4.429363950404056595e+03 9.585541740845218150e-01 1.728705138522574356e-03
4.433793314354462382e+03 9.482968979065866666e-01 1.617633274221495819e-03
4.438227107668818462e+03 9.452264714542284452e-01 1.838149420870395685e-03
4.442665334776488635e+03 9.463484880523721499e-01 2.009161059316297727e-03
4.447108000111265937e+03 9.494794994275898015e-01 1.969471737681755506e-03
4.451555108111379013e+03 9.552879542699775905e-01 1.965816417313895250e-03
4.456006663219492111e+03 9.647709820883124676e-01 1.937403732360571361e-03
4.460462669882713271e+03 9.770728529960692743e-01 1.968096225149176554e-03
4.464923132552597053e+03 9.906223552035028357e-01 1.945597427662740155e-03
4.469388055685150903e+03 1.005803378424042105e+00 1.972518400862073064e-03
4.473857443740837880e+03 1.020399800989529870e+00 2.052722678195029529e-03
4.478331301184580298e+03 1.037514662440800706e+00 1.958873867042458528e-03
4.482809632485766087e+03 1.061704626711639898e+00 1.958160600648814129e-03
4.487292442118253348e+03 1.088998861034347065e+00 1.899435183438980901e-03
4.491779734560373072e+03 1.116456794661506713e+00 1.867057313449488895e-03
4.496271514294934605e+03 1.145708971805626364e+00 1.887416200792512875e-03
4.500767785809231100e+03 1.177738315409841974e+00 2.012396789036558810e-03
4.505268553595042249e+03 1.210490166880416218e+00 2.060414454314246375e-03
4.509773822148638828e+03 1.241348483727714447e+00 1.880910092357835966e-03
4.514283595970789065e+03 1.266927218922756948e+00 2.389109942524524945e-03
4.518797879566761367e+03 1.293586835458251372e+00 2.404276817337217334e-03
4.523316677446328868e+03 1.322731865830926168e+00 2.385616272627971973e-03
4.527839994123776705e+03 1.353524703894732673e+00 2.467225005497335200e-03
4.532367834117902021e+03 1.383038831622932285e+00 2.467175083184217164e-03
4.536900201952022144e+03 1.408809160118328130e+00 2.447301437301105300e-03
4.541437102153975502e+03 1.435168850456095546e+00 2.590484640127601636e-03
4.545978539256130716e+03 1.466249525034960310e+00 2.657918062493447916e-03
4.550524517795388419e+03 1.501033159999941802e+00 2.656470104692244209e-03
4.555075042313184895e+03 1.538531921007397552e+00 2.695023947932348018e-03
4.559630117355500261e+03 1.574704913322011901e+00 2.804486946642235218e-03
4.564189747472856652e+03 1.607735474761679439e+00 2.826788725267310835e-03
4.568753937220330954e+03 1.639809162316535840e+00 2.880841861171571858e-03
4.573322691157552981e+03 1.671500806551714957e+00 2.882598384091082395e-03
4.577896013848711846e+03 1.700955994255834325e+00 2.901740960975108825e-03
4.582473909862562323e+03 1.726799517823040420e+00 2.943999381269948434e-03
4.587056383772426670e+03 1.749567125228167930e+00 2.852593387653142281e-03
4.591643440156200086e+03 1.768211224327973063e+00 2.660964654272992592e-03
4.596235083596357981e+03 1.780086748734591939e+00 2.677699921185583073e-03
4.600831318679955984e+03 1.783639480903509877e+00 2.355286289805302424e-03
4.605432149998637215e+03 1.783806067180348620e+00 2.412864778203270728e-03
4.610037582148637739e+03 1.777549088362117002e+00 2.445033255570301135e-03
