# starting wavelength: 3690.150
# ending wavelength: 7535.700
# wav flux eflux
3.692659519139885560e+03 6.498263513748051001e-02 1.398496369615527812e-01
3.696352178659026777e+03 1.039603132593845958e-01 1.082887470647562744e-01
3.700048530837686940e+03 1.363074409683467936e-01 8.167922068858274320e-02
3.703748579368525952e+03 1.485427762684891351e-01 6.363103856576571293e-02
3.707452327947895355e+03 1.537404011361184208e-01 5.087938505913729842e-02
3.711159780275844696e+03 1.613024186141003846e-01 4.107304107124308545e-02
3.714870940056121526e+03 1.707886688401091813e-01 3.378990695464897248e-02
3.718585810996179134e+03 1.842691295505219373e-01 2.987015529742153772e-02
3.722304396807176545e+03 1.993057934398345665e-01 2.509792469777268054e-02
3.726026701203984885e+03 2.148782823872701919e-01 2.164696939681666835e-02
3.729752727905190113e+03 2.250062294575909116e-01 1.922405573760486985e-02
3.733482480633096657e+03 2.344482386403219654e-01 1.721945047718796695e-02
3.737215963113731050e+03 2.416656608320180699e-01 1.575556833298281945e-02
3.740953179076846027e+03 2.467930380970100868e-01 1.466178489312398511e-02
3.744694132255923705e+03 2.431429722469732879e-01 1.422565402332641622e-02
3.748438826388181042e+03 2.398861463687055329e-01 1.364638332536848887e-02
3.752187265214570289e+03 2.371102926109692199e-01 1.317308466898492632e-02
3.755939452479786269e+03 2.320818910358666554e-01 1.284768660082784460e-02
3.759695391932267285e+03 2.290468645259130243e-01 1.215347096446942575e-02
3.763455087324201031e+03 2.186366998725530475e-01 1.196137741980964238e-02
3.767218542411526414e+03 2.128989351514220529e-01 1.200455079460967418e-02
3.770985760953939007e+03 2.050905755431619293e-01 1.204294226726451353e-02
3.774756746714894234e+03 1.913342335162736552e-01 1.133566622752916163e-02
3.778531503461610555e+03 1.798756615442601570e-01 1.119199166863214974e-02
3.782310034965073100e+03 1.683338676391221145e-01 1.086502296743115450e-02
3.786092345000039586e+03 1.611071385519137200e-01 1.101830405487543019e-02
3.789878437345040766e+03 1.540736720116125391e-01 1.105292523514214871e-02
3.793668315782387253e+03 1.494263405905943698e-01 1.116358692572905556e-02
3.797461984098170888e+03 1.447520869343910666e-01 1.131220624861722923e-02
3.801259446082270188e+03 1.434320979547498986e-01 1.118325028334659667e-02
3.805060705528353537e+03 1.417096261053746031e-01 1.137383337768337228e-02
3.808865766233883278e+03 1.422993838302417102e-01 1.122040479800749842e-02
3.812674632000118436e+03 1.438622036342632193e-01 1.070514425957973421e-02
3.816487306632119726e+03 1.441279798754541153e-01 1.071184029264902506e-02
3.820303793938753188e+03 1.475735877306428023e-01 1.031538912698180127e-02
3.824124097732693372e+03 1.440322946795173087e-01 1.008282099368563826e-02
3.827948221830427428e+03 1.402454175522034607e-01 7.720909010125497421e-03
3.831776170052258749e+03 1.334254387863126057e-01 6.419923095444754653e-03
3.835607946222312421e+03 1.320142919401797732e-01 6.449016593602038307e-03
3.839443554168536139e+03 1.295397505835792218e-01 6.293845156711798221e-03
3.843282997722705659e+03 1.323721786515548726e-01 6.417077514280919263e-03
3.847126280720429804e+03 1.344734252511612382e-01 6.429829352034325055e-03
3.850973407001151372e+03 1.348353155382698843e-01 5.890773665088726470e-03
3.854824380408153957e+03 1.392525500056843168e-01 5.776208134258197999e-03
3.858679204788563311e+03 1.432461561110848214e-01 5.565420606030779122e-03
3.862537883993353262e+03 1.512056452344900381e-01 5.497401135005753822e-03
3.866400421877347981e+03 1.625457147302145633e-01 5.716457965896299884e-03
3.870266822299226533e+03 1.699934562695815388e-01 5.423406006899518690e-03
3.874137089121526969e+03 1.835023038148647090e-01 5.051045289200318741e-03
3.878011226210649966e+03 1.959216409825924876e-01 4.902144547208075499e-03
3.881889237436861549e+03 2.070308565671606094e-01 4.880007970174097751e-03
3.885771126674299921e+03 2.184263092450277888e-01 4.842828344180687833e-03
3.889656897800975457e+03 2.292189382402255726e-01 4.760189287616353217e-03
3.893546554698777527e+03 2.369603524723544186e-01 4.710988128722052269e-03
3.897440101253477678e+03 2.450812865941467966e-01 4.738929719932619827e-03
3.901337541354732366e+03 2.521533493071286824e-01 5.056091986483426601e-03
3.905238878896088409e+03 2.599043435361466092e-01 5.060048947725894440e-03
3.909144117774985716e+03 2.667916479579778288e-01 4.943617349066955005e-03
3.913053261892762293e+03 2.754370160236770393e-01 4.956939739135165016e-03
3.916966315154656058e+03 2.839387545627683473e-01 4.951798038203428579e-03
3.920883281469812118e+03 2.942688997165437415e-01 4.944396267154020468e-03
3.924804164751283224e+03 3.011741950812516500e-01 4.842650799262973073e-03
3.928728968916035683e+03 3.078228145166961305e-01 4.934202785913333923e-03
3.932657697884953450e+03 3.159800072750273969e-01 5.092426701086272094e-03
3.936590355582839493e+03 3.228068716149013473e-01 5.090348043032768936e-03
3.940526945938423523e+03 3.278365585527477366e-01 4.971777278544109793e-03
3.944467472884363360e+03 3.358270075328300130e-01 4.909191471132896833e-03
3.948411940357249023e+03 3.416112868359867383e-01 5.154343517618605562e-03
3.952360352297607733e+03 3.484106783491310311e-01 5.366606713208800505e-03
3.956312712649906643e+03 3.551573251307500456e-01 5.128932882123005826e-03
3.960269025362557841e+03 3.626000659189587694e-01 5.052619748919494509e-03
3.964229294387921527e+03 3.708304897791012134e-01 4.997380142174119751e-03
3.968193523682310570e+03 3.795024587199121169e-01 4.608517729101665669e-03
3.972161717205994591e+03 3.943413282211732374e-01 4.521165902062961386e-03
3.976133878923201792e+03 4.139335083367065571e-01 5.149381978918227479e-03
3.980110012802126221e+03 4.335170488072999095e-01 5.505405492251329649e-03
3.984090122814929600e+03 4.529669286251103433e-01 5.430009610981051740e-03
3.988074212937745870e+03 4.754771219965566731e-01 5.206421418474858204e-03
3.992062287150684824e+03 4.979325216703007762e-01 4.837938985570950333e-03
3.996054349437837118e+03 5.191051859634310262e-01 4.720622346709720668e-03
4.000050403787276082e+03 5.373826490190023453e-01 4.731238176016148295e-03
4.004050454191064546e+03 5.485234620197543265e-01 4.731506479422858090e-03
4.008054504645257111e+03 5.584469353967567162e-01 4.889470697548185807e-03
4.012062559149903791e+03 5.669842759629485363e-01 4.955434930327021897e-03
4.016074621709055009e+03 5.728251301494300396e-01 5.031604261735997743e-03
4.020090696330765240e+03 5.736180972190599858e-01 5.042190998253280598e-03
4.024110787027097558e+03 5.704774011409589063e-01 4.989878675796977948e-03
4.028134897814125907e+03 5.685270611584287703e-01 5.153773274907644773e-03
4.032163032711941469e+03 5.649640715374261157e-01 5.495990741097019766e-03
4.036195195744654484e+03 5.646022327253529260e-01 5.446357725363869424e-03
4.040231390940400615e+03 5.659270190476232143e-01 5.412407062678932512e-03
4.044271622331342314e+03 5.653038853094231042e-01 5.054382621407153657e-03
4.048315893953675186e+03 5.718499900965797744e-01 5.183177302639632722e-03
4.052364209847629809e+03 5.805867422707856607e-01 5.526390575202052603e-03
4.056416574057479011e+03 5.845922061711305018e-01 5.586218086675568198e-03
4.060472990631537868e+03 5.903037269972356560e-01 5.718928588375815809e-03
4.064533463622170530e+03 6.004927236914426869e-01 5.708266773140301814e-03
4.068597997085794304e+03 6.072467494329473192e-01 4.920522097267037397e-03
4.072666595082881486e+03 6.073522887117536184e-01 5.013829566626724736e-03
4.076739261677965715e+03 6.025626699323640700e-01 5.247879778865680717e-03
4.080816000939644709e+03 5.935853537401801772e-01 5.685375031073305711e-03
4.084896816940585722e+03 5.872494167555789568e-01 5.634921024298419380e-03
4.088981713757527814e+03 5.768395165076030118e-01 4.843806536062104408e-03
4.093070695471286854e+03 5.711846989354720794e-01 4.813370693421629987e-03
4.097163766166759160e+03 5.703046430052601812e-01 4.668523375481974449e-03
4.101260929932927866e+03 5.675209207978085812e-01 4.734040143667362852e-03
4.105362190862862008e+03 5.679192484966004706e-01 4.742830167007396590e-03
4.109467553053726078e+03 5.721049575790490005e-01 4.818965897365285085e-03
4.113577020606780934e+03 5.752617200758721738e-01 5.069058174191276404e-03
4.117690597627389252e+03 5.794714283488213713e-01 4.854771933966954035e-03
4.121808288225018259e+03 5.825851686318520573e-01 4.866930441266094191e-03
4.125930096513244280e+03 5.866122188445394015e-01 4.768834895733343841e-03
4.130056026609759101e+03 5.917732490224679731e-01 4.715044130220098426e-03
4.134186082636369974e+03 5.967550251711083442e-01 4.779039634724207772e-03
4.138320268719007800e+03 5.948529804460522818e-01 4.465299934181962520e-03
4.142458588987728035e+03 5.978601619268903988e-01 4.320776280995537733e-03
4.146601047576717065e+03 5.953923916326370191e-01 4.218119533726325497e-03
4.150747648624294925e+03 5.895305695622349296e-01 4.170669538680677434e-03
4.154898396272920763e+03 5.786568472692761311e-01 4.191338038428500147e-03
4.159053294669195566e+03 5.633494472984330592e-01 4.121258012929163855e-03
4.163212347963865795e+03 5.479717735665688982e-01 4.285223832602083963e-03
4.167375560311830668e+03 5.288065268706790834e-01 4.412504965431354904e-03
4.171542935872143971e+03 5.119577544815175907e-01 4.505782523411587352e-03
4.175714478808017702e+03 4.906424947654184909e-01 4.531510790081316221e-03
4.179890193286827525e+03 4.643376837413565328e-01 4.560784174375560884e-03
4.184070083480115500e+03 4.423622531860305074e-01 4.504174924945102826e-03
4.188254153563597356e+03 4.228896997033860239e-01 4.881040904963746853e-03
4.192442407717161586e+03 4.076559330343684784e-01 5.413316235933478097e-03
4.196634850124880359e+03 3.970469746409033274e-01 5.357851862130097627e-03
4.200831484975006788e+03 3.957275197781950360e-01 5.272781560522124197e-03
4.205032316459983122e+03 4.029437051407380177e-01 5.153025484150334720e-03
4.209237348776444378e+03 4.179835068638538265e-01 5.221134401174108361e-03
4.213446586125221984e+03 4.429431293863347330e-01 5.394342528110306241e-03
4.217660032711349231e+03 4.721339400489094063e-01 5.532588055058827031e-03
4.221877692744061278e+03 5.059657330296920552e-01 5.439725117011748670e-03
4.226099570436806971e+03 5.412342264498974931e-01 4.975473797217091175e-03
4.230325670007245208e+03 5.756226377636467495e-01 4.506732858079193042e-03
4.234555995677254032e+03 6.028709216779275515e-01 4.549539872433436272e-03
4.238790551672932452e+03 6.247958438967026185e-01 4.620085775408920570e-03
4.243029342224606808e+03 6.442441580696408598e-01 4.743525594322211408e-03
4.247272371566832589e+03 6.570758389268718247e-01 4.320250229842952268e-03
4.251519643938400804e+03 6.724307869951087202e-01 4.327243309188190390e-03
4.255771163582340705e+03 6.814227800661404322e-01 4.372693604262347170e-03
4.260026934745924336e+03 6.874489563681900339e-01 4.373365772160415187e-03
4.264286961680671993e+03 6.935416079800174050e-01 4.216444468644617652e-03
4.268551248642354039e+03 6.932380712595727079e-01 4.313909254357056570e-03
4.272819799890998183e+03 6.878377931203619733e-01 4.211027727895549390e-03
4.277092619690890388e+03 6.834298441982856742e-01 3.964570153903651702e-03
4.281369712310583054e+03 6.793017565077874576e-01 3.750940794851969750e-03
4.285651082022895025e+03 6.740670908847697929e-01 3.819830874121976378e-03
4.289936733104918858e+03 6.673554181914086447e-01 4.098272845756895967e-03
4.294226669838025373e+03 6.648575880108181790e-01 4.112854646748339768e-03
4.298520896507864563e+03 6.651646151874254231e-01 3.674907410643031558e-03
4.302819417404373780e+03 6.718141136251247758e-01 3.827565300910934845e-03
4.307122236821779552e+03 6.857806926108933609e-01 4.980283262841832780e-03
4.311429359058603040e+03 7.016588013604698748e-01 5.011416163258486899e-03
4.315740788417662770e+03 7.173683921217368642e-01 5.065488293896879858e-03
4.320056529206081905e+03 7.293385461490580202e-01 4.958018582630857422e-03
4.324376585735290064e+03 7.336298276072252822e-01 4.994094618471155503e-03
4.328700962321026054e+03 7.311159120234539399e-01 4.718249395614671979e-03
4.333029663283348782e+03 7.171811347508147971e-01 4.946501077762260022e-03
4.337362692946633615e+03 6.954187664778052058e-01 5.356249319430678515e-03
4.341700055639581478e+03 6.685488328566869809e-01 5.950068727704395204e-03
4.346041755695222491e+03 6.391143856405973045e-01 6.101620213695775792e-03
4.350387797450919606e+03 6.093654411798945514e-01 5.447088029498093308e-03
4.354738185248371337e+03 5.846081769362992953e-01 4.399897476780516813e-03
4.359092923433621763e+03 5.685991019386760215e-01 4.369111255604423219e-03
4.363452016357056891e+03 5.603405315362849359e-01 4.385928314760902114e-03
4.367815468373414660e+03 5.637166911583306739e-01 4.310396352787646511e-03
4.372183283841789489e+03 5.730630161777240383e-01 4.370688781219033217e-03
4.376555467125633186e+03 5.905143748860995911e-01 4.319682174796036188e-03
4.380932022592760404e+03 6.136472354741966395e-01 4.062101598953123463e-03
4.385312954615354101e+03 6.388084856086739816e-01 4.003843586799754606e-03
4.389698267569970994e+03 6.694038202327287079e-01 3.462930323363955752e-03
4.394087965837542470e+03 6.982552482705283170e-01 3.616006841248587452e-03
4.398482053803381859e+03 7.232225324764619545e-01 3.677670621659419759e-03
4.402880535857186260e+03 7.499060480114350113e-01 3.891636543885568927e-03
4.407283416393044718e+03 7.719740698524819589e-01 3.827893223584968429e-03
4.411690699809440048e+03 7.856840078148458195e-01 4.248205179872714503e-03
4.416102390509250654e+03 7.986018567666776091e-01 4.268233689256097259e-03
4.420518492899761441e+03 8.040477305699520461e-01 4.359419400540751402e-03
4.424939011392662906e+03 8.072025647580461927e-01 4.034991553414020264e-03
4.429363950404056595e+03 8.101573027533436333e-01 4.068696980202431493e-03
4.433793314354462382e+03 8.096979300945635893e-01 3.951188026462743898e-03
4.438227107668818462e+03 8.073381651344826437e-01 3.922681430403580742e-03
4.442665334776488635e+03 8.060231084419433589e-01 3.943160289236910705e-03
4.447108000111265937e+03 8.031059766289624369e-01 4.317152454783709271e-03
4.451555108111379013e+03 7.980033951735635567e-01 4.498235047085364854e-03
4.456006663219492111e+03 7.948582738782706825e-01 4.502340488378635784e-03
4.460462669882713271e+03 7.932557817031289371e-01 4.472574519789060746e-03
4.464923132552597053e+03 7.947438172688144897e-01 4.855185492905886822e-03
4.469388055685150903e+03 7.921992379955762331e-01 4.848802006192760861e-03
4.473857443740837880e+03 7.932558428577497489e-01 4.841930645582583417e-03
4.478331301184580298e+03 7.944830509357276860e-01 4.735867036308946676e-03
4.482809632485766087e+03 7.937207722173083013e-01 4.886585448955750761e-03
4.487292442118253348e+03 7.999457003154288870e-01 4.686006850005555030e-03
4.491779734560373072e+03 8.061227091538891720e-01 4.760116640261870431e-03
4.496271514294934605e+03 8.120557643712328355e-01 4.455331244297726888e-03
4.500767785809231100e+03 8.226841238608681994e-01 4.444370794748814940e-03
4.505268553595042249e+03 8.333644205509802561e-01 4.176841932709166559e-03
4.509773822148638828e+03 8.495021503528074058e-01 4.324066806090891626e-03
4.514283595970789065e+03 8.685962824309747532e-01 4.243759913946461640e-03
4.518797879566761367e+03 8.866891660901728978e-01 4.244051055047217205e-03
4.523316677446328868e+03 9.075937325268410572e-01 4.201815978464880537e-03
4.527839994123776705e+03 9.281607800869269287e-01 4.617608101065919998e-03
4.532367834117902021e+03 9.548738281449915544e-01 4.565074199817551089e-03
4.536900201952022144e+03 9.748934386895675708e-01 4.226476064937914265e-03
4.541437102153975502e+03 9.959296210415340411e-01 4.142661783249497985e-03
4.545978539256130716e+03 1.016823471386494981e+00 4.428646949022466139e-03
4.550524517795388419e+03 1.036913034972836378e+00 4.328560689824872965e-03
4.555075042313184895e+03 1.054052438438017214e+00 4.348939790655393170e-03
4.559630117355500261e+03 1.070505673226735510e+00 4.246406834010230114e-03
4.564189747472856652e+03 1.082940529992481693e+00 4.360027192798558195e-03
4.568753937220330954e+03 1.087739073356085440e+00 4.532625463533808755e-03
4.573322691157552981e+03 1.086072393702688821e+00 4.354610718846889210e-03
4.577896013848711846e+03 1.077759815419536249e+00 4.419937957541930813e-03
4.582473909862562323e+03 1.063514774448414357e+00 4.603367363367533681e-03
4.587056383772426670e+03 1.045575174869892487e+00 4.775891169795824093e-03
4.591643440156200086e+03 1.028482132412291472e+00 4.812012546267415043e-03
4.596235083596357981e+03 1.013770086608560606e+00 4.867847499317769222e-03
4.600831318679955984e+03 1.003017590585115082e+00 4.925058368324139804e-03
4.605432149998637215e+03 9.986808908824238440e-01 4.759533480294671909e-03
4.610037582148637739e+03 1.001653264676670041e+00 4.657961223290563516e-03
4.614647619730787483e+03 1.013363328802102226e+00 5.218846726648300634e-03
4.619262267350520233e+03 1.028987083684142601e+00 4.898602923716425563e-03
4.623881529617872729e+03 1.043617397785465029e+00 5.010485497544289041e-03
4.628505411147491941e+03 1.056867088915145914e+00 4.650326512165925755e-03
4.633133916558640522e+03 1.067367176736710777e+00 3.850924931660712047e-03
4.637767050475200449e+03 1.063524750881707392e+00 3.752674777354532420e-03
4.642404817525677572e+03 1.049672880800538000e+00 3.509518941657650826e-03
4.647047222343205249e+03 1.021742593218216477e+00 3.370536957437031498e-03
4.651694269565549803e+03 9.840089228465176419e-01 3.443284584672722144e-03
4.656345963835116891e+03 9.351467180656585221e-01 3.526514119036391112e-03
4.661002309798953320e+03 8.755141405771444951e-01 3.276793364781754783e-03
4.665663312108753416e+03 8.087878360141935730e-01 3.202656909112687380e-03
4.670328975420864481e+03 7.365828436419070702e-01 3.234451858796238283e-03
4.674999304396286789e+03 6.621122151228470143e-01 3.225493792386450141e-03
4.679674303700684504e+03 5.853855371960920984e-01 3.783069596950135605e-03
4.684353978004386590e+03 5.077914429813110697e-01 5.727077841128175480e-03
4.689038331982392265e+03 4.414448551544897792e-01 6.126141755707667329e-03
4.693727370314376458e+03 3.928399239833453849e-01 5.842555527510654226e-03
4.698421097684692540e+03 3.654765879562857922e-01 5.687155883857685119e-03
4.703119518782378691e+03 3.677858430894423436e-01 5.172174730564366683e-03
4.707822638301162442e+03 3.969618840442218355e-01 5.420932331941295465e-03
4.712530460939465229e+03 4.538861459933944964e-01 6.876669618216951774e-03
4.717242991400406027e+03 5.326116155006964670e-01 8.019183134865211920e-03
4.721960234391808626e+03 6.270532262696064674e-01 8.602826494843665225e-03
4.726682194626201635e+03 7.290753576599607877e-01 7.614370661874390878e-03
4.731408876820829391e+03 8.255526408342833689e-01 6.215308495013687276e-03
4.736140285697651962e+03 9.166625149006961681e-01 4.303693673272579977e-03
4.740876425983350600e+03 9.855045424129398324e-01 4.560462277968841890e-03
4.745617302409335934e+03 1.036467237126023955e+00 4.848875751920918645e-03
4.750362919711747054e+03 1.069434620812809600e+00 5.038081760331419162e-03
4.755113282631459697e+03 1.087285752134188987e+00 4.118475390660109210e-03
4.759868395914093526e+03 1.091019765966427579e+00 3.544261619580350506e-03
4.764628264310008490e+03 1.087711888288261708e+00 3.488580448500296603e-03
4.769392892574320285e+03 1.074963566905826617e+00 3.536556542274051345e-03
4.774162285466896719e+03 1.052842110500524564e+00 3.569684686024522831e-03
4.778936447752364984e+03 1.025674206328178295e+00 3.514010884453761235e-03
4.783715384200118933e+03 9.949308659256478338e-01 3.520786504532505325e-03
4.788499099584319993e+03 9.596237913290107668e-01 3.429419785116369010e-03
4.793287598683906253e+03 9.214255670994793146e-01 3.963522618869837026e-03
4.798080886282591564e+03 8.886380446946645639e-01 3.978990527582476795e-03
4.802878967168876443e+03 8.589468288772101889e-01 3.509511596984426184e-03
4.807681846136046261e+03 8.364487892538703395e-01 3.306046487530341603e-03
