# starting wavelength: 3467.710
# ending wavelength: 7401.990
# wav flux eflux
3.470775009469947236e+03 8.378737433931005008e-01 7.122475665806503320e-02
3.474245784479418489e+03 8.407536158371300417e-01 5.250878454579828436e-02
3.477720030263898934e+03 8.393533091380493971e-01 3.956869010582823865e-02
3.481197750294164052e+03 8.333761480654726661e-01 3.095503818013354766e-02
3.484678948044459503e+03 8.258495296669898789e-01 2.559123528231183400e-02
3.488163626992504760e+03 8.225867562675213129e-01 2.081059009357654269e-02
3.491651790619498570e+03 8.213883551557880081e-01 1.709907804801594905e-02
3.495143442410119405e+03 8.214129544733651533e-01 1.420914715365396465e-02
3.498638585852530468e+03 8.202538715040441630e-01 1.213595214166485366e-02
3.502137224438384237e+03 8.192259555937035920e-01 1.062287159560811739e-02
3.505639361662823831e+03 8.195225325992930854e-01 9.462078424348374650e-03
3.509145001024487556e+03 8.173548838634699942e-01 8.542416139031160441e-03
3.512654146025513455e+03 8.156365440700032998e-01 7.861221106401217532e-03
3.516166800171540217e+03 8.108038938592992961e-01 7.375244373272700493e-03
3.519682966971712631e+03 8.060983804457129143e-01 6.981836236671473163e-03
3.523202649938685681e+03 8.020636373718174061e-01 6.716992148943276737e-03
3.526725852588625457e+03 7.970198341257741514e-01 6.483564789792023268e-03
3.530252578441215064e+03 7.910276608889424965e-01 6.323087121601208942e-03
3.533782831019657806e+03 7.805416984140004510e-01 6.399088161301844102e-03
3.537316613850678550e+03 7.752013244278069815e-01 6.502689087462048753e-03
3.540853930464530094e+03 7.703381866364646946e-01 6.314522295686963126e-03
3.544394784394995895e+03 7.614978371991848460e-01 6.494612458445518828e-03
3.547939179179392340e+03 7.514465126888456581e-01 6.325074950226480808e-03
3.551487118358572843e+03 7.406131274370291173e-01 6.239602240672729484e-03
3.555038605476932389e+03 7.344601081693608036e-01 6.196766911106118755e-03
3.558593644082410719e+03 7.299218698724838639e-01 6.169515760830264657e-03
3.562152237726494150e+03 7.270800931765081243e-01 5.988915001494652529e-03
3.565714389964221937e+03 7.278077516240795131e-01 6.178891498744216657e-03
3.569280104354187188e+03 7.282614244942349213e-01 6.088549421936006491e-03
3.572849384458542772e+03 7.307139574985398456e-01 6.173833800569006151e-03
3.576422233843002232e+03 7.341588040474587018e-01 6.137592248530294309e-03
3.579998656076846601e+03 7.410546045140941063e-01 6.275983178527871041e-03
3.583578654732924406e+03 7.483602405054421425e-01 6.449859264234046596e-03
3.587162233387658489e+03 7.580611227714517675e-01 6.046034132529654395e-03
3.590749395621047370e+03 7.647096532950790060e-01 6.052876097564468226e-03
3.594340145016669794e+03 7.703941917871233169e-01 6.070490890997540939e-03
3.597934485161687462e+03 7.747994498692452048e-01 6.156873428046482147e-03
3.601532419646850485e+03 7.794308104401856951e-01 6.254674379292704881e-03
3.605133952066498296e+03 7.859084937063988141e-01 6.181724141659325315e-03
3.608739086018566013e+03 7.929083930638786137e-01 6.099357250869750016e-03
3.612347825104585809e+03 7.986853967811503585e-01 6.130038065491712727e-03
3.615960172929691907e+03 8.028891425806541360e-01 5.975275273198194480e-03
3.619576133102622407e+03 8.029259079254207343e-01 5.787923981805767268e-03
3.623195709235726554e+03 8.050440921701026431e-01 5.878316226139234692e-03
3.626818904944963379e+03 8.072184527601529158e-01 5.971924293050742509e-03
3.630445723849909427e+03 8.055957550140180334e-01 5.949279028467706516e-03
3.634076169573760581e+03 8.012708094576870277e-01 6.002984672559501418e-03
3.637710245743335690e+03 7.948643832927868580e-01 6.080720759824241248e-03
3.641347955989080219e+03 7.903715970957330139e-01 6.166548187176112278e-03
3.644989303945070333e+03 7.820545965462056826e-01 5.971954036061335146e-03
3.648634293249016537e+03 7.686577553768809690e-01 6.043289541554235783e-03
3.652282927542266862e+03 7.536205423860525832e-01 5.750484576411837682e-03
3.655935210469810499e+03 7.375213345353357486e-01 5.317590063715202028e-03
3.659591145680281443e+03 7.136368408340287850e-01 5.454001035820887910e-03
3.663250736825963031e+03 6.893221858393346890e-01 5.456102438071075075e-03
3.666913987562790226e+03 6.609221145222790028e-01 5.178493807630857315e-03
3.670580901550354156e+03 6.297897154321165925e-01 5.298376276342049544e-03
3.674251482451905758e+03 5.982609645049912217e-01 5.461210285139006353e-03
3.677925733934358959e+03 5.675959639142592605e-01 5.429855058760950023e-03
3.681603659668294313e+03 5.336126109994764333e-01 5.003001169214640539e-03
3.685285263327964003e+03 5.026781496820674766e-01 4.998556936561452876e-03
3.688970548591293209e+03 4.706170936189368326e-01 4.887160301163185304e-03
3.692659519139885560e+03 4.455893120027190069e-01 4.592014980864731616e-03
3.696352178659026777e+03 4.200522684678289487e-01 4.449955809092350639e-03
3.700048530837686940e+03 3.972078782611342396e-01 4.443817134372556564e-03
3.703748579368525952e+03 3.781237570489532906e-01 4.254362983178935215e-03
3.707452327947895355e+03 3.604937528797825252e-01 4.248969803044252633e-03
3.711159780275844696e+03 3.469780841204639921e-01 4.288397328301952680e-03
3.714870940056121526e+03 3.379445339546332527e-01 4.451444222152123667e-03
3.718585810996179134e+03 3.325295724966656485e-01 4.443529471410009000e-03
3.722304396807176545e+03 3.274877946306634091e-01 4.543468087197162844e-03
3.726026701203984885e+03 3.208255183837135927e-01 4.692987296048102726e-03
3.729752727905190113e+03 3.224700619458840123e-01 4.576512473463322829e-03
3.733482480633096657e+03 3.245857953165958709e-01 4.601067439754902982e-03
3.737215963113731050e+03 3.264390937616375443e-01 4.559841276560078899e-03
3.740953179076846027e+03 3.302228512686380957e-01 4.631017041764716978e-03
3.744694132255923705e+03 3.373790013201439231e-01 4.463293159013770155e-03
3.748438826388181042e+03 3.455111671781299632e-01 4.620233980335556288e-03
3.752187265214570289e+03 3.545407717098927325e-01 4.711583311891354847e-03
3.755939452479786269e+03 3.649751485460671074e-01 4.759883065303071453e-03
3.759695391932267285e+03 3.757162853460118690e-01 4.650429864586624711e-03
3.763455087324201031e+03 3.894199288179538421e-01 4.389436269811064148e-03
3.767218542411526414e+03 4.015863228901419002e-01 4.670157015253458520e-03
3.770985760953939007e+03 4.151969644941181370e-01 4.489477090775586231e-03
3.774756746714894234e+03 4.331443832796295079e-01 4.422221073973340091e-03
3.778531503461610555e+03 4.530969362604551076e-01 4.458353469053156527e-03
3.782310034965073100e+03 4.749041479186620340e-01 4.509724461040426000e-03
3.786092345000039586e+03 4.961799035178163786e-01 4.714813015451368473e-03
3.789878437345040766e+03 5.185654066378186933e-01 4.696636452899981100e-03
3.793668315782387253e+03 5.429152371538499278e-01 4.817135812609758296e-03
3.797461984098170888e+03 5.712888325099333420e-01 4.996067397069353828e-03
3.801259446082270188e+03 6.029740512916056394e-01 4.925528106721558871e-03
3.805060705528353537e+03 6.425686447740859286e-01 5.164360986546732979e-03
3.808865766233883278e+03 6.844764218397518807e-01 5.159952840338213713e-03
3.812674632000118436e+03 7.286565184873624590e-01 5.746611927765502004e-03
3.816487306632119726e+03 7.680863136788655954e-01 5.988044633230250012e-03
3.820303793938753188e+03 8.077590685863561548e-01 5.617720639462259712e-03
3.824124097732693372e+03 8.414156252368739652e-01 6.163735585048350958e-03
3.827948221830427428e+03 8.728936314571004162e-01 6.172349997963636793e-03
3.831776170052258749e+03 9.044539960360354902e-01 6.336674415272367314e-03
3.835607946222312421e+03 9.379564047195018128e-01 6.320325418244693988e-03
3.839443554168536139e+03 9.691872483816250661e-01 6.192328276203644573e-03
3.843282997722705659e+03 1.000202420585357688e+00 6.287106079425975984e-03
3.847126280720429804e+03 1.025800419112435247e+00 6.280798399973159390e-03
3.850973407001151372e+03 1.052245311650394921e+00 6.167727353891736680e-03
3.854824380408153957e+03 1.081505790166087833e+00 6.722365508878939099e-03
3.858679204788563311e+03 1.109104398591544083e+00 6.401431304555247302e-03
3.862537883993353262e+03 1.132962423342952052e+00 6.399467133475567233e-03
3.866400421877347981e+03 1.157496781820061660e+00 6.484548814145394899e-03
3.870266822299226533e+03 1.182914406248471995e+00 6.601636923147235873e-03
3.874137089121526969e+03 1.205192559499769223e+00 6.399057666949895147e-03
3.878011226210649966e+03 1.222156626105349808e+00 5.952466073232543300e-03
3.881889237436861549e+03 1.239406265817603714e+00 5.877951808858356345e-03
3.885771126674299921e+03 1.254545408048448829e+00 6.021666134328306462e-03
3.889656897800975457e+03 1.276486673693458362e+00 6.243293622746078249e-03
3.893546554698777527e+03 1.294931439559844133e+00 6.128735921844689731e-03
3.897440101253477678e+03 1.305852530240511511e+00 8.532450249323036626e-03
3.901337541354732366e+03 1.329617494983534431e+00 1.079816241695084368e-02
3.905238878896088409e+03 1.339778870866290550e+00 1.082112709313792949e-02
3.909144117774985716e+03 1.337141215700396346e+00 1.119151155949541475e-02
3.913053261892762293e+03 1.333073188005700516e+00 1.136666860951753878e-02
3.916966315154656058e+03 1.330757954576902380e+00 1.193474470845251427e-02
3.920883281469812118e+03 1.326529164256790905e+00 1.259460100607543917e-02
3.924804164751283224e+03 1.339714230426867880e+00 1.241994092997656535e-02
3.928728968916035683e+03 1.354248142787720877e+00 1.300881433462950341e-02
3.932657697884953450e+03 1.386181149859655015e+00 1.402441109781832167e-02
3.936590355582839493e+03 1.428271085357003090e+00 1.587913688346543478e-02
3.940526945938423523e+03 1.465806260239923553e+00 1.629149759294272123e-02
3.944467472884363360e+03 1.502002076115764861e+00 1.610767881637601220e-02
3.948411940357249023e+03 1.534793804915202786e+00 1.503778361653284983e-02
3.952360352297607733e+03 1.558554414041951386e+00 1.505297247384278052e-02
3.956312712649906643e+03 1.573953713191045489e+00 1.531537107677461568e-02
3.960269025362557841e+03 1.582284408705397771e+00 1.537812248540230790e-02
3.964229294387921527e+03 1.577949836772825964e+00 1.507690183630933968e-02
3.968193523682310570e+03 1.567294345697520797e+00 1.373530099526179896e-02
3.972161717205994591e+03 1.550086633262093061e+00 1.118468338545113537e-02
3.976133878923201792e+03 1.546892409338070262e+00 1.029038970365646864e-02
3.980110012802126221e+03 1.543048361194916618e+00 1.042857191625076382e-02
3.984090122814929600e+03 1.532456345636496353e+00 1.023577127288193694e-02
3.988074212937745870e+03 1.529135933336691178e+00 9.981626265185386190e-03
3.992062287150684824e+03 1.517272002038871914e+00 1.000030517700216566e-02
3.996054349437837118e+03 1.501795028878303295e+00 9.815102204018225085e-03
4.000050403787276082e+03 1.483430843034747371e+00 9.779738090469954070e-03
4.004050454191064546e+03 1.462508021604390640e+00 8.940190947075411787e-03
4.008054504645257111e+03 1.438796934028149010e+00 6.847571420132532276e-03
4.012062559149903791e+03 1.425522017084212445e+00 5.483483036587549764e-03
4.016074621709055009e+03 1.402177251367235478e+00 5.748593509595762048e-03
4.020090696330765240e+03 1.380789431982135440e+00 5.913727528069252955e-03
4.024110787027097558e+03 1.358017037907380820e+00 5.846925715246518475e-03
4.028134897814125907e+03 1.334489422842417561e+00 5.863772544907860755e-03
4.032163032711941469e+03 1.307569809614526735e+00 5.196034845456483017e-03
4.036195195744654484e+03 1.285303161115396664e+00 5.233312314178385077e-03
4.040231390940400615e+03 1.263954766806208774e+00 5.204080835989445888e-03
4.044271622331342314e+03 1.246454628059109560e+00 5.450353860630258694e-03
4.048315893953675186e+03 1.230710634754328403e+00 5.448075675145807456e-03
4.052364209847629809e+03 1.212562992140048479e+00 5.390165967024598132e-03
4.056416574057479011e+03 1.199120389043321744e+00 4.829173644264992890e-03
4.060472990631537868e+03 1.181523468640760077e+00 4.818310032071755102e-03
4.064533463622170530e+03 1.167255071043445946e+00 4.570959170716977320e-03
4.068597997085794304e+03 1.149013278470810695e+00 4.551916748071907839e-03
4.072666595082881486e+03 1.132984239728033860e+00 4.563363718099257109e-03
4.076739261677965715e+03 1.113372260666166680e+00 4.451819351968835242e-03
4.080816000939644709e+03 1.100245657482896267e+00 4.606186381021586639e-03
4.084896816940585722e+03 1.088100975901196810e+00 4.577186413122043100e-03
4.088981713757527814e+03 1.076449549609933110e+00 4.380127506558484547e-03
4.093070695471286854e+03 1.066760124247058128e+00 4.461431274907767634e-03
4.097163766166759160e+03 1.057957616568704795e+00 4.117478270455896330e-03
4.101260929932927866e+03 1.047009365981347084e+00 4.017703688892514287e-03
4.105362190862862008e+03 1.034947263557328245e+00 4.095168323686957171e-03
4.109467553053726078e+03 1.023237741677428314e+00 4.138447186404479484e-03
4.113577020606780934e+03 1.008578018662361186e+00 4.139193738563360855e-03
4.117690597627389252e+03 9.955248994941314766e-01 4.174301930516418312e-03
4.121808288225018259e+03 9.784422642611720899e-01 4.348499185874300788e-03
4.125930096513244280e+03 9.638099056853060009e-01 4.314779404838710655e-03
4.130056026609759101e+03 9.501190405138065787e-01 4.238649879638828506e-03
4.134186082636369974e+03 9.361521422799065073e-01 4.108238002091508558e-03
4.138320268719007800e+03 9.276391814166697891e-01 4.061111053483873641e-03
4.142458588987728035e+03 9.184460961823724956e-01 4.096264253065986204e-03
4.146601047576717065e+03 9.150298433696977263e-01 4.114580848514573334e-03
4.150747648624294925e+03 9.109128799104874163e-01 4.082775884497004577e-03
4.154898396272920763e+03 9.074974658380774439e-01 3.866863316738748408e-03
4.159053294669195566e+03 9.069680095639078843e-01 3.753055759775596103e-03
4.163212347963865795e+03 9.115600937703134399e-01 3.576630739149643315e-03
4.167375560311830668e+03 9.165626394367679675e-01 3.483995584958181867e-03
4.171542935872143971e+03 9.250740231200156316e-01 3.629870371366084470e-03
4.175714478808017702e+03 9.370713047649024130e-01 3.540406638362145978e-03
4.179890193286827525e+03 9.482372389419219116e-01 3.559539511556646888e-03
4.184070083480115500e+03 9.616782487466590812e-01 3.697160056902363146e-03
4.188254153563597356e+03 9.755161671239759302e-01 3.463182060372995644e-03
4.192442407717161586e+03 9.857888117969084707e-01 3.826892436798010663e-03
4.196634850124880359e+03 9.998377032160109534e-01 3.601063594499397894e-03
4.200831484975006788e+03 1.008565771675536293e+00 3.562990592771077703e-03
4.205032316459983122e+03 1.013647927279262673e+00 3.507613819995160451e-03
4.209237348776444378e+03 1.020606483722982016e+00 3.451150062032490307e-03
4.213446586125221984e+03 1.021925769678076135e+00 3.391045171220675742e-03
4.217660032711349231e+03 1.021805708478203067e+00 3.616188768197057396e-03
4.221877692744061278e+03 1.022701973471473291e+00 3.537262581165593299e-03
4.226099570436806971e+03 1.025102554526822196e+00 3.654009329206379334e-03
4.230325670007245208e+03 1.025321955898588655e+00 3.765953589477417669e-03
4.234555995677254032e+03 1.026874750271749237e+00 3.739860318821120778e-03
4.238790551672932452e+03 1.031075264168603400e+00 3.776335474487659254e-03
4.243029342224606808e+03 1.034702005321514129e+00 3.796844232103735711e-03
4.247272371566832589e+03 1.041380398881988523e+00 4.045468448767414703e-03
4.251519643938400804e+03 1.046712341232451271e+00 4.053824364467466766e-03
4.255771163582340705e+03 1.053702860121173535e+00 4.085896202815617918e-03
4.260026934745924336e+03 1.059398919747927215e+00 3.763321920026553666e-03
4.264286961680671993e+03 1.061605963027925092e+00 3.865078015731313911e-03
4.268551248642354039e+03 1.061877201952405869e+00 3.851554450678795153e-03
4.272819799890998183e+03 1.057670073178247794e+00 3.664162707081793612e-03
4.277092619690890388e+03 1.054843234605731928e+00 3.545962046842752059e-03
4.281369712310583054e+03 1.048147667159658347e+00 3.657545984898806935e-03
4.285651082022895025e+03 1.038837167900738656e+00 3.703856933652668795e-03
4.289936733104918858e+03 1.032596754664632410e+00 3.870313975744596891e-03
4.294226669838025373e+03 1.023483955712869431e+00 3.844498142117770256e-03
4.298520896507864563e+03 1.012757557857302926e+00 3.814631046762575334e-03
4.302819417404373780e+03 1.004592881130124349e+00 3.544210097732345549e-03
4.307122236821779552e+03 9.938183242056459754e-01 3.435686055899183147e-03
4.311429359058603040e+03 9.834900551503891197e-01 3.134832883108866139e-03
4.315740788417662770e+03 9.697278647520247707e-01 3.242007449677513850e-03
4.320056529206081905e+03 9.571757347441017805e-01 3.296995920013136034e-03
4.324376585735290064e+03 9.453761703378554815e-01 3.049520394659170804e-03
4.328700962321026054e+03 9.369328651230938165e-01 3.197354295224422941e-03
4.333029663283348782e+03 9.289863171435275291e-01 3.310233704569169166e-03
4.337362692946633615e+03 9.209932356797191355e-01 3.427352608066067379e-03
4.341700055639581478e+03 9.110790168492681751e-01 3.276824976321963175e-03
4.346041755695222491e+03 8.990945366925533477e-01 3.326930180272135405e-03
4.350387797450919606e+03 8.899999972959107275e-01 3.115574247589199004e-03
4.354738185248371337e+03 8.800617319129886429e-01 3.308124057163131394e-03
4.359092923433621763e+03 8.719747378709965524e-01 3.321211514747591034e-03
4.363452016357056891e+03 8.638553545718423710e-01 3.347028426606539313e-03
4.367815468373414660e+03 8.612880613501830984e-01 3.199082359257783906e-03
4.372183283841789489e+03 8.653717272248790948e-01 2.992971622824533787e-03
4.376555467125633186e+03 8.736415839825583118e-01 2.964552063539048661e-03
4.380932022592760404e+03 8.872381274326933687e-01 3.350820665451955272e-03
4.385312954615354101e+03 9.036219567733845270e-01 3.299583760993412412e-03
4.389698267569970994e+03 9.224742115015298616e-01 3.123451331863517314e-03
4.394087965837542470e+03 9.410622462445675795e-01 2.892188165666310928e-03
4.398482053803381859e+03 9.558058985155014620e-01 2.996896397268839548e-03
4.402880535857186260e+03 9.707615692891625736e-01 3.024785319696394678e-03
4.407283416393044718e+03 9.821461682444562191e-01 3.013049631569219514e-03
4.411690699809440048e+03 9.929978001544090827e-01 3.042016754676973075e-03
4.416102390509250654e+03 1.000594611128895695e+00 3.280729082272873000e-03
4.420518492899761441e+03 1.008532907844312376e+00 3.433969724461760371e-03
4.424939011392662906e+03 1.019269996465329342e+00 3.344363513584547656e-03
4.429363950404056595e+03 1.031645720931645416e+00 3.326577144619642483e-03
4.433793314354462382e+03 1.047704001212472980e+00 3.570772871887627469e-03
4.438227107668818462e+03 1.062490835748036710e+00 3.610781731723672946e-03
4.442665334776488635e+03 1.078934376057440137e+00 3.673570692079263823e-03
4.447108000111265937e+03 1.095669849246973859e+00 3.773642327275126499e-03
4.451555108111379013e+03 1.112333142387145202e+00 3.651734166547824373e-03
4.456006663219492111e+03 1.132894666233922987e+00 3.643776955758972445e-03
4.460462669882713271e+03 1.151048944686732911e+00 3.684837287032680011e-03
4.464923132552597053e+03 1.167447631069121528e+00 3.684422458132668218e-03
4.469388055685150903e+03 1.182100132839327689e+00 3.864709833772361075e-03
4.473857443740837880e+03 1.197044945045471431e+00 3.617219264653368741e-03
4.478331301184580298e+03 1.214221837771239265e+00 3.696068571577622742e-03
4.482809632485766087e+03 1.225751771792381817e+00 3.723595410831930658e-03
4.487292442118253348e+03 1.244148145659082161e+00 3.989434708948597780e-03
4.491779734560373072e+03 1.260954339684149383e+00 3.881932852310483739e-03
4.496271514294934605e+03 1.276848132255221424e+00 3.991122182125496701e-03
4.500767785809231100e+03 1.291889760604453263e+00 4.205297067069756201e-03
4.505268553595042249e+03 1.306860198371063264e+00 4.177340026139468067e-03
4.509773822148638828e+03 1.320909912485875859e+00 4.089578784399123743e-03
4.514283595970789065e+03 1.332331810014831808e+00 4.232157093775110353e-03
4.518797879566761367e+03 1.347795453695142642e+00 4.145313849009512296e-03
