# starting wavelength: 3472.700
# ending wavelength: 7409.910
# wav flux eflux
3.474245784479418489e+03 1.761082792266870922e-01 5.395064754227928139e-02
3.477720030263898934e+03 1.707229308064691919e-01 4.029206233743873322e-02
3.481197750294164052e+03 1.590444301741674449e-01 3.078620678863163915e-02
3.484678948044459503e+03 1.457761634987191635e-01 2.420788054532808584e-02
3.488163626992504760e+03 1.348882861537030742e-01 1.888064146851874819e-02
3.491651790619498570e+03 1.274025117301022803e-01 1.511543689852118573e-02
3.495143442410119405e+03 1.193364120511659909e-01 1.218005924388953012e-02
3.498638585852530468e+03 1.122570684230034116e-01 1.010409847802649398e-02
3.502137224438384237e+03 1.055674209586905388e-01 8.802824029151468457e-03
3.505639361662823831e+03 9.760415154555211747e-02 8.122434387875496903e-03
3.509145001024487556e+03 9.124131406091536001e-02 7.127374251119595293e-03
3.512654146025513455e+03 8.446194506016302395e-02 6.449997374997857268e-03
3.516166800171540217e+03 8.205436410264733971e-02 6.073431303810617084e-03
3.519682966971712631e+03 7.701773727639127376e-02 5.675901437441459481e-03
3.523202649938685681e+03 7.322605140096846710e-02 5.391702121459104012e-03
3.526725852588625457e+03 7.115885092392262856e-02 5.189091709097703141e-03
3.530252578441215064e+03 7.136892218870180549e-02 5.121902391053239495e-03
3.533782831019657806e+03 7.204763419422111070e-02 4.920825041762004644e-03
3.537316613850678550e+03 7.434101201818410498e-02 4.817246706697021937e-03
3.540853930464530094e+03 7.719627631277872770e-02 4.860863942136400134e-03
3.544394784394995895e+03 8.149195266086328715e-02 4.796400139775397128e-03
3.547939179179392340e+03 9.043418776591688468e-02 5.069062168075048717e-03
3.551487118358572843e+03 9.882633515819316816e-02 5.288945287378042995e-03
3.555038605476932389e+03 1.086331198801798181e-01 5.183260367955500568e-03
3.558593644082410719e+03 1.169822029547856052e-01 5.268955440890707269e-03
3.562152237726494150e+03 1.251252638707917864e-01 5.233159573365973871e-03
3.565714389964221937e+03 1.358777826806007449e-01 5.697070256099132611e-03
3.569280104354187188e+03 1.463558443151841137e-01 5.633329670650989024e-03
3.572849384458542772e+03 1.550391560469470131e-01 5.499671986488353058e-03
3.576422233843002232e+03 1.636702962794921168e-01 5.331323570710269633e-03
3.579998656076846601e+03 1.700195130705760005e-01 4.866823654255217867e-03
3.583578654732924406e+03 1.693483519209532662e-01 5.801805702576209173e-03
3.587162233387658489e+03 1.708650919233355436e-01 5.859942507572728568e-03
3.590749395621047370e+03 1.704936877553132057e-01 5.811897074062804397e-03
3.594340145016669794e+03 1.684555291817045330e-01 5.787074005116280354e-03
3.597934485161687462e+03 1.604652677646819514e-01 5.811872790909327659e-03
3.601532419646850485e+03 1.525220124711096636e-01 6.038468701386430666e-03
3.605133952066498296e+03 1.475929739248755812e-01 6.070088917091508163e-03
3.608739086018566013e+03 1.395209897296681989e-01 6.353321320752624429e-03
3.612347825104585809e+03 1.335683125355923151e-01 6.323902062543797567e-03
3.615960172929691907e+03 1.265291258451601009e-01 6.256866266879065538e-03
3.619576133102622407e+03 1.260444674744095606e-01 6.402654496342487754e-03
3.623195709235726554e+03 1.235783001430556527e-01 6.355332547124506286e-03
3.626818904944963379e+03 1.234455835023251097e-01 6.367271443320277058e-03
3.630445723849909427e+03 1.269804011037126978e-01 6.256900917965592564e-03
3.634076169573760581e+03 1.338460474832017244e-01 6.651106802459397921e-03
3.637710245743335690e+03 1.424929586235029189e-01 6.697301849560493257e-03
3.641347955989080219e+03 1.479786999499040356e-01 6.686754230421329201e-03
3.644989303945070333e+03 1.532758026213759672e-01 6.521966087792793569e-03
3.648634293249016537e+03 1.595001104981165208e-01 6.255055770181399376e-03
3.652282927542266862e+03 1.630308208688276694e-01 6.167253480929868123e-03
3.655935210469810499e+03 1.635054282583594254e-01 6.403815925286823925e-03
3.659591145680281443e+03 1.647646959776937203e-01 6.495286895761525139e-03
3.663250736825963031e+03 1.642887518547511694e-01 7.011461862761095287e-03
3.666913987562790226e+03 1.630498504190243114e-01 6.658548889331122878e-03
3.670580901550354156e+03 1.627285121195035100e-01 6.538733918968070609e-03
3.674251482451905758e+03 1.612620654752469351e-01 6.352647956986334256e-03
3.677925733934358959e+03 1.628762601125480214e-01 6.381161747238952783e-03
3.681603659668294313e+03 1.655008381036894016e-01 6.500706724953237391e-03
3.685285263327964003e+03 1.651980486310098695e-01 6.574752118588118172e-03
3.688970548591293209e+03 1.648850853763559332e-01 6.594758804993108674e-03
3.692659519139885560e+03 1.656899236488578731e-01 6.627030016821394871e-03
3.696352178659026777e+03 1.621560892583711611e-01 6.718766364191885998e-03
3.700048530837686940e+03 1.647924771472384364e-01 5.689045598256500108e-03
3.703748579368525952e+03 1.630398963474974372e-01 5.456795778020250183e-03
3.707452327947895355e+03 1.576982192350077638e-01 5.349338379745536588e-03
3.711159780275844696e+03 1.523813017413226667e-01 4.986313641532814749e-03
3.714870940056121526e+03 1.408047216525331602e-01 4.891937174859584125e-03
3.718585810996179134e+03 1.274101659227066252e-01 4.878033352292226142e-03
3.722304396807176545e+03 1.104635990206599555e-01 4.866355029708009650e-03
3.726026701203984885e+03 9.732740827108671278e-02 4.835067898512420900e-03
3.729752727905190113e+03 7.898687598806089505e-02 4.178931677391476557e-03
3.733482480633096657e+03 6.339657293766536028e-02 3.907373287940160006e-03
3.737215963113731050e+03 5.206909507863141662e-02 4.013588293823913342e-03
3.740953179076846027e+03 4.339020423019891021e-02 3.920240087172624337e-03
3.744694132255923705e+03 3.376914797291914738e-02 3.938679483427790472e-03
3.748438826388181042e+03 2.555396650006414028e-02 3.956933460682075104e-03
3.752187265214570289e+03 1.906480630840418078e-02 3.910615728471144616e-03
3.755939452479786269e+03 1.252964828311697518e-02 3.932744227160251717e-03
3.759695391932267285e+03 8.545103001987214286e-03 3.806649503697675640e-03
3.763455087324201031e+03 2.605415099974237036e-03 3.447348269745677870e-03
3.767218542411526414e+03 3.564956244619395254e-03 3.653257288867917032e-03
3.770985760953939007e+03 3.058888515699107608e-03 3.708505786691242059e-03
3.774756746714894234e+03 3.103012488425283336e-03 3.743871047126544165e-03
3.778531503461610555e+03 2.761629144312729989e-03 3.691255648815804525e-03
3.782310034965073100e+03 2.078423180703140201e-03 3.646829922727855798e-03
3.786092345000039586e+03 2.392873914315304246e-03 3.705934959566769063e-03
3.789878437345040766e+03 2.687188819257760666e-03 3.518426428705818086e-03
3.793668315782387253e+03 4.723201290871522837e-03 3.702149276177606023e-03
3.797461984098170888e+03 3.289172949798725709e-03 3.880698594392465936e-03
3.801259446082270188e+03 7.217515075936585880e-04 4.329682365169854052e-03
3.805060705528353537e+03 7.469805930168486874e-05 4.482688035431574639e-03
3.808865766233883278e+03 1.280111831809946019e-04 4.414010526507763064e-03
3.812674632000118436e+03 1.124098786787387436e-03 4.446397800271815332e-03
3.816487306632119726e+03 3.789494325699449204e-03 4.440162583922309045e-03
3.820303793938753188e+03 5.586745044887965472e-03 4.657604029764284004e-03
3.824124097732693372e+03 6.859537093631797380e-03 4.789582623736194332e-03
3.827948221830427428e+03 1.033259520186030622e-02 4.768564713770087615e-03
3.831776170052258749e+03 1.577817755070217570e-02 4.672781260829947901e-03
3.835607946222312421e+03 2.074833858277683879e-02 4.728320477073155552e-03
3.839443554168536139e+03 2.350114345383646011e-02 4.720632258923208174e-03
3.843282997722705659e+03 2.780544959467932606e-02 4.699219666168119071e-03
3.847126280720429804e+03 3.150156284875336998e-02 4.758660897890410087e-03
3.850973407001151372e+03 3.391350793417178405e-02 5.078069854899483829e-03
3.854824380408153957e+03 3.888100033695649632e-02 5.115148923849573148e-03
3.858679204788563311e+03 4.684395112545158835e-02 5.124436708908923326e-03
3.862537883993353262e+03 5.679381784133295807e-02 5.045622224673368059e-03
3.866400421877347981e+03 7.188910896134276252e-02 5.122911571199481769e-03
3.870266822299226533e+03 9.026049694684079583e-02 5.108744969951659054e-03
3.874137089121526969e+03 1.159378453923401997e-01 5.233080631286385342e-03
3.878011226210649966e+03 1.351685431486164268e-01 5.086995919796089526e-03
3.881889237436861549e+03 1.607592736160576574e-01 5.171071988835990695e-03
3.885771126674299921e+03 1.881181672061256749e-01 5.388684462499410653e-03
3.889656897800975457e+03 2.179660023622321252e-01 5.887177478730964975e-03
3.893546554698777527e+03 2.440210601964938608e-01 5.602514608787093932e-03
3.897440101253477678e+03 2.660926822875256947e-01 5.605523742771851246e-03
3.901337541354732366e+03 2.835575840160062255e-01 5.251681232509694888e-03
3.905238878896088409e+03 2.840342129319390896e-01 5.334226648598781526e-03
3.909144117774985716e+03 2.800546911209832457e-01 5.887444815612745234e-03
3.913053261892762293e+03 2.748306328767907147e-01 5.958747063991346425e-03
3.916966315154656058e+03 2.641517036536851215e-01 6.189870054305466468e-03
3.920883281469812118e+03 2.547045122424498320e-01 6.191463195249964115e-03
3.924804164751283224e+03 2.456590727526189455e-01 5.849978435717115635e-03
3.928728968916035683e+03 2.355335787977594630e-01 5.438556052974964465e-03
3.932657697884953450e+03 2.415725544735106145e-01 5.974051351417224501e-03
3.936590355582839493e+03 2.506184084957717717e-01 5.938217566164684554e-03
3.940526945938423523e+03 2.658009711445522560e-01 6.054393258301494704e-03
3.944467472884363360e+03 2.887023584856601710e-01 6.139974420254501637e-03
3.948411940357249023e+03 3.176639308967239006e-01 5.234415532149667288e-03
3.952360352297607733e+03 3.420252737991412162e-01 5.353378930750459126e-03
3.956312712649906643e+03 3.715087221711713128e-01 5.145049567771578514e-03
3.960269025362557841e+03 3.974873975902539769e-01 5.470746544288551151e-03
3.964229294387921527e+03 4.207471142996794811e-01 5.208341302681321859e-03
3.968193523682310570e+03 4.384214676022005763e-01 5.250636122432354551e-03
3.972161717205994591e+03 4.540174617319429617e-01 5.245448105434249650e-03
3.976133878923201792e+03 4.687013296754678482e-01 5.398029269330524398e-03
3.980110012802126221e+03 4.773806970502573743e-01 5.245863610010197652e-03
3.984090122814929600e+03 4.848555930551113891e-01 4.876021433851645062e-03
3.988074212937745870e+03 4.961222537278975331e-01 4.987907276943816595e-03
3.992062287150684824e+03 5.096824687602903303e-01 4.995052632410643643e-03
3.996054349437837118e+03 5.238239164343932996e-01 5.373100886024559722e-03
4.000050403787276082e+03 5.367629287517673431e-01 5.341797961349625465e-03
4.004050454191064546e+03 5.459157856009112519e-01 5.425496506978742112e-03
4.008054504645257111e+03 5.553585464950459016e-01 5.227274009367391047e-03
4.012062559149903791e+03 5.595090711421172314e-01 4.784951577373970644e-03
4.016074621709055009e+03 5.624722467647663704e-01 4.844715965127290892e-03
4.020090696330765240e+03 5.592530342547153976e-01 4.870511864779768739e-03
4.024110787027097558e+03 5.501143894199526097e-01 4.708523039578872346e-03
4.028134897814125907e+03 5.379080455073887990e-01 4.432703162686488924e-03
4.032163032711941469e+03 5.303266332334293232e-01 4.422722160217947007e-03
4.036195195744654484e+03 5.261000733977088117e-01 4.352048337342703972e-03
4.040231390940400615e+03 5.216412487368343731e-01 4.317972499785317948e-03
4.044271622331342314e+03 5.232971405382260688e-01 4.521991740885593705e-03
4.048315893953675186e+03 5.278094527038985628e-01 4.536825686175580304e-03
4.052364209847629809e+03 5.351811875779680650e-01 4.269858228647860701e-03
4.056416574057479011e+03 5.398826614612887154e-01 4.243595695047812019e-03
4.060472990631537868e+03 5.475901380582922640e-01 4.225002539369557102e-03
4.064533463622170530e+03 5.523570820890096877e-01 4.178651522275240657e-03
4.068597997085794304e+03 5.565081407528547075e-01 3.991106297175323753e-03
4.072666595082881486e+03 5.594363152253565286e-01 3.813898788036479415e-03
4.076739261677965715e+03 5.540071687100709408e-01 4.466853322333695989e-03
4.080816000939644709e+03 5.503311097493736037e-01 4.897269544372488161e-03
4.084896816940585722e+03 5.451265200452588555e-01 4.569989084705496953e-03
4.088981713757527814e+03 5.394089387614741105e-01 4.696703701709328653e-03
4.093070695471286854e+03 5.362488139845417168e-01 4.495621364718464623e-03
4.097163766166759160e+03 5.357051966290201639e-01 4.394676472933263002e-03
4.101260929932927866e+03 5.382748865828842488e-01 4.480875009972283031e-03
4.105362190862862008e+03 5.410776910863550615e-01 4.631012729447442008e-03
4.109467553053726078e+03 5.458056043781088773e-01 4.863741803463509684e-03
4.113577020606780934e+03 5.470558743994290429e-01 4.745603769338712676e-03
4.117690597627389252e+03 5.457306088678277600e-01 4.812386439766044854e-03
4.121808288225018259e+03 5.467104203694462816e-01 4.542779644502547079e-03
4.125930096513244280e+03 5.439355285145068830e-01 4.602206829663087542e-03
4.130056026609759101e+03 5.350914507818245180e-01 4.927500645514329945e-03
4.134186082636369974e+03 5.289560111104856244e-01 4.691318319058756722e-03
4.138320268719007800e+03 5.239563971460777791e-01 4.755525109523813659e-03
4.142458588987728035e+03 5.201545252550675569e-01 4.978156217500469098e-03
4.146601047576717065e+03 5.170950622913424999e-01 5.116596883576177666e-03
4.150747648624294925e+03 5.116919833930951844e-01 4.887329591171083593e-03
4.154898396272920763e+03 5.041186979964238368e-01 5.253971638889034200e-03
4.159053294669195566e+03 4.997460547157976940e-01 4.926904155938730857e-03
4.163212347963865795e+03 4.981081970855059660e-01 4.674971350702152202e-03
4.167375560311830668e+03 4.967818935271388625e-01 4.648803545797234628e-03
4.171542935872143971e+03 4.944015303250079985e-01 4.346628898597598191e-03
4.175714478808017702e+03 4.927008917174289238e-01 4.289949426012175555e-03
4.179890193286827525e+03 4.919647805922612305e-01 4.272693140178994431e-03
4.184070083480115500e+03 4.941326609893603172e-01 4.283586219265587275e-03
4.188254153563597356e+03 4.991361264456404823e-01 4.189867572010063344e-03
4.192442407717161586e+03 5.031453011262320141e-01 4.276312365082972529e-03
4.196634850124880359e+03 5.047644154243833281e-01 4.202824780365244615e-03
4.200831484975006788e+03 5.092092790538381708e-01 3.885491006459263711e-03
4.205032316459983122e+03 5.097945764809139746e-01 3.878644128769859895e-03
4.209237348776444378e+03 5.031449722660894519e-01 3.554765822496305100e-03
4.213446586125221984e+03 4.974756933390707125e-01 3.469469647358872002e-03
4.217660032711349231e+03 4.900029790409715647e-01 3.444492898073866528e-03
4.221877692744061278e+03 4.824652883352673061e-01 3.535272674630384002e-03
4.226099570436806971e+03 4.786574800298546983e-01 3.397789312109754292e-03
4.230325670007245208e+03 4.725266624735200982e-01 3.199633326884739233e-03
4.234555995677254032e+03 4.655951537648449490e-01 2.823937061235037328e-03
4.238790551672932452e+03 4.628624247075614484e-01 2.828872168336444247e-03
4.243029342224606808e+03 4.608959688315914516e-01 3.089115701007422166e-03
4.247272371566832589e+03 4.582025185485241736e-01 2.962167129437490165e-03
4.251519643938400804e+03 4.551299332516159923e-01 2.872905623200481054e-03
4.255771163582340705e+03 4.509520248680199961e-01 3.138993773646143754e-03
4.260026934745924336e+03 4.495291417990230354e-01 3.057574177064986774e-03
4.264286961680671993e+03 4.470981562166332357e-01 3.143049459140802391e-03
4.268551248642354039e+03 4.449155624830547495e-01 3.507085109990661607e-03
4.272819799890998183e+03 4.372222318462417046e-01 3.931142197721157472e-03
4.277092619690890388e+03 4.279248934091686718e-01 3.866743127367524690e-03
4.281369712310583054e+03 4.222830493051650258e-01 3.839547949612293325e-03
4.285651082022895025e+03 4.148496370285480461e-01 3.852555015238405718e-03
4.289936733104918858e+03 4.086155962636999761e-01 3.951340300816162145e-03
4.294226669838025373e+03 4.046267117680526493e-01 3.987233379419309956e-03
4.298520896507864563e+03 4.000013840401345777e-01 3.941485755393339674e-03
4.302819417404373780e+03 3.991307347384158710e-01 4.126831722950082687e-03
4.307122236821779552e+03 3.980216516372884206e-01 4.260881773311823648e-03
4.311429359058603040e+03 3.973236613876681700e-01 4.390469429668263784e-03
4.315740788417662770e+03 3.954079169398915794e-01 4.429240677843190518e-03
4.320056529206081905e+03 3.894936182357326970e-01 4.160315433897814746e-03
4.324376585735290064e+03 3.787422917947387280e-01 3.956050761804470219e-03
4.328700962321026054e+03 3.634348272167991500e-01 3.811836991548032787e-03
4.333029663283348782e+03 3.423279511362936067e-01 3.754981100546801471e-03
4.337362692946633615e+03 3.168065181420035570e-01 3.295960427179554873e-03
4.341700055639581478e+03 2.913908813792930874e-01 3.386435009323322635e-03
4.346041755695222491e+03 2.677193837052286862e-01 3.360568332907968529e-03
4.350387797450919606e+03 2.488407781232386540e-01 3.469711057825323412e-03
4.354738185248371337e+03 2.289999751790396665e-01 3.207659422033487008e-03
4.359092923433621763e+03 2.161364724766703382e-01 2.877700250665855223e-03
4.363452016357056891e+03 2.091679300944871422e-01 3.477269002479495188e-03
4.367815468373414660e+03 2.099204616396624368e-01 3.667214395862385210e-03
4.372183283841789489e+03 2.199514365141048700e-01 3.543589571030293997e-03
4.376555467125633186e+03 2.396224919258210795e-01 3.751737469341409701e-03
4.380932022592760404e+03 2.670563919349845383e-01 4.054788952659637950e-03
4.385312954615354101e+03 3.011509891285317764e-01 4.499589046282212457e-03
4.389698267569970994e+03 3.364689212222540804e-01 4.668095842723765480e-03
4.394087965837542470e+03 3.710312716075661044e-01 4.375893119242606731e-03
4.398482053803381859e+03 4.052140237109856935e-01 4.006316750073725570e-03
4.402880535857186260e+03 4.341340933364349342e-01 3.819451602298430497e-03
4.407283416393044718e+03 4.560843904297873230e-01 4.144014794245535344e-03
4.411690699809440048e+03 4.726969315690074391e-01 4.389866907318793095e-03
4.416102390509250654e+03 4.851619298609057274e-01 4.526299020642656976e-03
4.420518492899761441e+03 4.967806378523637045e-01 4.224280978970985402e-03
4.424939011392662906e+03 5.071699454864397882e-01 3.915695636126620416e-03
4.429363950404056595e+03 5.148914637636601288e-01 3.661925470437989247e-03
4.433793314354462382e+03 5.268552450585707314e-01 3.897219300661454878e-03
4.438227107668818462e+03 5.384755930035423077e-01 3.934316716324196342e-03
4.442665334776488635e+03 5.493303315986928226e-01 3.110238705012293749e-03
4.447108000111265937e+03 5.537368912864063519e-01 3.071309793119625028e-03
4.451555108111379013e+03 5.552466974495628982e-01 3.056183913811092411e-03
4.456006663219492111e+03 5.537365145146758705e-01 3.208552546396390738e-03
4.460462669882713271e+03 5.503227646174115861e-01 3.079964657572916396e-03
4.464923132552597053e+03 5.466911848098898741e-01 3.027593162433802384e-03
4.469388055685150903e+03 5.423752405159311119e-01 3.068595423176164599e-03
4.473857443740837880e+03 5.368634298821716166e-01 3.097159157396486839e-03
4.478331301184580298e+03 5.314632870345811222e-01 2.981733066654486917e-03
4.482809632485766087e+03 5.283231843120443916e-01 2.942654030374885609e-03
4.487292442118253348e+03 5.267594186002919621e-01 3.114365746494324270e-03
4.491779734560373072e+03 5.273366281251130605e-01 3.328404956363151951e-03
4.496271514294934605e+03 5.309062212009896253e-01 3.421282106310820272e-03
4.500767785809231100e+03 5.390555044679412600e-01 3.325846004240304212e-03
4.505268553595042249e+03 5.541158671582864237e-01 3.547854761935324754e-03
4.509773822148638828e+03 5.736438901448346339e-01 3.761670710178130657e-03
4.514283595970789065e+03 5.950048867818614751e-01 4.669855224851931878e-03
4.518797879566761367e+03 6.162137810549462857e-01 4.451780128761457893e-03
4.523316677446328868e+03 6.388232847768084977e-01 3.849999385813701949e-03
