# starting wavelength: 3152.320
# ending wavelength: 9302.910
# wav flux eflux
3.153225454340461056e+03 -5.499545913734891212e-01 1.760244270211354767e+00
3.156378679794802792e+03 2.434156317087732280e-02 1.294075538793664881e+00
3.159535058474598372e+03 4.450596154758537093e-01 9.629413635535497562e-01
3.162694593533074112e+03 7.180395137979164177e-01 7.317783560054526015e-01
3.165857288126608182e+03 8.737238467763758232e-01 5.739608847075889919e-01
3.169023145414736064e+03 9.716344922511683802e-01 4.605853015356468627e-01
3.172192168560151458e+03 1.053903884775765798e+00 3.765318728906856816e-01
3.175364360728712654e+03 1.078187973574998626e+00 3.104773653361511121e-01
3.178539725089442527e+03 1.091857112305239852e+00 2.644646401892326026e-01
3.181718264814533086e+03 1.089176764843642342e+00 2.259055524284754590e-01
3.184899983079348658e+03 1.069378522068225923e+00 1.970119571536345926e-01
3.188084883062429071e+03 1.065925380200284822e+00 1.784347895613431767e-01
3.191272967945492383e+03 1.068821409476501616e+00 1.654267830019609531e-01
3.194464240913438971e+03 1.050825727599667525e+00 1.534955008502918439e-01
3.197658705154353811e+03 1.019901067184633581e+00 1.441230461105545702e-01
3.200856363859509202e+03 9.916735072407574236e-01 1.376765389133507989e-01
3.204057220223369768e+03 9.459351933373885135e-01 1.321810365233252738e-01
3.207261277443593826e+03 8.991017397067221362e-01 1.280722867084457262e-01
3.210468538721038840e+03 8.465129830666666688e-01 1.222688737090941308e-01
3.213679007259760965e+03 8.097828247664542456e-01 1.218788271304612619e-01
3.216892686267021418e+03 8.106906185023852185e-01 1.129727736584055231e-01
3.220109578953289656e+03 7.989688898454194721e-01 1.032975060397400002e-01
3.223329688532243836e+03 7.146498316930186556e-01 1.027787521828465861e-01
3.226553018220777176e+03 6.130294424731339564e-01 1.008279454347215665e-01
3.229779571238999324e+03 5.775205835631274098e-01 9.856731388941072924e-02
3.233009350810239084e+03 5.156245849642967505e-01 9.852988048690025646e-02
3.236242360161050783e+03 4.092522115499902524e-01 8.269767304702681232e-02
3.239478602521212906e+03 3.879715442458100405e-01 8.381578138115744481e-02
3.242718081123734919e+03 3.566923699529701564e-01 8.500565937814513751e-02
3.245960799204859995e+03 3.228464153099853684e-01 8.285167247579602878e-02
3.249206760004065927e+03 2.984124095114199515e-01 8.468921755616762304e-02
3.252455966764071036e+03 2.620533379857881151e-01 8.318428187966665777e-02
3.255708422730835991e+03 2.191532419192381564e-01 8.014095631651663165e-02
3.258964131153567905e+03 1.915916728007592273e-01 8.004587530346245206e-02
3.262223095284722604e+03 1.616123666247721302e-01 7.337392480442034293e-02
3.265485318380008266e+03 2.036506803001449373e-01 5.658707426790980655e-02
3.268750803698389518e+03 2.160164359229851672e-01 5.634756029264377519e-02
3.272019554502088795e+03 2.221281525419536718e-01 5.632777202582497228e-02
3.275291574056592253e+03 2.058389957011784732e-01 5.644199885787684612e-02
3.278566865630649772e+03 2.280396488359534568e-01 5.387852486284680498e-02
3.281845432496281319e+03 2.466965896045054119e-01 5.234897405887223298e-02
3.285127277928778767e+03 2.669388320196037778e-01 5.102620735303652066e-02
3.288412405206708627e+03 2.352451145004542665e-01 4.539069992426252725e-02
3.291700817611916591e+03 2.158629324000586602e-01 4.658684355026489199e-02
3.294992518429529355e+03 2.304778208548478868e-01 4.466350307124055535e-02
3.298287510947960072e+03 2.203040366823489915e-01 4.194006008907781580e-02
3.301585798458909267e+03 2.198868117724232796e-01 4.140442344639051059e-02
3.304887384257369376e+03 2.360714915457928220e-01 4.058784043675498637e-02
3.308192271641627485e+03 2.484844659217619878e-01 3.997361261550679001e-02
3.311500463913270323e+03 2.616063780523213422e-01 3.961346405583019564e-02
3.314811964377184722e+03 2.691621768292283279e-01 3.983503019115874899e-02
3.318126776341563072e+03 2.828809751592097910e-01 3.983160530881119099e-02
3.321444903117905596e+03 2.852564605945745457e-01 4.046854082530500218e-02
3.324766348021024896e+03 2.891854272760770450e-01 4.046737946410958187e-02
3.328091114369046863e+03 2.935898559317115519e-01 3.965834553336943652e-02
3.331419205483417045e+03 3.011156831652938570e-01 3.943824135987166607e-02
3.334750624688901553e+03 2.814893208198431251e-01 3.722182527606498342e-02
3.338085375313591612e+03 2.689140355532564364e-01 3.690412559857691316e-02
3.341423460688906289e+03 2.597297374662799752e-01 3.792243043422772325e-02
3.344764884149596128e+03 2.556585111476938343e-01 3.718684866534281708e-02
3.348109649033746791e+03 2.483383139976262366e-01 3.724969246053330685e-02
3.351457758682781787e+03 2.537342322844845510e-01 3.611511281059330558e-02
3.354809216441465651e+03 2.411780440440207951e-01 3.659104978427545063e-02
3.358164025657908041e+03 2.137781061015022743e-01 3.252498309859665898e-02
3.361522189683567376e+03 1.894917119382366066e-01 2.889642717067907041e-02
3.364883711873251741e+03 1.868433964931132119e-01 2.813199664801483216e-02
3.368248595585126168e+03 1.762291129842510073e-01 2.799008273557929832e-02
3.371616844180712633e+03 1.631731503239068348e-01 2.764363541048117656e-02
3.374988461024894150e+03 1.461747417801436966e-01 2.601292132319623501e-02
3.378363449485920228e+03 1.571204525152355980e-01 2.563974577640414781e-02
3.381741812935407324e+03 1.630372397150417485e-01 2.561736769606006575e-02
3.385123554748343849e+03 1.715301863021281015e-01 2.553868011313547431e-02
3.388508678303093347e+03 1.853420270581343232e-01 2.258153510070355294e-02
3.391897186981397681e+03 1.976166053214066520e-01 2.157931235394493913e-02
3.395289084168380214e+03 1.982919468708115862e-01 2.163775615878267208e-02
3.398684373252549449e+03 1.900196959684082310e-01 1.866381284616525776e-02
3.402083057625803121e+03 1.906226508448702617e-01 1.693069285722389669e-02
3.405485140683430018e+03 2.021562757152051137e-01 1.656314470554749035e-02
3.408890625824114522e+03 2.010874012703419422e-01 1.610124547975564160e-02
3.412299516449939802e+03 2.025297458322200539e-01 1.595578825800517825e-02
3.415711815966390986e+03 2.115342955301791339e-01 1.621311014152854169e-02
3.419127527782358356e+03 2.250228358143613883e-01 1.602534169431003852e-02
3.422546655310141887e+03 2.362561541692979883e-01 1.625513664236087966e-02
3.425969201965453522e+03 2.460507967614600777e-01 1.594591434089256271e-02
3.429395171167419903e+03 2.486710731648454076e-01 1.605925304799680001e-02
3.432824566338588284e+03 2.579146180729261495e-01 1.566630700338922724e-02
3.436257390904928343e+03 2.511778274605357963e-01 1.381073093953168532e-02
3.439693648295834464e+03 2.448173065412386773e-01 1.235370667373624290e-02
3.443133341944131189e+03 2.487225149096230492e-01 1.261981761020117103e-02
3.446576475286076402e+03 2.527949950298664095e-01 1.239728814974582101e-02
3.450023051761363604e+03 2.582769724594369820e-01 1.190199749738536997e-02
3.453473074813126004e+03 2.615779579633517038e-01 1.222225033210603412e-02
3.456926547887940615e+03 2.610528183197446950e-01 1.180643577187131220e-02
3.460383474435829612e+03 2.620399064563182501e-01 1.126522553649239242e-02
3.463843857910266706e+03 2.674666584164285821e-01 1.160647418120050976e-02
3.467307701768178049e+03 2.730313813184685467e-01 1.178695854605215504e-02
3.470775009469947236e+03 2.776920388672589612e-01 1.181811831279338566e-02
3.474245784479418489e+03 2.801551010260570074e-01 1.172190925841051605e-02
3.477720030263898934e+03 2.855720821188560965e-01 1.253800033866949402e-02
3.481197750294164052e+03 2.998634234263212184e-01 9.732283605522073014e-03
3.484678948044459503e+03 2.992186463011435871e-01 9.581926353749027625e-03
3.488163626992504760e+03 2.975833589640344279e-01 9.626033296279278006e-03
3.491651790619498570e+03 2.970525484075786093e-01 9.290567105809586362e-03
3.495143442410119405e+03 2.885050574916870336e-01 9.567682118930087229e-03
3.498638585852530468e+03 2.742388151101591287e-01 9.774864968557629361e-03
3.502137224438384237e+03 2.670839112494645118e-01 9.673100883966116031e-03
3.505639361662823831e+03 2.545084465963086129e-01 9.566336738117584351e-03
3.509145001024487556e+03 2.334892894436788047e-01 7.716194371724904334e-03
3.512654146025513455e+03 2.163097036718522326e-01 7.758427249545468522e-03
3.516166800171540217e+03 2.021524402528235009e-01 7.954629061366532902e-03
3.519682966971712631e+03 1.877095913311704889e-01 8.034411049320682938e-03
3.523202649938685681e+03 1.778887987976515150e-01 8.035306049781759316e-03
3.526725852588625457e+03 1.710703264947346647e-01 8.414124767586012368e-03
3.530252578441215064e+03 1.665260880341103422e-01 8.293646571420884572e-03
3.533782831019657806e+03 1.615671784622482177e-01 7.897972083540646254e-03
3.537316613850678550e+03 1.625570760659114933e-01 8.298566831933926538e-03
3.540853930464530094e+03 1.706301528935564304e-01 8.426090320176786788e-03
3.544394784394995895e+03 1.780552496193713308e-01 8.243962840414908316e-03
3.547939179179392340e+03 1.851910330174566244e-01 8.326265242454626916e-03
3.551487118358572843e+03 1.902767338955775600e-01 8.147515348439859570e-03
3.555038605476932389e+03 1.962670715713265290e-01 8.488652021590076258e-03
3.558593644082410719e+03 2.018571820005731210e-01 8.439151802284003759e-03
3.562152237726494150e+03 2.098359648840165959e-01 8.458145842092817598e-03
3.565714389964221937e+03 2.146319359741558352e-01 8.213622931044956693e-03
3.569280104354187188e+03 2.206261208377683913e-01 8.375242688193160201e-03
3.572849384458542772e+03 2.309157935409940077e-01 8.476396681186867954e-03
3.576422233843002232e+03 2.397045111377484050e-01 8.130550097459847761e-03
3.579998656076846601e+03 2.474514590494654998e-01 8.158745660324132412e-03
3.583578654732924406e+03 2.558212728632177080e-01 8.233827057245530351e-03
3.587162233387658489e+03 2.622691702538473835e-01 7.787901630333617618e-03
3.590749395621047370e+03 2.690314569133546163e-01 7.657196378537367044e-03
3.594340145016669794e+03 2.803286453566239955e-01 7.981092289840011761e-03
3.597934485161687462e+03 2.966090351000876257e-01 7.728227861417389516e-03
3.601532419646850485e+03 3.093805882908334803e-01 7.193783833358544100e-03
3.605133952066498296e+03 3.173303398010846044e-01 7.025653620543655282e-03
3.608739086018566013e+03 3.240039027889272116e-01 7.028619013326181143e-03
3.612347825104585809e+03 3.294200068861679043e-01 6.777090020650820834e-03
3.615960172929691907e+03 3.357155557257654466e-01 6.630131056770167605e-03
3.619576133102622407e+03 3.351358585931095146e-01 6.124510176622827151e-03
3.623195709235726554e+03 3.327659751010881295e-01 5.727692207896621299e-03
3.626818904944963379e+03 3.291594012759886390e-01 5.653461327930431324e-03
3.630445723849909427e+03 3.295575639256309586e-01 5.669548465755718664e-03
3.634076169573760581e+03 3.284720928101806381e-01 5.424941819365333359e-03
3.637710245743335690e+03 3.277802133007319263e-01 5.429902298250422962e-03
3.641347955989080219e+03 3.240023049306258174e-01 5.037020588908420853e-03
3.644989303945070333e+03 3.241653871511721019e-01 5.615221480400190215e-03
3.648634293249016537e+03 3.238639503583014556e-01 5.721554284363969227e-03
3.652282927542266862e+03 3.227528621933791753e-01 5.684496853877295947e-03
3.655935210469810499e+03 3.211296496337670558e-01 5.959326710095670665e-03
3.659591145680281443e+03 3.210468202979938068e-01 5.550104976372425766e-03
3.663250736825963031e+03 3.228253398388194473e-01 4.799399753234310194e-03
3.666913987562790226e+03 3.191970056173646375e-01 4.946800169560788482e-03
3.670580901550354156e+03 3.130144092213274498e-01 5.037828932621503733e-03
3.674251482451905758e+03 3.080891061157173816e-01 4.739183009844575786e-03
3.677925733934358959e+03 3.065107194522442846e-01 4.668163500597111853e-03
3.681603659668294313e+03 3.066571185008808986e-01 4.619453668697080274e-03
3.685285263327964003e+03 3.082396368818216548e-01 4.466532214894524538e-03
3.688970548591293209e+03 3.119527904320366085e-01 4.663960252508027489e-03
3.692659519139885560e+03 3.199485890331731919e-01 5.315944336756911817e-03
3.696352178659026777e+03 3.268625325644805568e-01 5.498069756451474770e-03
3.700048530837686940e+03 3.321382348915025151e-01 5.483701908861242889e-03
3.703748579368525952e+03 3.396161366466772247e-01 4.131675258492682572e-03
3.707452327947895355e+03 3.390366657300102338e-01 4.451351749610174373e-03
3.711159780275844696e+03 3.337015788408291828e-01 4.503421061622959846e-03
3.714870940056121526e+03 3.288495889047369225e-01 4.307476496866686870e-03
3.718585810996179134e+03 3.201569939625998895e-01 4.344494277412889495e-03
3.722304396807176545e+03 3.100657845832938131e-01 4.289422455386955775e-03
3.726026701203984885e+03 2.960685830283870112e-01 4.224043523733056298e-03
3.729752727905190113e+03 2.757172729752634943e-01 3.031047657384522507e-03
3.733482480633096657e+03 2.569513418542507810e-01 3.083719200534847799e-03
3.737215963113731050e+03 2.364314094030361968e-01 3.169440268945438333e-03
3.740953179076846027e+03 2.165245262295999451e-01 3.189711389526952382e-03
3.744694132255923705e+03 1.966343299045493764e-01 3.331429144108691027e-03
3.748438826388181042e+03 1.778351405425399601e-01 3.310612084598578246e-03
3.752187265214570289e+03 1.603823628520044120e-01 3.554207781080820448e-03
3.755939452479786269e+03 1.418034846030327145e-01 3.613272068566461374e-03
3.759695391932267285e+03 1.234215505343965597e-01 3.519204656842392712e-03
3.763455087324201031e+03 1.081264105226320965e-01 3.552998866095381097e-03
3.767218542411526414e+03 9.619416253543802697e-02 3.489275623317075053e-03
3.770985760953939007e+03 8.492421847495393306e-02 3.443435937644331868e-03
3.774756746714894234e+03 7.814418391764785254e-02 3.497563194496000009e-03
3.778531503461610555e+03 7.194168749736591650e-02 3.448831975507162754e-03
3.782310034965073100e+03 6.582940041722988578e-02 3.098206940328118372e-03
3.786092345000039586e+03 6.370785142161823622e-02 3.020175941175630430e-03
3.789878437345040766e+03 6.405029346916779609e-02 3.252392852883096395e-03
3.793668315782387253e+03 6.509034843112490587e-02 3.376619486349154500e-03
3.797461984098170888e+03 6.901077557314973243e-02 3.264114720634181052e-03
3.801259446082270188e+03 7.362116029881723978e-02 3.333451920188409273e-03
3.805060705528353537e+03 7.956625291985164328e-02 2.675663413405224549e-03
3.808865766233883278e+03 8.291176758877463748e-02 2.708567025402048786e-03
3.812674632000118436e+03 8.361142795736459243e-02 2.672399671194203730e-03
3.816487306632119726e+03 8.425279235492669216e-02 2.961423392183890318e-03
3.820303793938753188e+03 8.542616710840648941e-02 2.915390904740781768e-03
3.824124097732693372e+03 8.915648567937783930e-02 3.018619397386133277e-03
3.827948221830427428e+03 9.051070287720580643e-02 2.830098527910315364e-03
3.831776170052258749e+03 9.193998441873586780e-02 2.815349986320017390e-03
3.835607946222312421e+03 9.596423870953629809e-02 2.664978645570675615e-03
3.839443554168536139e+03 9.819407873094050665e-02 2.742203514939697134e-03
3.843282997722705659e+03 1.015897165479365261e-01 2.820113605739122883e-03
3.847126280720429804e+03 1.063972702699746281e-01 2.636332471164711325e-03
3.850973407001151372e+03 1.104692053825686859e-01 2.644256653200335611e-03
3.854824380408153957e+03 1.146028675269021579e-01 2.694245369319143903e-03
3.858679204788563311e+03 1.195864477270355830e-01 2.840959138968179951e-03
3.862537883993353262e+03 1.252941606809560571e-01 2.727284196766331052e-03
3.866400421877347981e+03 1.291314669764370426e-01 2.612803813572235536e-03
3.870266822299226533e+03 1.331829362841899789e-01 3.478150963008993461e-03
3.874137089121526969e+03 1.421846600531322946e-01 3.974016360608043780e-03
3.878011226210649966e+03 1.544097350021886861e-01 4.818413898097570827e-03
3.881889237436861549e+03 1.727726500949099409e-01 4.800179220755255126e-03
3.885771126674299921e+03 2.023689289815271408e-01 4.654787860037962362e-03
3.889656897800975457e+03 2.355673919624969859e-01 4.890167355219784961e-03
3.893546554698777527e+03 2.789425041833760721e-01 6.364201130125391251e-03
3.897440101253477678e+03 3.250874223912508798e-01 6.355573868364760952e-03
3.901337541354732366e+03 3.705921926621144058e-01 6.060593060349244235e-03
3.905238878896088409e+03 4.137414533703716035e-01 5.203259014392853238e-03
3.909144117774985716e+03 4.495471301773181216e-01 4.481580918459347404e-03
3.913053261892762293e+03 4.788093980624167911e-01 5.000989162130667354e-03
3.916966315154656058e+03 4.995076411451988552e-01 5.680380306296862504e-03
3.920883281469812118e+03 5.147397229756360826e-01 5.700961174901229833e-03
3.924804164751283224e+03 5.243768960389757483e-01 4.714322542052668333e-03
3.928728968916035683e+03 5.288358949649719642e-01 3.964384973268575592e-03
3.932657697884953450e+03 5.315717030773723373e-01 3.877244982532631820e-03
3.936590355582839493e+03 5.323591521477748501e-01 3.880586972847820202e-03
3.940526945938423523e+03 5.340405280444017189e-01 3.572033130939672799e-03
3.944467472884363360e+03 5.332356483018597659e-01 3.358241109439370417e-03
3.948411940357249023e+03 5.313019642199867665e-01 3.220708403601493883e-03
3.952360352297607733e+03 5.273450751191790520e-01 3.366179539117466341e-03
3.956312712649906643e+03 5.214248702521723233e-01 3.012931687768074206e-03
3.960269025362557841e+03 5.183695982617877451e-01 2.999952238276127302e-03
3.964229294387921527e+03 5.166289594543943542e-01 3.012013150262636118e-03
3.968193523682310570e+03 5.164251071969608864e-01 3.077690005903490483e-03
3.972161717205994591e+03 5.213875293347163264e-01 3.308470118632976260e-03
3.976133878923201792e+03 5.276987375889671261e-01 3.310711222192424651e-03
3.980110012802126221e+03 5.375706591249891364e-01 3.343678441010190707e-03
3.984090122814929600e+03 5.512447552042282206e-01 3.348310457766349307e-03
3.988074212937745870e+03 5.653521116089378351e-01 3.403720952150946031e-03
3.992062287150684824e+03 5.844448083891563561e-01 3.296765560866005227e-03
3.996054349437837118e+03 6.076163670712907416e-01 3.904104123498325970e-03
4.000050403787276082e+03 6.328077656320454381e-01 3.669753720638753523e-03
4.004050454191064546e+03 6.572541081696546827e-01 3.723795570121295022e-03
4.008054504645257111e+03 6.796440092207877148e-01 3.575691579577376742e-03
4.012062559149903791e+03 7.000261111022771932e-01 3.417932531550209058e-03
4.016074621709055009e+03 7.151563852824739387e-01 3.233615542120578910e-03
4.020090696330765240e+03 7.258247492533606016e-01 3.152260530934243229e-03
4.024110787027097558e+03 7.305953455625544546e-01 3.088398243603832430e-03
4.028134897814125907e+03 7.289698870796250674e-01 3.057921824132721171e-03
4.032163032711941469e+03 7.224203339385490974e-01 3.013231779731225662e-03
4.036195195744654484e+03 7.138156906596793139e-01 2.854352415111330830e-03
4.040231390940400615e+03 7.037520026474844981e-01 2.766010949611302956e-03
4.044271622331342314e+03 6.901429120493112190e-01 2.498975130294737741e-03
4.048315893953675186e+03 6.782615290790781071e-01 2.303281637307016527e-03
4.052364209847629809e+03 6.660656112592014955e-01 2.472286938119981625e-03
4.056416574057479011e+03 6.553954102728977160e-01 2.625543032324771479e-03
4.060472990631537868e+03 6.476289938854251638e-01 2.670287533652542650e-03
4.064533463622170530e+03 6.407660583961585221e-01 2.512050729908908101e-03
4.068597997085794304e+03 6.393314273801303793e-01 2.679996450471712477e-03
4.072666595082881486e+03 6.420500812966639659e-01 3.101288593933002827e-03
4.076739261677965715e+03 6.478751174123759116e-01 4.090911298483130600e-03
4.080816000939644709e+03 6.510372471416279172e-01 4.466572925120232407e-03
4.084896816940585722e+03 6.538428980118389244e-01 3.846942330338711576e-03
4.088981713757527814e+03 6.517203899917839438e-01 3.711332159808975861e-03
4.093070695471286854e+03 6.425807706175283851e-01 6.689179944073430500e-03
4.097163766166759160e+03 6.388359576241465776e-01 7.112819444498862456e-03
4.101260929932927866e+03 6.352252643284107547e-01 6.991152663977276416e-03
4.105362190862862008e+03 6.344685207276301586e-01 6.281582675389722412e-03
