# starting wavelength: 3672.300
# ending wavelength: 7424.560
# wav flux eflux
3.674251482451905758e+03 1.624939269059424651e+00 5.104460386287578144e-01
3.677925733934358959e+03 1.547108400401483674e+00 3.765926939229985448e-01
3.681603659668294313e+03 1.528957587869665513e+00 2.848170002839877091e-01
3.685285263327964003e+03 1.543188789761465340e+00 2.219228335324829882e-01
3.688970548591293209e+03 1.543288490913143685e+00 1.721240139747527709e-01
3.692659519139885560e+03 1.527644220547052623e+00 1.376679348420141169e-01
3.696352178659026777e+03 1.510083030004003124e+00 1.157868213660042805e-01
3.700048530837686940e+03 1.465373647826708092e+00 9.713442186987306104e-02
3.703748579368525952e+03 1.398039120234676913e+00 8.313395654589590678e-02
3.707452327947895355e+03 1.323097033134447154e+00 7.124324033080822738e-02
3.711159780275844696e+03 1.232541350276401326e+00 6.319179542187239318e-02
3.714870940056121526e+03 1.121139256112200666e+00 6.033042229128683653e-02
3.718585810996179134e+03 1.031817417522326918e+00 5.494185390315936557e-02
3.722304396807176545e+03 9.443079678570587276e-01 5.116622134053498694e-02
3.726026701203984885e+03 8.781901084914165434e-01 4.805789598356434433e-02
3.729752727905190113e+03 8.329293091607676836e-01 4.649446536735361846e-02
3.733482480633096657e+03 8.000025360834324140e-01 4.560488450531584997e-02
3.737215963113731050e+03 7.727963426505926048e-01 4.473423129310534485e-02
3.740953179076846027e+03 7.405470164119241083e-01 4.340626099940002314e-02
3.744694132255923705e+03 7.214881688447257746e-01 4.365928945200956562e-02
3.748438826388181042e+03 7.129415927664073394e-01 4.382526993541820126e-02
3.752187265214570289e+03 7.319471719766186268e-01 4.465969119966638895e-02
3.755939452479786269e+03 7.448928529299049250e-01 4.415539776286445811e-02
3.759695391932267285e+03 7.846549459320102393e-01 4.214288436545551159e-02
3.763455087324201031e+03 8.447095649490000691e-01 3.886962304236505489e-02
3.767218542411526414e+03 8.905617482131975571e-01 3.719758655430730615e-02
3.770985760953939007e+03 9.286421966254582161e-01 3.610231257125643550e-02
3.774756746714894234e+03 9.474205764112189065e-01 3.359889704362441221e-02
3.778531503461610555e+03 9.642356363260784491e-01 3.365493756099173506e-02
3.782310034965073100e+03 9.840795818135825712e-01 3.244230329005876740e-02
3.786092345000039586e+03 1.015595849299954834e+00 3.284590685446186348e-02
3.789878437345040766e+03 1.013206483391804413e+00 3.326875826406102549e-02
3.793668315782387253e+03 1.007749521228093359e+00 3.228177060066969584e-02
3.797461984098170888e+03 9.916334502149187768e-01 3.507393547719060700e-02
3.801259446082270188e+03 9.724429982024075381e-01 3.339865354434878170e-02
3.805060705528353537e+03 9.612059145110777303e-01 3.347974748282564472e-02
3.808865766233883278e+03 9.423928758083691681e-01 3.377123617050661192e-02
3.812674632000118436e+03 9.323130692446939261e-01 3.340872466632278937e-02
3.816487306632119726e+03 9.325937215264735736e-01 3.288862762538286022e-02
3.820303793938753188e+03 9.573584052550641044e-01 3.386293454763537880e-02
3.824124097732693372e+03 9.721056268230267028e-01 3.581746086829254438e-02
3.827948221830427428e+03 1.000483305814048984e+00 3.456735702857221398e-02
3.831776170052258749e+03 1.045836542441989980e+00 3.470261617069364535e-02
3.835607946222312421e+03 1.094902507131427116e+00 3.500691771523717355e-02
3.839443554168536139e+03 1.145238477334874272e+00 3.554811258690133285e-02
3.843282997722705659e+03 1.176736399338462524e+00 3.517219822807864105e-02
3.847126280720429804e+03 1.232067830254372165e+00 3.454125050065894736e-02
3.850973407001151372e+03 1.292473030000592882e+00 3.390291208126634120e-02
3.854824380408153957e+03 1.363832398623080699e+00 3.333475387326593348e-02
3.858679204788563311e+03 1.422022537702258393e+00 3.305726632619283151e-02
3.862537883993353262e+03 1.467403678441208781e+00 3.339994543874314631e-02
3.866400421877347981e+03 1.529619741309000913e+00 3.259843192729254546e-02
3.870266822299226533e+03 1.580345180802595673e+00 3.286345992982751818e-02
3.874137089121526969e+03 1.601055672116408868e+00 3.370410936666885793e-02
3.878011226210649966e+03 1.623514598065173065e+00 3.388941717853127117e-02
3.881889237436861549e+03 1.656348845657702906e+00 3.427885466378415014e-02
3.885771126674299921e+03 1.687343915050017795e+00 3.634628053575569839e-02
3.889656897800975457e+03 1.704978926253445159e+00 3.609008304706822629e-02
3.893546554698777527e+03 1.721432236036930519e+00 3.678160455435143528e-02
3.897440101253477678e+03 1.729942594766971764e+00 3.737977812984522724e-02
3.901337541354732366e+03 1.767957324860649937e+00 3.599166298456600577e-02
3.905238878896088409e+03 1.777379622989267327e+00 3.566881022754122416e-02
3.909144117774985716e+03 1.787158355195547665e+00 3.582564001386270847e-02
3.913053261892762293e+03 1.799487148108853019e+00 3.398936496931177775e-02
3.916966315154656058e+03 1.828030450877710988e+00 3.399979658225910778e-02
3.920883281469812118e+03 1.821192336423285596e+00 3.417333674638389079e-02
3.924804164751283224e+03 1.833496946770335700e+00 3.485875727094531890e-02
3.928728968916035683e+03 1.854725670515775082e+00 3.492535966858772989e-02
3.932657697884953450e+03 1.863821712238569184e+00 3.316383503606158689e-02
3.936590355582839493e+03 1.887173751629364293e+00 3.248368670161078803e-02
3.940526945938423523e+03 1.913264579291858780e+00 3.197079266951566995e-02
3.944467472884363360e+03 1.951433788489412846e+00 3.156197138626985754e-02
3.948411940357249023e+03 1.987223072607917418e+00 3.131685297316547795e-02
3.952360352297607733e+03 2.032236722723987032e+00 3.290755523829839990e-02
3.956312712649906643e+03 2.082779570514472045e+00 3.397555939362366384e-02
3.960269025362557841e+03 2.111356232084458107e+00 3.358254194280022031e-02
3.964229294387921527e+03 2.135508811179525068e+00 3.310262094012862699e-02
3.968193523682310570e+03 2.143695714418213605e+00 3.293264410414233762e-02
3.972161717205994591e+03 2.133833030466365965e+00 3.436180595669457299e-02
3.976133878923201792e+03 2.109608014574112289e+00 3.271744047185506238e-02
3.980110012802126221e+03 2.091481657037846720e+00 3.245018814420363301e-02
3.984090122814929600e+03 2.083790072766343648e+00 3.125281625880483444e-02
3.988074212937745870e+03 2.068114060442747260e+00 3.018736353158250202e-02
3.992062287150684824e+03 2.035860281236307578e+00 2.961449028855969029e-02
3.996054349437837118e+03 1.976191961449812906e+00 3.174836996995136773e-02
4.000050403787276082e+03 1.948767474749467210e+00 3.219018175832131373e-02
4.004050454191064546e+03 1.932097033459418967e+00 3.330821632222239620e-02
4.008054504645257111e+03 1.908040133010629358e+00 3.277372892411248989e-02
4.012062559149903791e+03 1.888652783670194957e+00 3.201371435659120662e-02
4.016074621709055009e+03 1.847964955282575650e+00 3.230394438125332862e-02
4.020090696330765240e+03 1.807583229384178480e+00 3.377478662441922574e-02
4.024110787027097558e+03 1.787395286241967973e+00 3.353138702577595359e-02
4.028134897814125907e+03 1.732828489036834396e+00 3.255189070899351667e-02
4.032163032711941469e+03 1.687527452315198850e+00 3.142737503491230960e-02
4.036195195744654484e+03 1.658353719727896136e+00 3.165304136743259805e-02
4.040231390940400615e+03 1.668851574555939576e+00 3.360415687380276240e-02
4.044271622331342314e+03 1.657758502873706741e+00 3.357509958556438578e-02
4.048315893953675186e+03 1.646070886122259713e+00 3.254631403976358806e-02
4.052364209847629809e+03 1.615366750905466553e+00 3.261228070611323776e-02
4.056416574057479011e+03 1.568751728412120849e+00 3.373551731039380747e-02
4.060472990631537868e+03 1.539480047491687875e+00 3.341079558412757972e-02
4.064533463622170530e+03 1.517074242251033045e+00 3.444339841003625502e-02
4.068597997085794304e+03 1.512974816191859473e+00 3.386693308881336129e-02
4.072666595082881486e+03 1.486492078362133595e+00 3.399195745500385724e-02
4.076739261677965715e+03 1.445461254675325824e+00 3.207047615148474196e-02
4.080816000939644709e+03 1.391045920349232246e+00 2.903807854737851593e-02
4.084896816940585722e+03 1.398360398514330027e+00 2.832347057046819341e-02
4.088981713757527814e+03 1.371036037040778810e+00 2.850800111328407466e-02
4.093070695471286854e+03 1.367735395722835756e+00 2.877066115444323890e-02
4.097163766166759160e+03 1.358204450755643666e+00 2.943272975197527494e-02
4.101260929932927866e+03 1.358853674457703109e+00 2.769753589351347731e-02
4.105362190862862008e+03 1.382307449144130729e+00 2.777798666027239335e-02
4.109467553053726078e+03 1.388465150946656124e+00 2.797942074323625170e-02
4.113577020606780934e+03 1.397720826209140288e+00 2.848448907153954338e-02
4.117690597627389252e+03 1.447635846015627781e+00 3.141567090915119154e-02
4.121808288225018259e+03 1.478695376951776996e+00 2.842780563445151606e-02
4.125930096513244280e+03 1.482911502368442935e+00 2.752969034155379122e-02
4.130056026609759101e+03 1.461655128010739713e+00 2.862432685565514598e-02
4.134186082636369974e+03 1.443170081707146224e+00 2.836239562297161731e-02
4.138320268719007800e+03 1.421357373057662299e+00 2.787855380053905902e-02
4.142458588987728035e+03 1.381498265604378828e+00 2.658612399285408337e-02
4.146601047576717065e+03 1.369067221308253313e+00 2.612863028797041479e-02
4.150747648624294925e+03 1.337978213142755113e+00 2.537043867502405958e-02
4.154898396272920763e+03 1.324275516314025181e+00 2.531940680194538773e-02
4.159053294669195566e+03 1.305316312251090238e+00 2.518979656158456398e-02
4.163212347963865795e+03 1.316690234887185840e+00 2.347422906405059392e-02
4.167375560311830668e+03 1.327644147458013624e+00 2.341464043230476189e-02
4.171542935872143971e+03 1.315773289570726590e+00 2.410950640776049828e-02
4.175714478808017702e+03 1.324247714337969173e+00 2.424229702866773084e-02
4.179890193286827525e+03 1.339361476605027024e+00 2.535932345340531982e-02
4.184070083480115500e+03 1.351035856171289407e+00 2.577880824904369220e-02
4.188254153563597356e+03 1.367886004006254819e+00 2.644546650742340618e-02
4.192442407717161586e+03 1.393310731122896717e+00 2.621944567548349647e-02
4.196634850124880359e+03 1.430211372530000524e+00 2.410026893796152897e-02
4.200831484975006788e+03 1.460285039658315798e+00 2.234027961900578521e-02
4.205032316459983122e+03 1.473530074660676981e+00 2.220096669261050273e-02
4.209237348776444378e+03 1.479019667307015506e+00 2.213071245721713251e-02
4.213446586125221984e+03 1.476014647930419921e+00 2.277058979516434489e-02
4.217660032711349231e+03 1.470869640467514561e+00 2.300586962652886175e-02
4.221877692744061278e+03 1.467492194559939067e+00 2.280605360836591641e-02
4.226099570436806971e+03 1.465797009066965861e+00 2.276163857328371287e-02
4.230325670007245208e+03 1.447797623333267891e+00 2.321316551416467699e-02
4.234555995677254032e+03 1.447234228948900858e+00 2.305112266552857350e-02
4.238790551672932452e+03 1.440060907830426506e+00 2.234151752733691196e-02
4.243029342224606808e+03 1.443328608978762917e+00 2.192976423932030405e-02
4.247272371566832589e+03 1.447359121075927124e+00 2.198582767044146916e-02
4.251519643938400804e+03 1.446575656806476706e+00 2.100639365586411123e-02
4.255771163582340705e+03 1.442209614302447873e+00 2.140127615609415182e-02
4.260026934745924336e+03 1.448530627196737752e+00 2.142378144847699450e-02
4.264286961680671993e+03 1.445849875351431058e+00 2.094835307582274334e-02
4.268551248642354039e+03 1.446141813047911340e+00 2.121980975164639363e-02
4.272819799890998183e+03 1.433595504640243323e+00 2.028326538739271684e-02
4.277092619690890388e+03 1.415277327297102428e+00 1.997504449498420029e-02
4.281369712310583054e+03 1.411946509836074615e+00 2.037381788934213012e-02
4.285651082022895025e+03 1.402056522787648030e+00 1.989234208097109130e-02
4.289936733104918858e+03 1.376941307680931148e+00 2.093056460154861173e-02
4.294226669838025373e+03 1.367814241219696303e+00 2.084250014166057208e-02
4.298520896507864563e+03 1.353948194849666997e+00 2.084397761842361405e-02
4.302819417404373780e+03 1.351932017825615562e+00 1.979776036533778538e-02
4.307122236821779552e+03 1.336959698206663161e+00 1.968860717679345868e-02
4.311429359058603040e+03 1.314151421877872705e+00 1.963984005648066605e-02
4.315740788417662770e+03 1.306746284739579211e+00 1.898317907196416660e-02
4.320056529206081905e+03 1.283438515664447221e+00 2.014651463259161876e-02
4.324376585735290064e+03 1.262805314673549617e+00 2.072140386951468530e-02
4.328700962321026054e+03 1.256239603226823709e+00 2.330376720785066677e-02
4.333029663283348782e+03 1.239261129207517742e+00 2.364084222650760306e-02
4.337362692946633615e+03 1.211480240320064627e+00 2.490159204499717283e-02
4.341700055639581478e+03 1.176764543785331352e+00 2.484441210486442245e-02
4.346041755695222491e+03 1.139170886942860283e+00 2.439934877672044269e-02
4.350387797450919606e+03 1.120838825028317443e+00 2.440236361285063466e-02
4.354738185248371337e+03 1.107187338807803956e+00 2.378237341212405265e-02
4.359092923433621763e+03 1.093509895528977260e+00 2.278580021883299181e-02
4.363452016357056891e+03 1.103847312365145994e+00 2.292901108619480738e-02
4.367815468373414660e+03 1.103998996081062112e+00 2.282470662241914416e-02
4.372183283841789489e+03 1.107541803652532852e+00 2.248365276129279944e-02
4.376555467125633186e+03 1.128228123119223936e+00 2.177322893846551574e-02
4.380932022592760404e+03 1.146111191401418816e+00 2.158262595083877342e-02
4.385312954615354101e+03 1.157772351655651066e+00 2.124717673973644180e-02
4.389698267569970994e+03 1.152744867111853200e+00 2.321945549080904614e-02
4.394087965837542470e+03 1.167537133199005206e+00 2.364683877854378141e-02
4.398482053803381859e+03 1.170000124640656392e+00 2.333713431632583254e-02
4.402880535857186260e+03 1.154607314292822373e+00 2.225506397040978926e-02
4.407283416393044718e+03 1.141708128268169364e+00 2.207546076842909974e-02
4.411690699809440048e+03 1.153633880105062071e+00 2.087662217163338552e-02
4.416102390509250654e+03 1.170037169845951741e+00 2.080197967212867385e-02
4.420518492899761441e+03 1.185446825858499142e+00 2.073980250736105757e-02
4.424939011392662906e+03 1.201336067226208337e+00 1.905179494412828287e-02
4.429363950404056595e+03 1.216288377749201510e+00 1.886799400554849127e-02
4.433793314354462382e+03 1.226043126906106284e+00 1.883123692232957502e-02
4.438227107668818462e+03 1.242880386823647987e+00 1.850166399956239965e-02
4.442665334776488635e+03 1.253186376218724307e+00 1.847558766042610781e-02
4.447108000111265937e+03 1.273236579966438464e+00 1.873701439598329452e-02
4.451555108111379013e+03 1.280325078915319326e+00 1.815812552327284238e-02
4.456006663219492111e+03 1.295002170576565081e+00 1.914540704804992138e-02
4.460462669882713271e+03 1.331459935896112778e+00 1.993507185778099419e-02
4.464923132552597053e+03 1.363733000120856520e+00 2.004494905043868042e-02
4.469388055685150903e+03 1.392858026755848355e+00 1.985307208835562082e-02
4.473857443740837880e+03 1.415064482050191419e+00 1.939187431448431351e-02
4.478331301184580298e+03 1.446240641402931626e+00 1.850277333906988689e-02
4.482809632485766087e+03 1.477045506283765963e+00 1.794188897848276315e-02
4.487292442118253348e+03 1.499396664041190430e+00 1.788290386596644993e-02
4.491779734560373072e+03 1.518089583470724646e+00 1.736455291176228904e-02
4.496271514294934605e+03 1.534100119835386744e+00 1.661599999662563207e-02
4.500767785809231100e+03 1.550008985392516525e+00 1.612604496960851411e-02
4.505268553595042249e+03 1.580694735719031740e+00 1.670226599512988908e-02
4.509773822148638828e+03 1.584402673057865529e+00 1.797520430289665377e-02
4.514283595970789065e+03 1.600226544526479833e+00 1.710941785190197434e-02
4.518797879566761367e+03 1.624249951334045150e+00 1.801704386191342599e-02
4.523316677446328868e+03 1.651314342635352261e+00 1.834862241548549169e-02
4.527839994123776705e+03 1.660539035344725356e+00 1.906125996489865110e-02
4.532367834117902021e+03 1.679330354020645677e+00 1.878601294766025706e-02
4.536900201952022144e+03 1.681031967211394695e+00 1.841044863973508028e-02
4.541437102153975502e+03 1.662639478024228845e+00 1.875777998292145823e-02
4.545978539256130716e+03 1.675588526354130581e+00 1.922766528183224993e-02
4.550524517795388419e+03 1.689151832984616686e+00 2.095618930693658039e-02
4.555075042313184895e+03 1.690287901517305347e+00 2.027206984632482986e-02
4.559630117355500261e+03 1.676574163515566873e+00 2.032528215554523301e-02
4.564189747472856652e+03 1.662819353394285216e+00 2.034686651941586266e-02
4.568753937220330954e+03 1.655809260528165350e+00 1.970724852366496568e-02
4.573322691157552981e+03 1.653780357746311491e+00 2.020896748618233874e-02
4.577896013848711846e+03 1.643040752313974506e+00 2.018074169756847724e-02
4.582473909862562323e+03 1.637980937301338979e+00 2.004269091924435961e-02
4.587056383772426670e+03 1.634515573941279110e+00 2.041436775593149372e-02
4.591643440156200086e+03 1.644897539502127692e+00 2.043509447654557123e-02
4.596235083596357981e+03 1.649501150458675625e+00 2.064090430551823382e-02
4.600831318679955984e+03 1.653694912000549744e+00 2.061740276708066283e-02
4.605432149998637215e+03 1.663777948916789873e+00 2.132741157619422526e-02
4.610037582148637739e+03 1.654926485235315603e+00 2.095339031083068293e-02
4.614647619730787483e+03 1.640707661309615872e+00 2.101776528388361182e-02
4.619262267350520233e+03 1.627903896319261801e+00 2.024567164660210847e-02
4.623881529617872729e+03 1.595507015589407995e+00 2.075398790983156924e-02
4.628505411147491941e+03 1.554128575931311929e+00 1.920632172291424772e-02
4.633133916558640522e+03 1.514556609404761778e+00 1.888667655640893436e-02
4.637767050475200449e+03 1.492724547491729226e+00 1.822626482813559726e-02
4.642404817525677572e+03 1.437729229147682197e+00 1.976825094075487788e-02
4.647047222343205249e+03 1.398969676811495422e+00 1.925905254545238338e-02
4.651694269565549803e+03 1.369367899322397220e+00 1.939801302067979683e-02
4.656345963835116891e+03 1.342795092351861008e+00 1.947086358109585344e-02
4.661002309798953320e+03 1.334646001803570625e+00 1.835726861503484200e-02
4.665663312108753416e+03 1.318124557241101114e+00 1.844579823089106951e-02
4.670328975420864481e+03 1.304740490656848273e+00 1.861314268609665437e-02
4.674999304396286789e+03 1.296329194464136414e+00 1.898874740462882030e-02
4.679674303700684504e+03 1.281612487697332492e+00 1.885987445935279755e-02
4.684353978004386590e+03 1.272785166523070055e+00 1.772342404637386806e-02
4.689038331982392265e+03 1.262748948573607644e+00 1.747671701753174267e-02
4.693727370314376458e+03 1.255052126068479046e+00 1.686386353520608755e-02
4.698421097684692540e+03 1.226466927241398608e+00 1.585523587112799837e-02
4.703119518782378691e+03 1.208461778156985966e+00 1.592982307384820106e-02
4.707822638301162442e+03 1.184589822775449885e+00 1.583722513200847698e-02
4.712530460939465229e+03 1.154043909511614618e+00 1.516788226746398731e-02
4.717242991400406027e+03 1.127328182267931744e+00 1.519991236724120391e-02
4.721960234391808626e+03 1.101566715737292812e+00 1.433701932421781698e-02
4.726682194626201635e+03 1.068349357731322558e+00 1.500825126980667550e-02
4.731408876820829391e+03 1.030450140498626821e+00 1.278022667099219280e-02
4.736140285697651962e+03 1.005373027433548838e+00 1.256692119620185684e-02
4.740876425983350600e+03 9.769109925123424798e-01 1.285514092114291122e-02
4.745617302409335934e+03 9.433460957407594494e-01 1.299867188318096743e-02
4.750362919711747054e+03 9.376113125836528228e-01 1.407687949183872300e-02
4.755113282631459697e+03 9.202259686706605324e-01 1.469368121333488805e-02
4.759868395914093526e+03 9.088399917735832112e-01 1.492710571435727426e-02
4.764628264310008490e+03 9.140188726440577893e-01 1.387686789030815812e-02
4.769392892574320285e+03 9.109760637244722625e-01 1.368644955227053123e-02
4.774162285466896719e+03 9.128277242347188070e-01 1.340702172047614563e-02
4.778936447752364984e+03 9.195862246597400480e-01 1.365316275005678051e-02
4.783715384200118933e+03 9.227508915791725608e-01 1.331376366729367100e-02
