# starting wavelength: 3327.220
# ending wavelength: 10123.300
# wav flux eflux
3.328091114369046863e+03 2.407606149966695641e-01 8.848704990557789696e-01
3.331419205483417045e+03 3.473242731625860724e-01 6.332754570679668404e-01
3.334750624688901553e+03 4.541512387060712697e-01 4.664869371553415078e-01
3.338085375313591612e+03 5.654899635457528717e-01 3.584602348049897858e-01
3.341423460688906289e+03 6.615718050974093156e-01 2.872785658828772570e-01
3.344764884149596128e+03 7.133048027564481419e-01 2.257532877508211799e-01
3.348109649033746791e+03 7.467281652133069825e-01 1.828467437289958974e-01
3.351457758682781787e+03 7.607089252332168705e-01 1.510620189388023893e-01
3.354809216441465651e+03 7.653358256279867433e-01 1.278078713142064005e-01
3.358164025657908041e+03 7.716761683786801385e-01 1.138686554054640643e-01
3.361522189683567376e+03 7.602202829423649888e-01 9.820873336897772976e-02
3.364883711873251741e+03 7.298948146279962135e-01 8.873973019337119683e-02
3.368248595585126168e+03 6.871455739761503922e-01 8.198063079023831801e-02
3.371616844180712633e+03 6.116781734860141651e-01 8.478572520689091341e-02
3.374988461024894150e+03 5.704182057366017355e-01 7.943584425606073363e-02
3.378363449485920228e+03 5.360256406107644089e-01 7.630075393448972065e-02
3.381741812935407324e+03 5.157014329520155371e-01 7.354695506533835692e-02
3.385123554748343849e+03 4.987839371665400146e-01 7.139508684976160480e-02
3.388508678303093347e+03 4.824894895618976332e-01 6.938663835863637108e-02
3.391897186981397681e+03 4.383588704671720904e-01 6.551879228450302461e-02
3.395289084168380214e+03 4.382464939948830795e-01 6.710430126316199728e-02
3.398684373252549449e+03 4.228459331078832095e-01 6.968016972899011841e-02
3.402083057625803121e+03 4.247277990160297501e-01 7.028477386920550796e-02
3.405485140683430018e+03 4.615268007113262905e-01 5.843826169586698732e-02
3.408890625824114522e+03 4.836414394151302698e-01 5.852533914055822045e-02
3.412299516449939802e+03 4.999307300416038768e-01 5.803167679522319017e-02
3.415711815966390986e+03 5.058259959568578434e-01 6.020174841526564069e-02
3.419127527782358356e+03 4.960502278179431679e-01 5.872307069231642168e-02
3.422546655310141887e+03 5.054806727278046141e-01 5.756773821503229777e-02
3.425969201965453522e+03 5.001894630499493788e-01 5.747370976618912386e-02
3.429395171167419903e+03 5.156618861359971717e-01 5.411272659056039908e-02
3.432824566338588284e+03 5.124081090545878903e-01 5.546013956767376074e-02
3.436257390904928343e+03 5.341522610171058894e-01 5.464218988685390355e-02
3.439693648295834464e+03 5.211429832978197174e-01 5.421719463999354061e-02
3.443133341944131189e+03 5.153239836482709224e-01 5.406882866059738862e-02
3.446576475286076402e+03 5.108890201714698653e-01 5.444059530057385188e-02
3.450023051761363604e+03 5.043268431242038385e-01 5.302003741136852161e-02
3.453473074813126004e+03 4.970592638938329810e-01 5.269216591378760028e-02
3.456926547887940615e+03 4.952824586323564260e-01 5.474450914981267291e-02
3.460383474435829612e+03 4.927264228037683269e-01 5.506839864688935909e-02
3.463843857910266706e+03 4.746117111611145578e-01 5.343092167066194886e-02
3.467307701768178049e+03 4.528244644108145311e-01 5.156439934034117573e-02
3.470775009469947236e+03 4.525209583939910907e-01 5.226496662346506034e-02
3.474245784479418489e+03 4.634150610566289963e-01 5.137475234930789780e-02
3.477720030263898934e+03 4.818153218946081284e-01 4.955925138889330506e-02
3.481197750294164052e+03 4.865152914755698776e-01 4.811849751207628034e-02
3.484678948044459503e+03 5.069803636650119794e-01 4.307191341770209153e-02
3.488163626992504760e+03 5.015571441536419428e-01 4.280355776489162128e-02
3.491651790619498570e+03 4.854803650700696416e-01 4.299617264915229359e-02
3.495143442410119405e+03 4.644635357810404375e-01 3.450869269755697105e-02
3.498638585852530468e+03 4.741609367131358055e-01 3.430243586278875628e-02
3.502137224438384237e+03 4.830309483579505736e-01 3.367168405563054218e-02
3.505639361662823831e+03 4.890549969904094962e-01 3.389830369153094131e-02
3.509145001024487556e+03 4.897521199674668702e-01 3.389912137096675465e-02
3.512654146025513455e+03 4.867866811329190635e-01 3.344317778052193629e-02
3.516166800171540217e+03 4.917786021120179041e-01 3.272912815302832235e-02
3.519682966971712631e+03 5.062137752318560668e-01 3.119721966383843734e-02
3.523202649938685681e+03 4.956930153455716415e-01 2.912261185350426690e-02
3.526725852588625457e+03 4.880901011975972703e-01 2.876991130773947497e-02
3.530252578441215064e+03 4.948068781729135224e-01 2.655321743182923605e-02
3.533782831019657806e+03 4.852144081073054838e-01 2.778517584561984721e-02
3.537316613850678550e+03 4.949322112581585054e-01 2.821872798093667811e-02
3.540853930464530094e+03 5.123618847486147709e-01 2.593660610807162203e-02
3.544394784394995895e+03 5.115490115864639309e-01 2.678754816865887289e-02
3.547939179179392340e+03 4.894861739790744570e-01 2.654485032772653519e-02
3.551487118358572843e+03 4.683044004418735473e-01 2.705981038850502340e-02
3.555038605476932389e+03 4.565116514410480497e-01 2.820143121673931649e-02
3.558593644082410719e+03 4.505950795913216123e-01 2.737985752262747305e-02
3.562152237726494150e+03 4.536199417438487869e-01 2.839807682341331796e-02
3.565714389964221937e+03 4.447735748315561066e-01 2.742379508220212439e-02
3.569280104354187188e+03 4.377861620194200554e-01 2.793050733902097127e-02
3.572849384458542772e+03 4.450366576236152727e-01 2.737862293907772360e-02
3.576422233843002232e+03 4.461975943791510191e-01 2.763905409025809931e-02
3.579998656076846601e+03 4.549492451405905413e-01 2.797483978022618015e-02
3.583578654732924406e+03 4.598208187262244895e-01 2.800542075049225477e-02
3.587162233387658489e+03 4.854832965174348258e-01 2.837559132082438998e-02
3.590749395621047370e+03 5.180141691655794078e-01 3.193834172421127632e-02
3.594340145016669794e+03 5.373606353891091647e-01 3.188704958070137652e-02
3.597934485161687462e+03 5.376812469417617812e-01 3.238559213009854776e-02
3.601532419646850485e+03 5.521351477180946876e-01 3.182703027356852121e-02
3.605133952066498296e+03 5.564337150533417153e-01 3.098189242085242281e-02
3.608739086018566013e+03 5.532432038137576891e-01 3.098632623735112987e-02
3.612347825104585809e+03 5.620502043821461458e-01 3.077259219152751052e-02
3.615960172929691907e+03 5.666467145624859425e-01 3.085288146288320960e-02
3.619576133102622407e+03 5.704226319994198935e-01 3.215779100961211473e-02
3.623195709235726554e+03 5.730057046799599263e-01 3.260844358282852240e-02
3.626818904944963379e+03 5.661785791752371733e-01 3.322621654931463137e-02
3.630445723849909427e+03 5.666333453053227220e-01 3.326055793431614144e-02
3.634076169573760581e+03 5.553419964776750151e-01 3.454018468854794244e-02
3.637710245743335690e+03 5.439798253932391914e-01 3.408783455800530604e-02
3.641347955989080219e+03 5.408574248673351237e-01 3.374271786516237076e-02
3.644989303945070333e+03 5.356688767765339643e-01 3.351933929406757801e-02
3.648634293249016537e+03 5.500502787770548130e-01 3.164328242524367535e-02
3.652282927542266862e+03 5.600524527988637313e-01 3.102701028768939037e-02
3.655935210469810499e+03 5.595536785965518067e-01 2.998067805204636740e-02
3.659591145680281443e+03 5.648636014410766126e-01 3.054475762341250095e-02
3.663250736825963031e+03 5.720342670951238384e-01 3.038810056118355918e-02
3.666913987562790226e+03 5.738208614065847257e-01 3.060129328900298984e-02
3.670580901550354156e+03 5.773046479463332936e-01 2.968660607489566339e-02
3.674251482451905758e+03 5.836607389006253088e-01 2.721572376478639463e-02
3.677925733934358959e+03 5.787142177625670403e-01 2.839488201358119843e-02
3.681603659668294313e+03 5.635891957216481174e-01 2.910726614949572452e-02
3.685285263327964003e+03 5.475824271836625678e-01 2.871214783586819100e-02
3.688970548591293209e+03 5.373070663102101907e-01 2.895460155993656581e-02
3.692659519139885560e+03 5.211004135335984833e-01 2.773851077551627714e-02
3.696352178659026777e+03 5.268948737053470444e-01 2.690604996300809820e-02
3.700048530837686940e+03 5.335809233038363297e-01 2.606646766890825459e-02
3.703748579368525952e+03 5.248837541028184006e-01 2.202304022671542835e-02
3.707452327947895355e+03 5.271261771631275961e-01 2.216012720688079543e-02
3.711159780275844696e+03 5.229512890587194596e-01 2.210408030472503504e-02
3.714870940056121526e+03 5.289173565899769613e-01 2.415289031569254480e-02
3.718585810996179134e+03 5.344592040974497360e-01 2.417680542826230322e-02
3.722304396807176545e+03 5.566850725403916789e-01 2.065519834649734085e-02
3.726026701203984885e+03 5.645550168399163793e-01 1.829971638101047376e-02
3.729752727905190113e+03 5.689807468615299957e-01 1.878093638412905997e-02
3.733482480633096657e+03 5.721578257741367635e-01 1.659500108554210276e-02
3.737215963113731050e+03 5.466626487280102920e-01 1.994664686419144253e-02
3.740953179076846027e+03 5.275700568150861747e-01 2.110262178792160492e-02
3.744694132255923705e+03 5.145169239189559818e-01 2.191497046101555102e-02
3.748438826388181042e+03 4.823643753189857386e-01 1.878206644080054888e-02
3.752187265214570289e+03 4.467063209958663239e-01 1.702175912350273324e-02
3.755939452479786269e+03 4.301986939632893581e-01 1.639293080153447074e-02
3.759695391932267285e+03 4.129916308706131911e-01 1.618403847936537160e-02
3.763455087324201031e+03 4.043487696304282064e-01 1.781188789271652764e-02
3.767218542411526414e+03 4.013859485580544284e-01 1.889527221390630007e-02
3.770985760953939007e+03 3.925977919465560850e-01 1.887797333068153699e-02
3.774756746714894234e+03 3.862042156118274949e-01 1.881853375645406098e-02
3.778531503461610555e+03 3.815640194937867102e-01 1.879522832629977255e-02
3.782310034965073100e+03 3.804160372674791346e-01 1.965897847212278240e-02
3.786092345000039586e+03 3.846640592655599100e-01 1.934027224990473096e-02
3.789878437345040766e+03 3.836913563349930723e-01 1.953034315035285379e-02
3.793668315782387253e+03 3.844634208848076717e-01 1.957923666179989253e-02
3.797461984098170888e+03 3.874199962803680508e-01 1.951808147285639602e-02
3.801259446082270188e+03 3.853736310985901858e-01 1.949302421024452781e-02
3.805060705528353537e+03 3.806734866437247455e-01 1.966783183741873872e-02
3.808865766233883278e+03 3.742763735949645731e-01 1.930540458404005066e-02
3.812674632000118436e+03 3.747022752332462292e-01 1.940093336409651203e-02
3.816487306632119726e+03 3.637398209970743590e-01 1.851825793386165098e-02
3.820303793938753188e+03 3.643919263189975277e-01 1.916202187300713664e-02
3.824124097732693372e+03 3.598711425573010714e-01 1.889015788595911280e-02
3.827948221830427428e+03 3.714488152013226685e-01 1.559407480298003780e-02
3.831776170052258749e+03 3.783308664449542835e-01 1.547577888694379872e-02
3.835607946222312421e+03 3.765481387256051637e-01 1.365976323415785121e-02
3.839443554168536139e+03 3.802831058150211718e-01 1.513273976013534798e-02
3.843282997722705659e+03 3.904943055507334448e-01 1.477572227045323774e-02
3.847126280720429804e+03 3.994257170887831609e-01 1.259000998710172424e-02
3.850973407001151372e+03 4.198296964245788465e-01 1.454463140112120974e-02
3.854824380408153957e+03 4.444978017539827908e-01 1.685306481726234207e-02
3.858679204788563311e+03 4.686496521007208482e-01 1.430513605042298825e-02
3.862537883993353262e+03 4.864581247458922286e-01 1.250234127869533779e-02
3.866400421877347981e+03 5.010094274912930690e-01 1.308119852026590549e-02
3.870266822299226533e+03 5.100267185796867331e-01 1.402059672284647167e-02
3.874137089121526969e+03 5.117644266685434928e-01 1.667151445130925225e-02
3.878011226210649966e+03 5.217294707272880361e-01 1.718291118983216251e-02
3.881889237436861549e+03 5.276025073337762272e-01 1.554134079841168296e-02
3.885771126674299921e+03 5.449963737362204519e-01 1.611312873110264804e-02
3.889656897800975457e+03 5.636782879101529531e-01 1.678331441668493712e-02
3.893546554698777527e+03 5.813176145855415422e-01 1.681655070167563729e-02
3.897440101253477678e+03 5.967896153173070095e-01 1.653213418348565417e-02
3.901337541354732366e+03 6.217954422582784302e-01 1.645426227743035721e-02
3.905238878896088409e+03 6.556207799201760889e-01 1.630399738091136905e-02
3.909144117774985716e+03 6.842451190763796376e-01 1.634763103394019576e-02
3.913053261892762293e+03 7.192280622785417465e-01 1.573273631219207491e-02
3.916966315154656058e+03 7.538315747882715634e-01 1.621942936564306839e-02
3.920883281469812118e+03 7.834040908795431024e-01 1.697334590663528153e-02
3.924804164751283224e+03 8.117769409855328799e-01 1.688725234856764540e-02
3.928728968916035683e+03 8.279584318415003086e-01 1.362026010139845769e-02
3.932657697884953450e+03 8.502495403056471446e-01 1.414094060654169475e-02
3.936590355582839493e+03 8.722701081023284120e-01 1.572411325706631752e-02
3.940526945938423523e+03 8.978590795217081810e-01 1.289088648118419562e-02
3.944467472884363360e+03 9.123822774823410198e-01 1.175434805482294086e-02
3.948411940357249023e+03 9.163529201799957002e-01 1.194967317762585766e-02
3.952360352297607733e+03 9.088244123170237110e-01 1.443783723153634763e-02
3.956312712649906643e+03 8.927021522247877705e-01 1.289110733004796873e-02
3.960269025362557841e+03 8.756664468024418779e-01 1.285098082135485535e-02
3.964229294387921527e+03 8.675611326045783445e-01 1.126564672924563679e-02
3.968193523682310570e+03 8.678335000811995270e-01 1.150676035114172810e-02
3.972161717205994591e+03 8.723593927230521849e-01 1.166813284778079295e-02
3.976133878923201792e+03 8.799829372178226139e-01 1.192897165118884072e-02
3.980110012802126221e+03 8.878515854676679586e-01 1.249399118352190023e-02
3.984090122814929600e+03 9.103191697560717444e-01 1.541883836981883249e-02
3.988074212937745870e+03 9.317262750022924367e-01 1.201900071252693172e-02
3.992062287150684824e+03 9.453110585436863555e-01 1.127506286079116640e-02
3.996054349437837118e+03 9.498649190047999680e-01 1.479673746935682675e-02
4.000050403787276082e+03 9.495254993812732858e-01 1.508989889683160293e-02
4.004050454191064546e+03 9.578781717496270831e-01 1.509319119617246949e-02
4.008054504645257111e+03 9.568335135935568392e-01 1.388130312947319193e-02
4.012062559149903791e+03 9.622072082312744801e-01 1.302895374548377998e-02
4.016074621709055009e+03 9.759495460229729025e-01 1.427063653585489665e-02
4.020090696330765240e+03 9.889870353479247589e-01 1.578218759805297133e-02
4.024110787027097558e+03 1.003032727999234375e+00 1.462305448346767206e-02
4.028134897814125907e+03 1.016562480939247726e+00 1.347568986433573743e-02
4.032163032711941469e+03 1.023946505639879101e+00 1.317548755106880305e-02
4.036195195744654484e+03 1.024213112140597959e+00 1.342392127494967773e-02
4.040231390940400615e+03 1.016601528647696595e+00 1.340762083752532197e-02
4.044271622331342314e+03 1.011097448040996660e+00 1.332519427520518530e-02
4.048315893953675186e+03 9.939417639705206975e-01 1.274707816377399633e-02
4.052364209847629809e+03 9.693680277640027709e-01 1.184652758460795832e-02
4.056416574057479011e+03 9.491741536874511720e-01 1.105816780697432312e-02
4.060472990631537868e+03 9.383012760714267708e-01 1.083892212873927875e-02
4.064533463622170530e+03 9.337257218397433389e-01 1.183325622453323782e-02
4.068597997085794304e+03 9.290596051454610427e-01 1.162470834816859561e-02
4.072666595082881486e+03 9.222583470905706404e-01 1.095538818121005904e-02
4.076739261677965715e+03 9.252168624828231991e-01 1.297987862532911166e-02
4.080816000939644709e+03 9.242258654777977256e-01 1.184845699451955205e-02
4.084896816940585722e+03 9.145086741739697489e-01 1.186120006064473806e-02
4.088981713757527814e+03 9.087287198068693117e-01 1.189542400733789411e-02
4.093070695471286854e+03 9.060010093209727167e-01 1.155958188798188527e-02
4.097163766166759160e+03 9.019807731743191281e-01 1.160142304820883929e-02
4.101260929932927866e+03 8.913383795027304268e-01 1.175142968715464295e-02
4.105362190862862008e+03 8.900543268287609555e-01 1.201731391287333764e-02
4.109467553053726078e+03 8.865644973244400928e-01 1.192650128930284985e-02
4.113577020606780934e+03 8.839520140197600906e-01 1.154867084121843045e-02
4.117690597627389252e+03 8.842193540761628112e-01 1.155000933359413319e-02
4.121808288225018259e+03 8.953978158197951620e-01 1.141208322079171819e-02
4.125930096513244280e+03 9.016504672467260395e-01 1.075563913329258964e-02
4.130056026609759101e+03 9.049588701875230790e-01 1.075648048397468554e-02
4.134186082636369974e+03 9.018547143802678745e-01 1.265737204404084569e-02
4.138320268719007800e+03 9.001526053369867109e-01 1.217426852574889432e-02
4.142458588987728035e+03 9.015882068200060662e-01 1.270833612165326795e-02
4.146601047576717065e+03 9.071675164742684094e-01 1.435318756483033344e-02
4.150747648624294925e+03 9.093582025846781436e-01 1.437155449732082681e-02
4.154898396272920763e+03 9.176745561725869749e-01 1.362573287244638574e-02
4.159053294669195566e+03 9.197304454086320247e-01 1.355045149174353286e-02
4.163212347963865795e+03 9.229962539227195562e-01 1.365088121269702678e-02
4.167375560311830668e+03 9.259923654161466011e-01 1.353549081698486763e-02
4.171542935872143971e+03 9.253988313830625589e-01 1.346954634702271850e-02
4.175714478808017702e+03 9.227028636847440790e-01 1.372458164821858083e-02
4.179890193286827525e+03 9.138063412111182560e-01 1.384543041540746075e-02
4.184070083480115500e+03 9.065315423185982269e-01 1.384354563910595963e-02
4.188254153563597356e+03 8.931780141001455231e-01 1.373599572478115954e-02
4.192442407717161586e+03 8.811182380977532480e-01 1.437118241282070961e-02
4.196634850124880359e+03 8.878713790851930909e-01 1.633567323376473521e-02
4.200831484975006788e+03 8.939985248290922559e-01 1.563112215020387441e-02
4.205032316459983122e+03 9.020249920799127130e-01 1.557536459476146183e-02
4.209237348776444378e+03 9.122029970517732123e-01 1.496681495262106899e-02
4.213446586125221984e+03 9.137764106869883385e-01 1.500760320117197621e-02
4.217660032711349231e+03 9.185074619918788263e-01 1.522032887869423541e-02
4.221877692744061278e+03 9.262627837309815870e-01 1.553487829068143748e-02
4.226099570436806971e+03 9.391503326920409567e-01 1.298003710761979658e-02
4.230325670007245208e+03 9.377402887726630221e-01 1.234710759469296280e-02
4.234555995677254032e+03 9.364987111748771520e-01 1.255235875501671712e-02
4.238790551672932452e+03 9.283727353501405322e-01 1.252019338276449262e-02
4.243029342224606808e+03 9.136570147889726545e-01 1.349398370910460249e-02
4.247272371566832589e+03 8.989725945273170371e-01 1.420412186464598513e-02
4.251519643938400804e+03 8.900857123858755271e-01 1.411669530997310650e-02
4.255771163582340705e+03 8.892811685659091081e-01 1.382560443244243605e-02
4.260026934745924336e+03 8.860023561311453077e-01 1.378969203769762723e-02
4.264286961680671993e+03 8.855965142940627199e-01 1.301959477133214638e-02
4.268551248642354039e+03 8.855220556531742115e-01 1.285672109282085321e-02
4.272819799890998183e+03 8.821869990074475698e-01 1.177915439147887364e-02
4.277092619690890388e+03 8.886472366048557836e-01 1.225638294081981411e-02
4.281369712310583054e+03 9.032577795653869979e-01 1.027732009033712444e-02
4.285651082022895025e+03 9.115969061812311258e-01 9.285550788882847989e-03
4.289936733104918858e+03 9.030762697302139319e-01 1.119379902071810685e-02
4.294226669838025373e+03 8.851337026574697120e-01 1.329324367591569814e-02
4.298520896507864563e+03 8.647036018776893540e-01 1.349556097125576525e-02
4.302819417404373780e+03 8.537410885248332137e-01 1.319323164934052724e-02
4.307122236821779552e+03 8.411006993223694161e-01 1.209308591683427511e-02
4.311429359058603040e+03 8.417043254651446205e-01 1.441399619470305586e-02
4.315740788417662770e+03 8.451224430992596570e-01 1.395432685610122070e-02
4.320056529206081905e+03 8.520332011864061306e-01 1.543884340109010107e-02
4.324376585735290064e+03 8.524754635300675343e-01 1.640932816115470844e-02
4.328700962321026054e+03 8.401684697990821071e-01 1.771457816859534767e-02
4.333029663283348782e+03 8.330323901867138225e-01 1.763146993100756996e-02
