# starting wavelength: 3411.160
# ending wavelength: 8937.070
# wav flux eflux
3.412299516449939802e+03 1.081839281398894625e+00 1.556023512110812801e+00
3.415711815966390986e+03 1.021362153727156219e+00 1.135275326526359985e+00
3.419127527782358356e+03 6.744891338181541185e-01 1.001677131456597314e+00
3.422546655310141887e+03 3.461279029562410736e-01 7.829233236019216280e-01
3.425969201965453522e+03 1.843980573179546667e-01 6.084404156539579001e-01
3.429395171167419903e+03 4.787100605826910549e-02 4.804980704318104756e-01
3.432824566338588284e+03 -1.052164446079717486e-02 3.910776486549779607e-01
3.436257390904928343e+03 3.046163191091511013e-02 3.297538456663299256e-01
3.439693648295834464e+03 1.415341575180197875e-01 2.747444208851407832e-01
3.443133341944131189e+03 3.279463521607867693e-01 2.412178848309497470e-01
3.446576475286076402e+03 5.332212855781507388e-01 2.125743597348426772e-01
3.450023051761363604e+03 7.130158798817279875e-01 1.898938839865079997e-01
3.453473074813126004e+03 9.241989927044382824e-01 1.726800076302356657e-01
3.456926547887940615e+03 1.077347220525011195e+00 1.600326442551562034e-01
3.460383474435829612e+03 1.169439000896570269e+00 1.531568056571438186e-01
3.463843857910266706e+03 1.266461878309157463e+00 1.457186389271911686e-01
3.467307701768178049e+03 1.318305284143492351e+00 1.412300061592797196e-01
3.470775009469947236e+03 1.326653878128672970e+00 1.376026226223691085e-01
3.474245784479418489e+03 1.357677710215340117e+00 1.338387609245581256e-01
3.477720030263898934e+03 1.388960070003024905e+00 1.294786368951698907e-01
3.481197750294164052e+03 1.346914475386546073e+00 1.340333412113035860e-01
3.484678948044459503e+03 1.260619598879334058e+00 1.344482523359133153e-01
3.488163626992504760e+03 1.075879669228753333e+00 1.248335835633994362e-01
3.491651790619498570e+03 9.653271497463082884e-01 1.216407520137505055e-01
3.495143442410119405e+03 8.515426635654608223e-01 1.219113876288888815e-01
3.498638585852530468e+03 6.825113284518593559e-01 1.184847021995606292e-01
3.502137224438384237e+03 5.249497206232904833e-01 1.070855590782726074e-01
3.505639361662823831e+03 3.679093091633225954e-01 9.810029791911643871e-02
3.509145001024487556e+03 2.952880346274887047e-01 9.900263146334688236e-02
3.512654146025513455e+03 2.606593454056532200e-01 9.423540493331405976e-02
3.516166800171540217e+03 2.784351825822951598e-01 9.199921990436232822e-02
3.519682966971712631e+03 2.830042343371549918e-01 9.399014076395076356e-02
3.523202649938685681e+03 2.325492763566643917e-01 9.397846691551890730e-02
3.526725852588625457e+03 2.230170125371674361e-01 9.462732245642553608e-02
3.530252578441215064e+03 2.260108342324258501e-01 9.550623258354183631e-02
3.533782831019657806e+03 2.423390448344012182e-01 9.205098961829687176e-02
3.537316613850678550e+03 2.432158941578996258e-01 9.383622611964148597e-02
3.540853930464530094e+03 2.687386430553568850e-01 9.375716668102036799e-02
3.544394784394995895e+03 3.430616912280559094e-01 9.347825159628334046e-02
3.547939179179392340e+03 4.196409514852671996e-01 8.882972042789014089e-02
3.551487118358572843e+03 3.790817092465028626e-01 7.902895664752694616e-02
3.555038605476932389e+03 4.021940082013143458e-01 7.869452191044237765e-02
3.558593644082410719e+03 4.888156811733886387e-01 8.157772056385767523e-02
3.562152237726494150e+03 5.702352226551286041e-01 8.384163545118122896e-02
3.565714389964221937e+03 6.397595655973981055e-01 8.333010689521405667e-02
3.569280104354187188e+03 7.238012176355369531e-01 8.023707458874641818e-02
3.572849384458542772e+03 7.492760258287549657e-01 7.971294016686941708e-02
3.576422233843002232e+03 8.369084708045881893e-01 7.757474564992618282e-02
3.579998656076846601e+03 8.982709643762881724e-01 7.864815951359943602e-02
3.583578654732924406e+03 9.314916656969148834e-01 8.019711368554194308e-02
3.587162233387658489e+03 9.254038003674629476e-01 7.967986190383358203e-02
3.590749395621047370e+03 8.726992041496779429e-01 8.316382112242501345e-02
3.594340145016669794e+03 8.040932297836521636e-01 8.633607057670485141e-02
3.597934485161687462e+03 7.403690315090999396e-01 9.470214161345982817e-02
3.601532419646850485e+03 6.246483031166573108e-01 8.966581767543294057e-02
3.605133952066498296e+03 5.961861550521843078e-01 8.918479668123867332e-02
3.608739086018566013e+03 5.277434164307970299e-01 8.699362234131494120e-02
3.612347825104585809e+03 5.231043186560707658e-01 8.935917549492064516e-02
3.615960172929691907e+03 4.586242561622035918e-01 8.939131252918990078e-02
3.619576133102622407e+03 3.668818534267620501e-01 8.782739297617454810e-02
3.623195709235726554e+03 3.379916144209486051e-01 8.767822674245416559e-02
3.626818904944963379e+03 3.252284234906048788e-01 8.870506790684261345e-02
3.630445723849909427e+03 3.162264709756679171e-01 8.827237456089405410e-02
3.634076169573760581e+03 3.601683119295735480e-01 8.559537087334351257e-02
3.637710245743335690e+03 4.229770438844462355e-01 8.365935057550211162e-02
3.641347955989080219e+03 4.485275843090634762e-01 8.171505712048315884e-02
3.644989303945070333e+03 5.034240372482827741e-01 8.008495347575222967e-02
3.648634293249016537e+03 5.561530108846713949e-01 7.833831883398335860e-02
3.652282927542266862e+03 5.756345611379597438e-01 7.892481823133451480e-02
3.655935210469810499e+03 6.076084751779725623e-01 7.659091437015759507e-02
3.659591145680281443e+03 6.529913321103383295e-01 7.483453542251393420e-02
3.663250736825963031e+03 6.175143098275055475e-01 7.533131509817621307e-02
3.666913987562790226e+03 5.800556725984314932e-01 7.254752124831281845e-02
3.670580901550354156e+03 5.775594526749069368e-01 7.210929304961914699e-02
3.674251482451905758e+03 5.996681000586893129e-01 7.100430967295309759e-02
3.677925733934358959e+03 5.919135456316418908e-01 6.841295263925328829e-02
3.681603659668294313e+03 5.739748175446331979e-01 6.587210911460500418e-02
3.685285263327964003e+03 5.619892080623867248e-01 6.528807741847263146e-02
3.688970548591293209e+03 6.041421908920244777e-01 6.082113464878105558e-02
3.692659519139885560e+03 6.345885870553652497e-01 5.806056967568661714e-02
3.696352178659026777e+03 7.043648726370425051e-01 5.666302873596138628e-02
3.700048530837686940e+03 7.447676584930867927e-01 5.788785797522556786e-02
3.703748579368525952e+03 7.656487924086632368e-01 5.946762028998319599e-02
3.707452327947895355e+03 7.401985427456582167e-01 5.778193426270442773e-02
3.711159780275844696e+03 7.149335142160718748e-01 5.831524686299895122e-02
3.714870940056121526e+03 6.999523809621517323e-01 5.782791949166472822e-02
3.718585810996179134e+03 7.069157832631578486e-01 5.601642324293025499e-02
3.722304396807176545e+03 7.142702214254685877e-01 5.462268921501917118e-02
3.726026701203984885e+03 6.624687525493452300e-01 4.987320197809982231e-02
3.729752727905190113e+03 6.293470308864779206e-01 4.874042808152756479e-02
3.733482480633096657e+03 5.936532658141454588e-01 4.863122700794857839e-02
3.737215963113731050e+03 5.338174142316360893e-01 4.952203181218332861e-02
3.740953179076846027e+03 4.850319967229023144e-01 5.011983164173362815e-02
3.744694132255923705e+03 4.668271328204170456e-01 5.011257216011292398e-02
3.748438826388181042e+03 4.760417811643110619e-01 5.292617521620331805e-02
3.752187265214570289e+03 4.794460150535001519e-01 5.393418124303438199e-02
3.755939452479786269e+03 4.659914103317744916e-01 5.364004355233082527e-02
3.759695391932267285e+03 4.498332264389139357e-01 5.358890619661953181e-02
3.763455087324201031e+03 4.639604757010784009e-01 5.329977592846602691e-02
3.767218542411526414e+03 4.450150308762164109e-01 5.383025348108180785e-02
3.770985760953939007e+03 4.396974420759222069e-01 5.363726626704861528e-02
3.774756746714894234e+03 4.200541774235441173e-01 5.335110889823962282e-02
3.778531503461610555e+03 3.786297961477391727e-01 5.631123246539811167e-02
3.782310034965073100e+03 3.667597533161056633e-01 5.725539180348775126e-02
3.786092345000039586e+03 3.280682300123975992e-01 5.508737167371655780e-02
3.789878437345040766e+03 2.913367419191328356e-01 5.005964793663737061e-02
3.793668315782387253e+03 2.790050457150157204e-01 4.919794072608692226e-02
3.797461984098170888e+03 2.959858854320448485e-01 4.718572025341023074e-02
3.801259446082270188e+03 3.549946708352704761e-01 4.414864894987922950e-02
3.805060705528353537e+03 4.139742401258479365e-01 4.388603039848943538e-02
3.808865766233883278e+03 4.068563390179401607e-01 4.381098151530132129e-02
3.812674632000118436e+03 4.209850375425349678e-01 4.248329466858255521e-02
3.816487306632119726e+03 4.549347446232911985e-01 4.239541250931989913e-02
3.820303793938753188e+03 4.839343396099244354e-01 4.338625004065443935e-02
3.824124097732693372e+03 5.391373381196992165e-01 4.090818380813988908e-02
3.827948221830427428e+03 5.570587295632296598e-01 4.368799235525749891e-02
3.831776170052258749e+03 5.669256890635747670e-01 4.264079132504304537e-02
3.835607946222312421e+03 5.633276450304148808e-01 3.833666958621039650e-02
3.839443554168536139e+03 5.880406452201942802e-01 3.784639560304724898e-02
3.843282997722705659e+03 6.392042481162875101e-01 3.935214114337386160e-02
3.847126280720429804e+03 6.721517583029611442e-01 4.031960001182000736e-02
3.850973407001151372e+03 6.859644939751686765e-01 3.984900206516114179e-02
3.854824380408153957e+03 7.270611535735693742e-01 3.944407986427352075e-02
3.858679204788563311e+03 7.917286119069552042e-01 3.583608778215315732e-02
3.862537883993353262e+03 8.302548045639548402e-01 3.426938133022994215e-02
3.866400421877347981e+03 8.452298757291228926e-01 3.440262950975070400e-02
3.870266822299226533e+03 8.367199736103043683e-01 3.543311032354983653e-02
3.874137089121526969e+03 8.665155771817760755e-01 3.600178338993242216e-02
3.878011226210649966e+03 8.952787031198984335e-01 3.534931649582728069e-02
3.881889237436861549e+03 9.318438278275684716e-01 3.670764778008077378e-02
3.885771126674299921e+03 9.573645713081211372e-01 3.667964499848428567e-02
3.889656897800975457e+03 9.692523020810080991e-01 3.596858569798854627e-02
3.893546554698777527e+03 1.006141830192055497e+00 3.544243931381709650e-02
3.897440101253477678e+03 1.034522588199861648e+00 3.500391725268267584e-02
3.901337541354732366e+03 1.079184584035812078e+00 3.426418652792666969e-02
3.905238878896088409e+03 1.090636645062374788e+00 3.531573315272214242e-02
3.909144117774985716e+03 1.139112783563674292e+00 3.326733981981563198e-02
3.913053261892762293e+03 1.182944573514701281e+00 3.232617781920329308e-02
3.916966315154656058e+03 1.180543085547773208e+00 3.067757312637839004e-02
3.920883281469812118e+03 1.207297012563086858e+00 3.309951150034057960e-02
3.924804164751283224e+03 1.247475288626735290e+00 3.309640945996995126e-02
3.928728968916035683e+03 1.313917564206859456e+00 3.468484205540868504e-02
3.932657697884953450e+03 1.360390006212385039e+00 3.477421735449660878e-02
3.936590355582839493e+03 1.399699264254354869e+00 3.535187924562552958e-02
3.940526945938423523e+03 1.472978497717204016e+00 3.376167948687278098e-02
3.944467472884363360e+03 1.517091890603266657e+00 3.413190162223657398e-02
3.948411940357249023e+03 1.526796363380680699e+00 3.317815929160716770e-02
3.952360352297607733e+03 1.516741528601115219e+00 3.252528698998587847e-02
3.956312712649906643e+03 1.534896593032426981e+00 3.231368321505850155e-02
3.960269025362557841e+03 1.567139108953613746e+00 3.567271445079124581e-02
3.964229294387921527e+03 1.575597703296320873e+00 3.701801549531048841e-02
3.968193523682310570e+03 1.545850092486109606e+00 4.138456366077306742e-02
3.972161717205994591e+03 1.572176975339488525e+00 4.352990403123349616e-02
3.976133878923201792e+03 1.615353738284476703e+00 4.360659358530745433e-02
3.980110012802126221e+03 1.664405087142926343e+00 4.339851607330385413e-02
3.984090122814929600e+03 1.701614113334885436e+00 4.361571044983420659e-02
3.988074212937745870e+03 1.772512901251775297e+00 4.317162352062062919e-02
3.992062287150684824e+03 1.836832937544133904e+00 4.201422190137294593e-02
3.996054349437837118e+03 1.844883025141758282e+00 4.217134455996905673e-02
4.000050403787276082e+03 1.807591247409631396e+00 4.551596921874509483e-02
4.004050454191064546e+03 1.797438617239686787e+00 4.623779488428132051e-02
4.008054504645257111e+03 1.783693588978795486e+00 4.502111212036124382e-02
4.012062559149903791e+03 1.740433487217272202e+00 4.322041984658980818e-02
4.016074621709055009e+03 1.683616310587607412e+00 4.161618788137230740e-02
4.020090696330765240e+03 1.631448103817502604e+00 4.210441706883601143e-02
4.024110787027097558e+03 1.589865956523340840e+00 4.164217998264897053e-02
4.028134897814125907e+03 1.557663838348525509e+00 4.228868698698128037e-02
4.032163032711941469e+03 1.533938384900983554e+00 4.326720060207862872e-02
4.036195195744654484e+03 1.523142846588894317e+00 4.003868515806494055e-02
4.040231390940400615e+03 1.487281533093354424e+00 3.609486554227737259e-02
4.044271622331342314e+03 1.436202439177426626e+00 3.474555069369227728e-02
4.048315893953675186e+03 1.382424291548023376e+00 3.468329924129946729e-02
4.052364209847629809e+03 1.326458121845032867e+00 3.223391355178533563e-02
4.056416574057479011e+03 1.213968915745756938e+00 3.237354346800675603e-02
4.060472990631537868e+03 1.142349374217696889e+00 3.196608137374510467e-02
4.064533463622170530e+03 1.070039666569146508e+00 3.379799707117094043e-02
4.068597997085794304e+03 1.091291242407845363e+00 4.013011467328819748e-02
4.072666595082881486e+03 1.123028297351657656e+00 4.510544316450346147e-02
4.076739261677965715e+03 1.096729216810358842e+00 4.581317007638564809e-02
4.080816000939644709e+03 1.070884777573376301e+00 4.486867182951680133e-02
4.084896816940585722e+03 1.044814189845971297e+00 4.384675378435540921e-02
4.088981713757527814e+03 1.017932002837408367e+00 4.534229633643158119e-02
4.093070695471286854e+03 1.014719226010279307e+00 4.493953109784345340e-02
4.097163766166759160e+03 9.813503014261298896e-01 4.318543793214160709e-02
4.101260929932927866e+03 9.585234684072703182e-01 4.254567372843593570e-02
4.105362190862862008e+03 9.549735410662307800e-01 4.275601595509377628e-02
4.109467553053726078e+03 9.375460980535139655e-01 4.260798270527554887e-02
4.113577020606780934e+03 8.971047549446888869e-01 4.242810927290096429e-02
4.117690597627389252e+03 8.692608632877120156e-01 4.294768748527091895e-02
4.121808288225018259e+03 8.980350772962137906e-01 4.263180919553936910e-02
4.125930096513244280e+03 9.143003906276497839e-01 4.107778682028204176e-02
4.130056026609759101e+03 9.202359821607790646e-01 3.844873799308606149e-02
4.134186082636369974e+03 8.889139737434608168e-01 3.954061399223719048e-02
4.138320268719007800e+03 8.544514204425535109e-01 4.008350783697518793e-02
4.142458588987728035e+03 8.124371657702761373e-01 2.933371245052662779e-02
4.146601047576717065e+03 8.206745788695593014e-01 2.757860814679288092e-02
4.150747648624294925e+03 8.868148002537581398e-01 2.701975849760280407e-02
4.154898396272920763e+03 9.442581942233518877e-01 2.760659344032976442e-02
4.159053294669195566e+03 9.844863832421684169e-01 2.778983098711059960e-02
4.163212347963865795e+03 9.980502682664127434e-01 2.777327485840653393e-02
4.167375560311830668e+03 9.835500758741182459e-01 2.887565502689623184e-02
4.171542935872143971e+03 9.848314263009749769e-01 2.918499174088563103e-02
4.175714478808017702e+03 9.619290132302895646e-01 3.051823658514550217e-02
4.179890193286827525e+03 9.269535554972919700e-01 3.250160029077938523e-02
4.184070083480115500e+03 9.205194627409097885e-01 3.242880522528498316e-02
4.188254153563597356e+03 9.124221679253448070e-01 3.141073917145360134e-02
4.192442407717161586e+03 9.184482558461194435e-01 3.009281262025501752e-02
4.196634850124880359e+03 9.208192141320188373e-01 2.968588172270330769e-02
4.200831484975006788e+03 9.612369165304334162e-01 2.857583339684014942e-02
4.205032316459983122e+03 1.000946817172264636e+00 2.620031170345175214e-02
4.209237348776444378e+03 1.031197513605897065e+00 2.418712020653147193e-02
4.213446586125221984e+03 1.054781247263362642e+00 2.297559488877735923e-02
4.217660032711349231e+03 1.039396700138495166e+00 2.511922313171080848e-02
4.221877692744061278e+03 1.029213142949374493e+00 2.690628350404447242e-02
4.226099570436806971e+03 1.005339802988872266e+00 2.119517893068340042e-02
4.230325670007245208e+03 1.021312407245573706e+00 2.446493767429657254e-02
4.234555995677254032e+03 1.046939614431533272e+00 2.616723799450548088e-02
4.238790551672932452e+03 1.062756464105933496e+00 2.605127849078976016e-02
4.243029342224606808e+03 1.079589992000441478e+00 2.584763469480380951e-02
4.247272371566832589e+03 1.092100577480008994e+00 2.597792740639644909e-02
4.251519643938400804e+03 1.103745086353427496e+00 2.352390938576426338e-02
4.255771163582340705e+03 1.108709927935477735e+00 1.991825447144272843e-02
4.260026934745924336e+03 1.060012265719717073e+00 2.208851193590802980e-02
4.264286961680671993e+03 1.019232712334883217e+00 2.346716161554775193e-02
4.268551248642354039e+03 9.747684925538268041e-01 2.182331691730315243e-02
4.272819799890998183e+03 9.322083877399698348e-01 2.043814422732312744e-02
4.277092619690890388e+03 9.266343111087402828e-01 2.282410512007931533e-02
4.281369712310583054e+03 9.049595216769783512e-01 2.213099557451904051e-02
4.285651082022895025e+03 9.001462007020932798e-01 2.241722293066403943e-02
4.289936733104918858e+03 9.236237060475517291e-01 2.320502955611678658e-02
4.294226669838025373e+03 9.751019639001001771e-01 2.399093138176759329e-02
4.298520896507864563e+03 9.848607746662533247e-01 2.386305981286171093e-02
4.302819417404373780e+03 9.776180222205489434e-01 2.451736845522483471e-02
4.307122236821779552e+03 9.771144967105889201e-01 2.435671006068316352e-02
4.311429359058603040e+03 9.804495174124646661e-01 2.423750496897954937e-02
4.315740788417662770e+03 9.845688867669949440e-01 2.271780689054473876e-02
4.320056529206081905e+03 9.643214760565217425e-01 2.192767269004010366e-02
4.324376585735290064e+03 9.368163012321595318e-01 2.190921202912099811e-02
4.328700962321026054e+03 9.188814374365220639e-01 2.190160933410212687e-02
4.333029663283348782e+03 9.124806457892682410e-01 2.233692931456970551e-02
4.337362692946633615e+03 9.177503018842266824e-01 2.244422158942015882e-02
4.341700055639581478e+03 9.027731365624293014e-01 2.211996640349896473e-02
4.346041755695222491e+03 8.878152268185506291e-01 2.195964593002080328e-02
4.350387797450919606e+03 8.660356528975453605e-01 2.370886099507082609e-02
4.354738185248371337e+03 8.412216624621600136e-01 2.384208834754089970e-02
4.359092923433621763e+03 8.308860792273295992e-01 2.401888844987286331e-02
4.363452016357056891e+03 8.306617267495914891e-01 2.426143717851835663e-02
4.367815468373414660e+03 8.053636700191327824e-01 2.311541455678611801e-02
4.372183283841789489e+03 8.118294274826649559e-01 2.499008527732734727e-02
4.376555467125633186e+03 8.182152132328650573e-01 2.267373764889750107e-02
4.380932022592760404e+03 8.039726822765272951e-01 2.229160362758625044e-02
4.385312954615354101e+03 7.853680415034899331e-01 2.186652486349043023e-02
4.389698267569970994e+03 7.691001451125061283e-01 2.184928034697457278e-02
4.394087965837542470e+03 7.611708794359702823e-01 2.145511557273217795e-02
4.398482053803381859e+03 7.441990544791923234e-01 2.202158116116971140e-02
4.402880535857186260e+03 7.368794034813930249e-01 2.230899130783986495e-02
4.407283416393044718e+03 7.165906839604377909e-01 2.294262047837893406e-02
4.411690699809440048e+03 6.832531731091261440e-01 2.273064449346770891e-02
4.416102390509250654e+03 6.792918566408111536e-01 2.280190708642111999e-02
4.420518492899761441e+03 6.941406831685454915e-01 2.282808467722210674e-02
4.424939011392662906e+03 7.016049382286417835e-01 2.272484705102293528e-02
4.429363950404056595e+03 7.174733710919178886e-01 2.205445508881640967e-02
4.433793314354462382e+03 7.341695804485258714e-01 2.231991480921059409e-02
4.438227107668818462e+03 7.575099727700910224e-01 2.079995810376948293e-02
4.442665334776488635e+03 7.864956322358456209e-01 2.144745077856939977e-02
