# starting wavelength: 3493.450
# ending wavelength: 10152.000
# wav flux eflux
3.495143442410119405e+03 1.496469297340735860e+00 3.636907498200634414e-01
3.498638585852530468e+03 1.441839952350855381e+00 2.598202011256582344e-01
3.502137224438384237e+03 1.404592313811463988e+00 1.916324790274781809e-01
3.505639361662823831e+03 1.373518576639406685e+00 1.458692989753104796e-01
3.509145001024487556e+03 1.359897804576676084e+00 1.145236415814676889e-01
3.512654146025513455e+03 1.346084251464145787e+00 9.017619198925004576e-02
3.516166800171540217e+03 1.336211029803680672e+00 7.365994806928542749e-02
3.519682966971712631e+03 1.324436552677210832e+00 6.123491222327779454e-02
3.523202649938685681e+03 1.309990782352219441e+00 5.240659456212200945e-02
3.526725852588625457e+03 1.293022093117827342e+00 4.569484162296543611e-02
3.530252578441215064e+03 1.278361072065645754e+00 3.964224080240211917e-02
3.533782831019657806e+03 1.265601797316422195e+00 3.564001665006767683e-02
3.537316613850678550e+03 1.252705508403221923e+00 3.254015139149749047e-02
3.540853930464530094e+03 1.233796611437661284e+00 3.050831797595782505e-02
3.544394784394995895e+03 1.218249852435160818e+00 2.859810252222487470e-02
3.547939179179392340e+03 1.205439340742372911e+00 2.757022444060925476e-02
3.551487118358572843e+03 1.192871063120814146e+00 2.630173096590554538e-02
3.555038605476932389e+03 1.179324603294212181e+00 2.532266971849669868e-02
3.558593644082410719e+03 1.168258056220394137e+00 2.441883095498463205e-02
3.562152237726494150e+03 1.160587382321137673e+00 2.443098430061754062e-02
3.565714389964221937e+03 1.143290812545562529e+00 2.321602506125431883e-02
3.569280104354187188e+03 1.125723210522499684e+00 2.032954184092833003e-02
3.572849384458542772e+03 1.120586460172771748e+00 1.994732178384359469e-02
3.576422233843002232e+03 1.118324459372150859e+00 1.906619312844545430e-02
3.579998656076846601e+03 1.122883398221462770e+00 1.677174643005797244e-02
3.583578654732924406e+03 1.123293235247390331e+00 1.654697052030426260e-02
3.587162233387658489e+03 1.128644172909393673e+00 1.705372124798549063e-02
3.590749395621047370e+03 1.127245276972970389e+00 1.485011012920019191e-02
3.594340145016669794e+03 1.130212716155778452e+00 1.435992393658046089e-02
3.597934485161687462e+03 1.146793029486687265e+00 1.485235987684382225e-02
3.601532419646850485e+03 1.152636187108976307e+00 1.434696421903256663e-02
3.605133952066498296e+03 1.161999543751710329e+00 1.414527237764839906e-02
3.608739086018566013e+03 1.172518664578783953e+00 1.330741035869858341e-02
3.612347825104585809e+03 1.177647504259249134e+00 1.360417408160700600e-02
3.615960172929691907e+03 1.178470669085334377e+00 1.361781082573119625e-02
3.619576133102622407e+03 1.176278442656946588e+00 1.362568573209406962e-02
3.623195709235726554e+03 1.175927250987590211e+00 1.304428396786052463e-02
3.626818904944963379e+03 1.169851192008524388e+00 1.335605097605170946e-02
3.630445723849909427e+03 1.157082981620340956e+00 1.308300700746681602e-02
3.634076169573760581e+03 1.142858003356844954e+00 1.336892773958185850e-02
3.637710245743335690e+03 1.130486108021532932e+00 1.265056420901294366e-02
3.641347955989080219e+03 1.109671736620817306e+00 1.255950224055568838e-02
3.644989303945070333e+03 1.084112300551163699e+00 1.274107339746299687e-02
3.648634293249016537e+03 1.056706689124534471e+00 1.307746640995958998e-02
3.652282927542266862e+03 1.023018855007910455e+00 1.249192844203784146e-02
3.655935210469810499e+03 9.875099802097674351e-01 1.223878851970713368e-02
3.659591145680281443e+03 9.553528924696259583e-01 1.224501327713213919e-02
3.663250736825963031e+03 9.215931620470156904e-01 1.205868691892704805e-02
3.666913987562790226e+03 8.821192050106679838e-01 1.195182619872480617e-02
3.670580901550354156e+03 8.380568725446526646e-01 1.164316638364334272e-02
3.674251482451905758e+03 7.980218801421876673e-01 1.166656406041729176e-02
3.677925733934358959e+03 7.590023075639166228e-01 1.179802071060810469e-02
3.681603659668294313e+03 7.177285802991704156e-01 1.177366087312549554e-02
3.685285263327964003e+03 6.767548436149471991e-01 1.161860563822369498e-02
3.688970548591293209e+03 6.389443798774832040e-01 1.096494171220045548e-02
3.692659519139885560e+03 6.032748642475224132e-01 1.119678307999915669e-02
3.696352178659026777e+03 5.621860290405782390e-01 1.268333565687886424e-02
3.700048530837686940e+03 5.170345530605712225e-01 1.050636936613935299e-02
3.703748579368525952e+03 4.848809679215111412e-01 1.032734702107203535e-02
3.707452327947895355e+03 4.536623815150228056e-01 9.201030808496738975e-03
3.711159780275844696e+03 4.320188009273369656e-01 9.263965712391387941e-03
3.714870940056121526e+03 4.120664771406953308e-01 9.271609540440128513e-03
3.718585810996179134e+03 4.000918717989354612e-01 9.619664772530987090e-03
3.722304396807176545e+03 3.938919779539112320e-01 9.710683386278453136e-03
3.726026701203984885e+03 3.885865852086141103e-01 9.239160346703419180e-03
3.729752727905190113e+03 3.944987097367776419e-01 1.031849294395207825e-02
3.733482480633096657e+03 4.061692753817509605e-01 1.029931699873966322e-02
3.737215963113731050e+03 4.164658387927296368e-01 1.020902829939209465e-02
3.740953179076846027e+03 4.342995623810549377e-01 9.372035602169460911e-03
3.744694132255923705e+03 4.472442581942045470e-01 9.026832087345337818e-03
3.748438826388181042e+03 4.646936558233512038e-01 7.994375825017765655e-03
3.752187265214570289e+03 4.812371450486988556e-01 7.914881754157577012e-03
3.755939452479786269e+03 4.983099257794788017e-01 7.830216127084158387e-03
3.759695391932267285e+03 5.158353839077181036e-01 7.828324771947748131e-03
3.763455087324201031e+03 5.349415658333800394e-01 8.131426728301985318e-03
3.767218542411526414e+03 5.473624484091468290e-01 8.730896025778554781e-03
3.770985760953939007e+03 5.623195810989403132e-01 8.399674942216472581e-03
3.774756746714894234e+03 5.765155983476246693e-01 7.581226569032326404e-03
3.778531503461610555e+03 5.985659147992465901e-01 7.018374705460518961e-03
3.782310034965073100e+03 6.250523598424335692e-01 7.043387911931460812e-03
3.786092345000039586e+03 6.521356323630820295e-01 6.434519673104947303e-03
3.789878437345040766e+03 6.829464319333315991e-01 6.682636190010853017e-03
3.793668315782387253e+03 7.208396151818780018e-01 6.468338139477433635e-03
3.797461984098170888e+03 7.589696328328436881e-01 6.337788606745515391e-03
3.801259446082270188e+03 8.011722137034735791e-01 6.313138256522149265e-03
3.805060705528353537e+03 8.441118978244613880e-01 6.246255404286807193e-03
3.808865766233883278e+03 8.890929212966731665e-01 5.587519266669326370e-03
3.812674632000118436e+03 9.339671245663375698e-01 5.676551845333129183e-03
3.816487306632119726e+03 9.792323451600963846e-01 5.853204312562772411e-03
3.820303793938753188e+03 1.025847452546165606e+00 5.630054482599946772e-03
3.824124097732693372e+03 1.072181607392324265e+00 5.499817056545215285e-03
3.827948221830427428e+03 1.117106999528270972e+00 5.291582349719936573e-03
3.831776170052258749e+03 1.159430476998243975e+00 5.362617322497867899e-03
3.835607946222312421e+03 1.199793485082149225e+00 4.834142535026722184e-03
3.839443554168536139e+03 1.238345449043435798e+00 4.731918852867532561e-03
3.843282997722705659e+03 1.277825946927131362e+00 4.898434641551719856e-03
3.847126280720429804e+03 1.314965535388028961e+00 4.971161755894096430e-03
3.850973407001151372e+03 1.350422622955063323e+00 5.224731240143745854e-03
3.854824380408153957e+03 1.383694302622481498e+00 5.258497057619600928e-03
3.858679204788563311e+03 1.419034118846068449e+00 5.142154359404577622e-03
3.862537883993353262e+03 1.456931952862622781e+00 5.553192096712050024e-03
3.866400421877347981e+03 1.493930006671738919e+00 5.262848361533422649e-03
3.870266822299226533e+03 1.527623884013532107e+00 5.326768956343982259e-03
3.874137089121526969e+03 1.559513777220989938e+00 5.441654589108969702e-03
3.878011226210649966e+03 1.590782028092024403e+00 5.467341220649277189e-03
3.881889237436861549e+03 1.624926846393270452e+00 8.273764049299520487e-03
3.885771126674299921e+03 1.653297987819382531e+00 9.289732411799617173e-03
3.889656897800975457e+03 1.679258122744595960e+00 8.350404254781064808e-03
3.893546554698777527e+03 1.700961030046503897e+00 7.717906611342513143e-03
3.897440101253477678e+03 1.718535007308249263e+00 7.670288035544658295e-03
3.901337541354732366e+03 1.729817421386084408e+00 9.405475021574866840e-03
3.905238878896088409e+03 1.744163266385629463e+00 9.828657805274828782e-03
3.909144117774985716e+03 1.751203151538630376e+00 1.198674764741177769e-02
3.913053261892762293e+03 1.757980387468188965e+00 1.262205749955637966e-02
3.916966315154656058e+03 1.767538011829874467e+00 1.165048071926197415e-02
3.920883281469812118e+03 1.781976238867872819e+00 1.100145212853096896e-02
3.924804164751283224e+03 1.801847884508569919e+00 9.813738334461669099e-03
3.928728968916035683e+03 1.831292995234613086e+00 1.099277609808455534e-02
3.932657697884953450e+03 1.866372625780736039e+00 1.345611263922077798e-02
3.936590355582839493e+03 1.902518487735131991e+00 1.390595347830190891e-02
3.940526945938423523e+03 1.939415384967105860e+00 1.359641996603888105e-02
3.944467472884363360e+03 1.979338735098192137e+00 1.301169327961608502e-02
3.948411940357249023e+03 2.020558402754190741e+00 1.236668488294503238e-02
3.952360352297607733e+03 2.054930440930058388e+00 1.131775333198424549e-02
3.956312712649906643e+03 2.079585225066604703e+00 1.091204187540721106e-02
3.960269025362557841e+03 2.098432210940593290e+00 1.054750481971971666e-02
3.964229294387921527e+03 2.110549546243944974e+00 1.037398077684862155e-02
3.968193523682310570e+03 2.108572992841480254e+00 1.004132233456735482e-02
3.972161717205994591e+03 2.096412852280314265e+00 7.764061138917174691e-03
3.976133878923201792e+03 2.082792235440080297e+00 7.760346063189284098e-03
3.980110012802126221e+03 2.056617630962158660e+00 7.865512191548348214e-03
3.984090122814929600e+03 2.032914599863914429e+00 7.859063336069942174e-03
3.988074212937745870e+03 2.003959919360056130e+00 7.364239573346162936e-03
3.992062287150684824e+03 1.973052204666289944e+00 6.974211755282524149e-03
3.996054349437837118e+03 1.942549608883380907e+00 6.933211280516507480e-03
4.000050403787276082e+03 1.912405706050006149e+00 6.540427606286964776e-03
4.004050454191064546e+03 1.880505348975886504e+00 6.561005647620796362e-03
4.008054504645257111e+03 1.849521758167748997e+00 6.907912962345845800e-03
4.012062559149903791e+03 1.815785058025608079e+00 6.906125699686933329e-03
4.016074621709055009e+03 1.782350107320865629e+00 7.264080481112466722e-03
4.020090696330765240e+03 1.746040927060730441e+00 7.160455576704498858e-03
4.024110787027097558e+03 1.713676568193847727e+00 7.252613906233619165e-03
4.028134897814125907e+03 1.684152334302314369e+00 6.717173065688396456e-03
4.032163032711941469e+03 1.654748723431503921e+00 6.457743378044535944e-03
4.036195195744654484e+03 1.621714950939626032e+00 6.032877799368476651e-03
4.040231390940400615e+03 1.591019811182613486e+00 5.996906421698298441e-03
4.044271622331342314e+03 1.564685968334120103e+00 5.696772433984506438e-03
4.048315893953675186e+03 1.536015073025925215e+00 5.677002026651278843e-03
4.052364209847629809e+03 1.503516404248336213e+00 5.928977882454714542e-03
4.056416574057479011e+03 1.477397021666167376e+00 6.246368639390688371e-03
4.060472990631537868e+03 1.455297548242798333e+00 6.020017507495741514e-03
4.064533463622170530e+03 1.434446771100239770e+00 6.030176779937720249e-03
4.068597997085794304e+03 1.414498805149641214e+00 6.018293923618196761e-03
4.072666595082881486e+03 1.392878914228252052e+00 5.271514927711783843e-03
4.076739261677965715e+03 1.376110510967699652e+00 5.155003729334880699e-03
4.080816000939644709e+03 1.360380294167083282e+00 5.302937943898563232e-03
4.084896816940585722e+03 1.344644693621653619e+00 5.202866916757372708e-03
4.088981713757527814e+03 1.325982740235113200e+00 5.333440918565537925e-03
4.093070695471286854e+03 1.308373335032043672e+00 5.301800247898611970e-03
4.097163766166759160e+03 1.293400851592575451e+00 5.000695127431961130e-03
4.101260929932927866e+03 1.278707876274017829e+00 4.589559969988115870e-03
4.105362190862862008e+03 1.259779431516242276e+00 4.650655504536779609e-03
4.109467553053726078e+03 1.241995503155861158e+00 5.015068560302228355e-03
4.113577020606780934e+03 1.221307359546152105e+00 4.979858150985273096e-03
4.117690597627389252e+03 1.198636827120818538e+00 5.282423264643908850e-03
4.121808288225018259e+03 1.176882122435906508e+00 5.300922617505547142e-03
4.125930096513244280e+03 1.157424362005436080e+00 5.290733636440436531e-03
4.130056026609759101e+03 1.140132875413832902e+00 5.031525723141110594e-03
4.134186082636369974e+03 1.123706526724421950e+00 5.047312174065161569e-03
4.138320268719007800e+03 1.104726783038824767e+00 3.843841829484062785e-03
4.142458588987728035e+03 1.091969888226251850e+00 3.845631090642406737e-03
4.146601047576717065e+03 1.084693615887629914e+00 4.049485998683640363e-03
4.150747648624294925e+03 1.082508960339745085e+00 5.312788087324974221e-03
4.154898396272920763e+03 1.081362192165350455e+00 5.244042339289787212e-03
4.159053294669195566e+03 1.083095191873983731e+00 5.359388264895559133e-03
4.163212347963865795e+03 1.087867851384554774e+00 4.972788549854945117e-03
4.167375560311830668e+03 1.094241229104668367e+00 5.178107459956346817e-03
4.171542935872143971e+03 1.101427490891378147e+00 4.888565697886330420e-03
4.175714478808017702e+03 1.110609306405696106e+00 4.752507224921774347e-03
4.179890193286827525e+03 1.121778833600947101e+00 4.696763339357573792e-03
4.184070083480115500e+03 1.135011070824933466e+00 4.820443367364132814e-03
4.188254153563597356e+03 1.149997407003737537e+00 4.470144023764154387e-03
4.192442407717161586e+03 1.164376918034438102e+00 4.479581318533978548e-03
4.196634850124880359e+03 1.176415460705111826e+00 4.403111351756023098e-03
4.200831484975006788e+03 1.189873435659603018e+00 4.397500980403145319e-03
4.205032316459983122e+03 1.202771199028617399e+00 4.191076718113224443e-03
4.209237348776444378e+03 1.213413946115556863e+00 4.105154943296387797e-03
4.213446586125221984e+03 1.222176567041681761e+00 4.035555459825767438e-03
4.217660032711349231e+03 1.224971214367814420e+00 3.828423861332665417e-03
4.221877692744061278e+03 1.227907925158553626e+00 3.201149073591260611e-03
4.226099570436806971e+03 1.232732507540216460e+00 3.032869982396994152e-03
4.230325670007245208e+03 1.237858802186420304e+00 3.033601260453201026e-03
4.234555995677254032e+03 1.245057918352849402e+00 2.570198098774208531e-03
4.238790551672932452e+03 1.250926337822025891e+00 2.492679617109355619e-03
4.243029342224606808e+03 1.257193442115844384e+00 2.211803306649689615e-03
4.247272371566832589e+03 1.264079410280973148e+00 2.153691993549424269e-03
4.251519643938400804e+03 1.274870660119327814e+00 3.576407447238934018e-03
4.255771163582340705e+03 1.282397488026749244e+00 3.518636990446429632e-03
4.260026934745924336e+03 1.288295822781830413e+00 3.324307870874477870e-03
4.264286961680671993e+03 1.292323815963907663e+00 3.574633519331424890e-03
4.268551248642354039e+03 1.295329079865320532e+00 3.579095298946806565e-03
4.272819799890998183e+03 1.297790799117817695e+00 3.799129221904732050e-03
4.277092619690890388e+03 1.296702877850783642e+00 3.973583395860061027e-03
4.281369712310583054e+03 1.292071513404420502e+00 3.980459159221414259e-03
4.285651082022895025e+03 1.284419999779818911e+00 4.151732365960623776e-03
4.289936733104918858e+03 1.275037231159898976e+00 4.370854483178388331e-03
4.294226669838025373e+03 1.265423956629991853e+00 4.375033961646631643e-03
4.298520896507864563e+03 1.254083615468457369e+00 4.258501745046070451e-03
4.302819417404373780e+03 1.243623549486605473e+00 4.658260951558122233e-03
4.307122236821779552e+03 1.228882523334605237e+00 5.121689616189390760e-03
4.311429359058603040e+03 1.214552864260800114e+00 5.284216533053603428e-03
4.315740788417662770e+03 1.202295832443801338e+00 5.689523682944449406e-03
4.320056529206081905e+03 1.187779077052614429e+00 5.730788991545898887e-03
4.324376585735290064e+03 1.173260079614989904e+00 5.962826744193959992e-03
4.328700962321026054e+03 1.159927689379271820e+00 5.793317148207579974e-03
4.333029663283348782e+03 1.150173097720898596e+00 6.092722662068475632e-03
4.337362692946633615e+03 1.143918023733182077e+00 5.764874261668940549e-03
4.341700055639581478e+03 1.134592911058924791e+00 6.215616025777979774e-03
4.346041755695222491e+03 1.122358250711671168e+00 6.179812201978545673e-03
4.350387797450919606e+03 1.108779847952428899e+00 6.532512373702860191e-03
4.354738185248371337e+03 1.097770437952405143e+00 6.715090487137110112e-03
4.359092923433621763e+03 1.089533661748712356e+00 6.765770179624949407e-03
4.363452016357056891e+03 1.082242711459814100e+00 6.697752336072219925e-03
4.367815468373414660e+03 1.076977545655917190e+00 6.333004890967873848e-03
4.372183283841789489e+03 1.073427043356708577e+00 5.961492810887689987e-03
4.376555467125633186e+03 1.078125650436766669e+00 5.948461708043744668e-03
4.380932022592760404e+03 1.089537524008040492e+00 6.313599249209182404e-03
4.385312954615354101e+03 1.105269939517383060e+00 6.027031896559830251e-03
4.389698267569970994e+03 1.121771107416680291e+00 6.057756158632224622e-03
4.394087965837542470e+03 1.144683174136511994e+00 5.904522507694246608e-03
4.398482053803381859e+03 1.168239117004705285e+00 3.362002425154249699e-03
4.402880535857186260e+03 1.187600962945018157e+00 3.375783880048987932e-03
4.407283416393044718e+03 1.199315619932462162e+00 4.851878870536628467e-03
4.411690699809440048e+03 1.209624558537443439e+00 5.813631527486625220e-03
4.416102390509250654e+03 1.222273312967317116e+00 5.794564287802343033e-03
4.420518492899761441e+03 1.237903786240400761e+00 5.840650984886478977e-03
4.424939011392662906e+03 1.253648616192900800e+00 5.835892234069866430e-03
4.429363950404056595e+03 1.268718542827587559e+00 5.857515950435190390e-03
4.433793314354462382e+03 1.284113412503705476e+00 5.417268111203336727e-03
4.438227107668818462e+03 1.305408483331671476e+00 5.921958787494658628e-03
4.442665334776488635e+03 1.329401014929658453e+00 6.180389034482984718e-03
4.447108000111265937e+03 1.354028921894530058e+00 5.858474386907135470e-03
4.451555108111379013e+03 1.377953803523457754e+00 5.523224344882564536e-03
4.456006663219492111e+03 1.399454192585033452e+00 5.531054378724906129e-03
4.460462669882713271e+03 1.421840519928220692e+00 5.256245121861485847e-03
4.464923132552597053e+03 1.441142690137757532e+00 5.461801686150957735e-03
4.469388055685150903e+03 1.457901922102528891e+00 5.169810599731167883e-03
4.473857443740837880e+03 1.473484687550067340e+00 4.716551572135759159e-03
4.478331301184580298e+03 1.490335385878019059e+00 4.627284790758036913e-03
4.482809632485766087e+03 1.508370411609072148e+00 4.576177911176730270e-03
4.487292442118253348e+03 1.530910680655501732e+00 4.486647486560022165e-03
4.491779734560373072e+03 1.548205591303680739e+00 4.055558545291864520e-03
4.496271514294934605e+03 1.564844266273856865e+00 3.910501301135590677e-03
4.500767785809231100e+03 1.584181904027664567e+00 3.900948726369998440e-03
4.505268553595042249e+03 1.603862767755043661e+00 3.062733651199241874e-03
4.509773822148638828e+03 1.621793840749466753e+00 2.994977776419900824e-03
4.514283595970789065e+03 1.636263652019176007e+00 2.751057858816535577e-03
4.518797879566761367e+03 1.649283927734476185e+00 2.321367261013583538e-03
4.523316677446328868e+03 1.662708224320060824e+00 2.245680973986856344e-03
4.527839994123776705e+03 1.674665162941416208e+00 2.242724511718521482e-03
4.532367834117902021e+03 1.684704986256620796e+00 2.188605479749107779e-03
4.536900201952022144e+03 1.694463076852772199e+00 2.703925146193831165e-03
4.541437102153975502e+03 1.700669870533236594e+00 2.863242976355918207e-03
4.545978539256130716e+03 1.702836698716139630e+00 2.631396984097684674e-03
4.550524517795388419e+03 1.700176731430239174e+00 2.773797816889436458e-03
