# starting wavelength: 3470.710
# ending wavelength: 7404.980
# wav flux eflux
3.470775009469947236e+03 1.271496545574607173e-01 4.989549432480968466e-02
3.474245784479418489e+03 1.537354204396354229e-01 3.652289498760936948e-02
3.477720030263898934e+03 1.686688342588348322e-01 2.739465316953401328e-02
3.481197750294164052e+03 1.740107371332485775e-01 2.157721209281951436e-02
3.484678948044459503e+03 1.705434731577068208e-01 1.734511174724672269e-02
3.488163626992504760e+03 1.639723502796639476e-01 1.385045625597030455e-02
3.491651790619498570e+03 1.556852712233416647e-01 1.107921274211765006e-02
3.495143442410119405e+03 1.461597884395260949e-01 9.000373231601061993e-03
3.498638585852530468e+03 1.365658292467026858e-01 7.828898356388055285e-03
3.502137224438384237e+03 1.277554717920290628e-01 6.717566297266225860e-03
3.505639361662823831e+03 1.215215725979346267e-01 6.416026170429325187e-03
3.509145001024487556e+03 1.155547200426655652e-01 5.776873887208448279e-03
3.512654146025513455e+03 1.112804263380398895e-01 5.327577613262142464e-03
3.516166800171540217e+03 1.072021785477156042e-01 4.956933875635676987e-03
3.519682966971712631e+03 1.042533619735568490e-01 4.650924252120408608e-03
3.523202649938685681e+03 1.017418040795299294e-01 4.406348230647060514e-03
3.526725852588625457e+03 1.005289657374559414e-01 4.227896650245740150e-03
3.530252578441215064e+03 1.004699751844640443e-01 4.144844436185730722e-03
3.533782831019657806e+03 1.012333156803452983e-01 4.074165834634522337e-03
3.537316613850678550e+03 1.044654278749304055e-01 4.059304586332121434e-03
3.540853930464530094e+03 1.094751962856952560e-01 4.056340192255675214e-03
3.544394784394995895e+03 1.180605151153101690e-01 3.909621342832179589e-03
3.547939179179392340e+03 1.284570693132709718e-01 3.751716498278454513e-03
3.551487118358572843e+03 1.363416183322617714e-01 3.756808243795987240e-03
3.555038605476932389e+03 1.439072128812732276e-01 3.834442333652922537e-03
3.558593644082410719e+03 1.522635552827546757e-01 3.972912172208781408e-03
3.562152237726494150e+03 1.599652102589239067e-01 4.120988643384224277e-03
3.565714389964221937e+03 1.652977724469510967e-01 4.216625478054681665e-03
3.569280104354187188e+03 1.694749235852231750e-01 4.202220186507835652e-03
3.572849384458542772e+03 1.741873077074001797e-01 4.155992865757766538e-03
3.576422233843002232e+03 1.765493397990883229e-01 4.119623011360814407e-03
3.579998656076846601e+03 1.784395024211213043e-01 4.103082712100134151e-03
3.583578654732924406e+03 1.795796049264971328e-01 4.101519472941941337e-03
3.587162233387658489e+03 1.789595616592470073e-01 4.057905247927919186e-03
3.590749395621047370e+03 1.764679717070299636e-01 4.094405673655188670e-03
3.594340145016669794e+03 1.717926029624934348e-01 4.413869961810514865e-03
3.597934485161687462e+03 1.676998992709824998e-01 4.473064262123205639e-03
3.601532419646850485e+03 1.605727496652434305e-01 4.622127264544399587e-03
3.605133952066498296e+03 1.538659608415589297e-01 4.407137118767839520e-03
3.608739086018566013e+03 1.497897093908735211e-01 4.365979752930636108e-03
3.612347825104585809e+03 1.454386711994767600e-01 4.020655097535619053e-03
3.615960172929691907e+03 1.415737595141641769e-01 3.636172771488854153e-03
3.619576133102622407e+03 1.397878096509690138e-01 3.450278423749337468e-03
3.623195709235726554e+03 1.417553813953799924e-01 3.616621595291127575e-03
3.626818904944963379e+03 1.475928902613590221e-01 4.127091041206230534e-03
3.630445723849909427e+03 1.547598129675275824e-01 4.080762852752222933e-03
3.634076169573760581e+03 1.620588699754851592e-01 3.857485297181346712e-03
3.637710245743335690e+03 1.686163923620700444e-01 3.755352944492024950e-03
3.641347955989080219e+03 1.775580088800968737e-01 3.559858172732153180e-03
3.644989303945070333e+03 1.828900997125810501e-01 3.371988827793460323e-03
3.648634293249016537e+03 1.855666140236963968e-01 3.347112534428538060e-03
3.652282927542266862e+03 1.840517844837504524e-01 3.551452233470391538e-03
3.655935210469810499e+03 1.825260366746043195e-01 3.968503019560870246e-03
3.659591145680281443e+03 1.811327144254540333e-01 4.244610162380313412e-03
3.663250736825963031e+03 1.802321711841471108e-01 4.337758215494307880e-03
3.666913987562790226e+03 1.776386204393916035e-01 4.417635304647013830e-03
3.670580901550354156e+03 1.771975410109341564e-01 4.248471466553919822e-03
3.674251482451905758e+03 1.756153598868984422e-01 4.166209633310845317e-03
3.677925733934358959e+03 1.772437904116806184e-01 4.067787222500738979e-03
3.681603659668294313e+03 1.787373220132298102e-01 4.083024002098754532e-03
3.685285263327964003e+03 1.831578540883838091e-01 4.587788523264087204e-03
3.688970548591293209e+03 1.873709490593538363e-01 4.940348380418961745e-03
3.692659519139885560e+03 1.914274913342857987e-01 5.166975788366592361e-03
3.696352178659026777e+03 1.961201241731487799e-01 4.836571771550298056e-03
3.700048530837686940e+03 1.996977719245895400e-01 4.270763580484219189e-03
3.703748579368525952e+03 1.975978226976543017e-01 4.179020628039928527e-03
3.707452327947895355e+03 1.935776458179194748e-01 3.997382879330694909e-03
3.711159780275844696e+03 1.844844972397826632e-01 4.244979767426322430e-03
3.714870940056121526e+03 1.742929268316860125e-01 4.405515683452904119e-03
3.718585810996179134e+03 1.610817175225334186e-01 4.627021630388262682e-03
3.722304396807176545e+03 1.435189366490072782e-01 4.179558685466423090e-03
3.726026701203984885e+03 1.251126348606644567e-01 3.904117098648282169e-03
3.729752727905190113e+03 1.072692340993633420e-01 3.510412047252829335e-03
3.733482480633096657e+03 9.080497163534570482e-02 3.292448458472910146e-03
3.737215963113731050e+03 7.567022310261203866e-02 2.998946859362868356e-03
3.740953179076846027e+03 6.476356170523578371e-02 3.240207465427758990e-03
3.744694132255923705e+03 5.655991454500628596e-02 2.980059495899174769e-03
3.748438826388181042e+03 4.990671660522619929e-02 2.908591084270418636e-03
3.752187265214570289e+03 4.468262888386937554e-02 2.835770836043562549e-03
3.755939452479786269e+03 3.940695122549370266e-02 2.761798642705975883e-03
3.759695391932267285e+03 3.590762578512143866e-02 2.732929267033122438e-03
3.763455087324201031e+03 3.319063406240684022e-02 2.761508287995991396e-03
3.767218542411526414e+03 3.115219249813344984e-02 2.733481114509778674e-03
3.770985760953939007e+03 2.813138787079554060e-02 2.401055092067275708e-03
3.774756746714894234e+03 2.648638663991886161e-02 2.307066779948045362e-03
3.778531503461610555e+03 2.513754110911324557e-02 2.258614024179039347e-03
3.782310034965073100e+03 2.478405942539017165e-02 2.216608094530882807e-03
3.786092345000039586e+03 2.517739934896980405e-02 2.156430257656294716e-03
3.789878437345040766e+03 2.572493406873399557e-02 2.084123719584502887e-03
3.793668315782387253e+03 2.707443418404704288e-02 2.013692352368307795e-03
3.797461984098170888e+03 2.682099413077142225e-02 2.001251927701036548e-03
3.801259446082270188e+03 2.629850081688463528e-02 2.131568046589159098e-03
3.805060705528353537e+03 2.724924263775383576e-02 2.315270190895337647e-03
3.808865766233883278e+03 3.073836659280783368e-02 2.359474367493977383e-03
3.812674632000118436e+03 3.355401237008739240e-02 2.355929100440523182e-03
3.816487306632119726e+03 3.753127476852806399e-02 2.386635843761847082e-03
3.820303793938753188e+03 4.267163208470481361e-02 2.508907012007480404e-03
3.824124097732693372e+03 4.732901375877812677e-02 2.544170498816132608e-03
3.827948221830427428e+03 5.463876628671254787e-02 2.499772346651980490e-03
3.831776170052258749e+03 6.166654879046468141e-02 2.458299442452909541e-03
3.835607946222312421e+03 6.897279633729032355e-02 2.376792448687391028e-03
3.839443554168536139e+03 7.619275941653998185e-02 2.426164173347652390e-03
3.843282997722705659e+03 8.095535530012948344e-02 2.553421911605172154e-03
3.847126280720429804e+03 8.633265283774194110e-02 2.579116920312599787e-03
3.850973407001151372e+03 9.126293407191565787e-02 2.586258601438583098e-03
3.854824380408153957e+03 9.693504016503309839e-02 2.663358965009030369e-03
3.858679204788563311e+03 1.035696587596561663e-01 2.821494797051169769e-03
3.862537883993353262e+03 1.128060066473927092e-01 3.055291388091057464e-03
3.866400421877347981e+03 1.270330964365731230e-01 3.006947907189699062e-03
3.870266822299226533e+03 1.448537772315249550e-01 2.984651370241298181e-03
3.874137089121526969e+03 1.657970745856022221e-01 2.948049715523684468e-03
3.878011226210649966e+03 1.914052378846959335e-01 3.217971613949499338e-03
3.881889237436861549e+03 2.174320570009406206e-01 3.613376922807277816e-03
3.885771126674299921e+03 2.442041248549126353e-01 3.862550232928011265e-03
3.889656897800975457e+03 2.714940882995043880e-01 3.408384365635867483e-03
3.893546554698777527e+03 2.918749901381358369e-01 3.158033236336440196e-03
3.897440101253477678e+03 3.115755384795038108e-01 2.930832490728038468e-03
3.901337541354732366e+03 3.206708490103367115e-01 2.931231592511421725e-03
3.905238878896088409e+03 3.232457689900998798e-01 3.206540577852610291e-03
3.909144117774985716e+03 3.192274964261948567e-01 3.944946907194751134e-03
3.913053261892762293e+03 3.110843747825052796e-01 4.327723150477967226e-03
3.916966315154656058e+03 3.046751695387655556e-01 4.138019651636142340e-03
3.920883281469812118e+03 3.014302405757732783e-01 3.714740440547190537e-03
3.924804164751283224e+03 3.027405719081461832e-01 3.569897617918320505e-03
3.928728968916035683e+03 3.069954159962282048e-01 4.127028549684843249e-03
3.932657697884953450e+03 3.226776003079503408e-01 4.434980843197472607e-03
3.936590355582839493e+03 3.448014626127332560e-01 4.828248248432286290e-03
3.940526945938423523e+03 3.736926651572652913e-01 4.963807064876086042e-03
3.944467472884363360e+03 4.048224012912300385e-01 4.944776936490711920e-03
3.948411940357249023e+03 4.353458516295531378e-01 4.760577375422297627e-03
3.952360352297607733e+03 4.689764526922000076e-01 4.738545962154627929e-03
3.956312712649906643e+03 4.986856568454089977e-01 4.536684019900969790e-03
3.960269025362557841e+03 5.243835393745492901e-01 4.491072871767592609e-03
3.964229294387921527e+03 5.431679028663569664e-01 4.583781619564422649e-03
3.968193523682310570e+03 5.565472603392550566e-01 4.438284819365840607e-03
3.972161717205994591e+03 5.667480432099719634e-01 4.829211092830095094e-03
3.976133878923201792e+03 5.755660005594085415e-01 5.174917270971834612e-03
3.980110012802126221e+03 5.840260249261659542e-01 5.191076026998035949e-03
3.984090122814929600e+03 5.924278961336756355e-01 4.863927622443044683e-03
3.988074212937745870e+03 6.018394774956467019e-01 4.789372090388553486e-03
3.992062287150684824e+03 6.143360467623205645e-01 4.832510859887145793e-03
3.996054349437837118e+03 6.284804815532594180e-01 4.531372530234479244e-03
4.000050403787276082e+03 6.421046501503683279e-01 4.672581376216682243e-03
4.004050454191064546e+03 6.494106112912720885e-01 4.647481113622903802e-03
4.008054504645257111e+03 6.597902895325108430e-01 4.027453020116289126e-03
4.012062559149903791e+03 6.655303698400776291e-01 3.665036820916825391e-03
4.016074621709055009e+03 6.658416298481464324e-01 3.680130639468418528e-03
4.020090696330765240e+03 6.611948057445196092e-01 4.061785496669018461e-03
4.024110787027097558e+03 6.522643292068098786e-01 3.957897517618024982e-03
4.028134897814125907e+03 6.445933713691738287e-01 3.795750810220310193e-03
4.032163032711941469e+03 6.379420423754226244e-01 3.437684326565721392e-03
4.036195195744654484e+03 6.337085574151088974e-01 3.385329563896219071e-03
4.040231390940400615e+03 6.315652919627410267e-01 3.503044227328110626e-03
4.044271622331342314e+03 6.337524308054168776e-01 3.333345927114864191e-03
4.048315893953675186e+03 6.341820365014327887e-01 3.241944028255196002e-03
4.052364209847629809e+03 6.362585802910445398e-01 3.206502842941941905e-03
4.056416574057479011e+03 6.408500707550899289e-01 2.853336033907729642e-03
4.060472990631537868e+03 6.455137017555075962e-01 2.891320648209855324e-03
4.064533463622170530e+03 6.495204801110816550e-01 2.835653731403381048e-03
4.068597997085794304e+03 6.520372546827413185e-01 2.796337932358971580e-03
4.072666595082881486e+03 6.508039742485314250e-01 2.817062956529177865e-03
4.076739261677965715e+03 6.492119053178242449e-01 3.104539248596604583e-03
4.080816000939644709e+03 6.411575504284202642e-01 3.236287861350986214e-03
4.084896816940585722e+03 6.310111415457569928e-01 3.628431563353080435e-03
4.088981713757527814e+03 6.214657384337675117e-01 3.642431030203818407e-03
4.093070695471286854e+03 6.109878384763280934e-01 3.827419545130226423e-03
4.097163766166759160e+03 5.994717110195277865e-01 3.529511596396579191e-03
4.101260929932927866e+03 5.916991803099870273e-01 3.416895960289634358e-03
4.105362190862862008e+03 5.854863531454107539e-01 3.310833817645117416e-03
4.109467553053726078e+03 5.820489639851175179e-01 3.466273345673144372e-03
4.113577020606780934e+03 5.800206156288811865e-01 3.387217937871133278e-03
4.117690597627389252e+03 5.787674363620686213e-01 3.321043286336546139e-03
4.121808288225018259e+03 5.790598759343728030e-01 3.202828529358122886e-03
4.125930096513244280e+03 5.785885078491761480e-01 3.033542222988676318e-03
4.130056026609759101e+03 5.769147556029595725e-01 2.854209677444442469e-03
4.134186082636369974e+03 5.709022759253584711e-01 2.790639137476890689e-03
4.138320268719007800e+03 5.651813667258219764e-01 2.748104317980614407e-03
4.142458588987728035e+03 5.574320110863797417e-01 2.537712826132560925e-03
4.146601047576717065e+03 5.495121249149649278e-01 2.493850197269856846e-03
4.150747648624294925e+03 5.416323991719139697e-01 2.591864727837229002e-03
4.154898396272920763e+03 5.384542882934463259e-01 2.249820058634867392e-03
4.159053294669195566e+03 5.326203685637431740e-01 2.180660966312830597e-03
4.163212347963865795e+03 5.280565515965391921e-01 2.048792917181275174e-03
4.167375560311830668e+03 5.280186886641021760e-01 1.975044048094778178e-03
4.171542935872143971e+03 5.261562527625802677e-01 1.854414671583977641e-03
4.175714478808017702e+03 5.260187813521144395e-01 1.884214967838782799e-03
4.179890193286827525e+03 5.279409527723746276e-01 1.933060372643646092e-03
4.184070083480115500e+03 5.333147070658992295e-01 2.241564102386213800e-03
4.188254153563597356e+03 5.369760421713849485e-01 2.078149489263392876e-03
4.192442407717161586e+03 5.393464169947322917e-01 2.217319743213158265e-03
4.196634850124880359e+03 5.370538560147811724e-01 2.263943667549035178e-03
4.200831484975006788e+03 5.334282513708079598e-01 2.253753389569416489e-03
4.205032316459983122e+03 5.280387398477360827e-01 2.294579467399132568e-03
4.209237348776444378e+03 5.205590989470912922e-01 2.535098011009207387e-03
4.213446586125221984e+03 5.114935270993778982e-01 2.492692972828658253e-03
4.217660032711349231e+03 5.025210157792945331e-01 2.523150974202992627e-03
4.221877692744061278e+03 4.951435322367825353e-01 2.565446985567005917e-03
4.226099570436806971e+03 4.908628578497526984e-01 2.595705192822659116e-03
4.230325670007245208e+03 4.877476295951311269e-01 2.521147227103517040e-03
4.234555995677254032e+03 4.875550255287857127e-01 2.695507562467271308e-03
4.238790551672932452e+03 4.886793259004824086e-01 2.822288420904623275e-03
4.243029342224606808e+03 4.918582214780107265e-01 2.636591413028454515e-03
4.247272371566832589e+03 4.923543495423173821e-01 2.562151634169034051e-03
4.251519643938400804e+03 4.920305830698720739e-01 2.610647881613403169e-03
4.255771163582340705e+03 4.895594683662246593e-01 2.518716464929063835e-03
4.260026934745924336e+03 4.864929218024958701e-01 2.543428439897763103e-03
4.264286961680671993e+03 4.826253758565182128e-01 2.511905438610592331e-03
4.268551248642354039e+03 4.765772625427517895e-01 2.496512866305942557e-03
4.272819799890998183e+03 4.698212608921922273e-01 2.580059720171939009e-03
4.277092619690890388e+03 4.619308776781764214e-01 2.629075770294592249e-03
4.281369712310583054e+03 4.541587774058281624e-01 2.646468535386715774e-03
4.285651082022895025e+03 4.488795094714498335e-01 2.606974644722636573e-03
4.289936733104918858e+03 4.458348638696710275e-01 2.552976453419145315e-03
4.294226669838025373e+03 4.448879641338170376e-01 2.672978291760912204e-03
4.298520896507864563e+03 4.418126000870183923e-01 2.695869347533367145e-03
4.302819417404373780e+03 4.385210364110275760e-01 2.757061149873402638e-03
4.307122236821779552e+03 4.360847212300265618e-01 2.973810427550192641e-03
4.311429359058603040e+03 4.301391654061572645e-01 2.953176709686136311e-03
4.315740788417662770e+03 4.194874424633407983e-01 2.752490331714603933e-03
4.320056529206081905e+03 4.041994191371635070e-01 2.523453690484850440e-03
4.324376585735290064e+03 3.837478089882570553e-01 2.756352247577156800e-03
4.328700962321026054e+03 3.579154709954019964e-01 3.010456703311949807e-03
4.333029663283348782e+03 3.298786910257996419e-01 2.600172890880441887e-03
4.337362692946633615e+03 3.035121380896435017e-01 2.405425874052916514e-03
4.341700055639581478e+03 2.818769436019014640e-01 2.153864577040318432e-03
4.346041755695222491e+03 2.655262730504424629e-01 2.062041066703981448e-03
4.350387797450919606e+03 2.565925891507990775e-01 2.124815519912122419e-03
4.354738185248371337e+03 2.535337693668374692e-01 2.251945084766982050e-03
4.359092923433621763e+03 2.549683715310784304e-01 2.366665792538163570e-03
4.363452016357056891e+03 2.638284345702777145e-01 2.432258400014047136e-03
4.367815468373414660e+03 2.793858215699758230e-01 2.519003979067925818e-03
4.372183283841789489e+03 3.027713188405824485e-01 2.574405925098869133e-03
4.376555467125633186e+03 3.318257030509534911e-01 2.702506566086165275e-03
4.380932022592760404e+03 3.628147354838159311e-01 2.899806687433796951e-03
4.385312954615354101e+03 3.960464463641709121e-01 3.414395172361496360e-03
4.389698267569970994e+03 4.283666871319139480e-01 3.429105280895803579e-03
4.394087965837542470e+03 4.587336300367070296e-01 3.278714886582835639e-03
4.398482053803381859e+03 4.844173907315729721e-01 3.005108986115430456e-03
4.402880535857186260e+03 5.048799452804195731e-01 2.792736073387423832e-03
4.407283416393044718e+03 5.177030862986672366e-01 3.234444393517576979e-03
4.411690699809440048e+03 5.233818171257629270e-01 4.019878741340670442e-03
4.416102390509250654e+03 5.276895341635997605e-01 3.905708846944058645e-03
4.420518492899761441e+03 5.302613939625642203e-01 3.326342306423454680e-03
4.424939011392662906e+03 5.330399878503836453e-01 2.795250174707970738e-03
4.429363950404056595e+03 5.393430182372039861e-01 3.232841692878024673e-03
4.433793314354462382e+03 5.469046306017752990e-01 3.333694572896661427e-03
4.438227107668818462e+03 5.566437433614445096e-01 3.013576017738697245e-03
4.442665334776488635e+03 5.636798746848337149e-01 2.657133860540224473e-03
4.447108000111265937e+03 5.670635937323308395e-01 2.522742317804633431e-03
4.451555108111379013e+03 5.677819858868372593e-01 2.543869144838088389e-03
4.456006663219492111e+03 5.662257044558572927e-01 2.536239056456008299e-03
4.460462669882713271e+03 5.625190881329730219e-01 2.471101242481235031e-03
4.464923132552597053e+03 5.561566563704998245e-01 2.474022032285563746e-03
4.469388055685150903e+03 5.504723192842886359e-01 2.376877545715594571e-03
4.473857443740837880e+03 5.454629057474710274e-01 2.231809934346678116e-03
4.478331301184580298e+03 5.428002847087239902e-01 2.265792129441506104e-03
4.482809632485766087e+03 5.426041318265305557e-01 2.288605323927834188e-03
4.487292442118253348e+03 5.465537403703593089e-01 2.282514060779857520e-03
4.491779734560373072e+03 5.528463602386716191e-01 2.396063209012424915e-03
4.496271514294934605e+03 5.608440112041090941e-01 2.378945418070154381e-03
4.500767785809231100e+03 5.742795188956661967e-01 2.287489558427589081e-03
4.505268553595042249e+03 5.940087018459343504e-01 2.844926071947894482e-03
4.509773822148638828e+03 6.163642605292748433e-01 3.342407408474821172e-03
4.514283595970789065e+03 6.402086821896045832e-01 3.326146065836188374e-03
4.518797879566761367e+03 6.632547179241502500e-01 3.382413584853913475e-03
