# starting wavelength: 3161.350
# ending wavelength: 8330.560
# wav flux eflux
3.162694593533074112e+03 1.900862403432696801e-01 1.552674077993930202e-01
3.165857288126608182e+03 2.315599941241238413e-01 1.183778207527410864e-01
3.169023145414736064e+03 2.668723847343097977e-01 8.790676568039590411e-02
3.172192168560151458e+03 3.003562844068176085e-01 6.816013149137450933e-02
3.175364360728712654e+03 3.398757357582246064e-01 5.330885269015930156e-02
3.178539725089442527e+03 3.759023142021336028e-01 4.238056466419111434e-02
3.181718264814533086e+03 4.091629212684287920e-01 3.408700556368771811e-02
3.184899983079348658e+03 4.386977014052537149e-01 2.824160250237061492e-02
3.188084883062429071e+03 4.642590024154462092e-01 2.354337972525427647e-02
3.191272967945492383e+03 4.858835628728509493e-01 2.030802078158451540e-02
3.194464240913438971e+03 5.027413426754417936e-01 1.770467185332135623e-02
3.197658705154353811e+03 5.156261367147997321e-01 1.590686787320769527e-02
3.200856363859509202e+03 5.250026183983595995e-01 1.464995178906819927e-02
3.204057220223369768e+03 5.300895380984097516e-01 1.360083302948739831e-02
3.207261277443593826e+03 5.241205074412516041e-01 1.323245186714853278e-02
3.210468538721038840e+03 5.182290138157429338e-01 1.269341215554096840e-02
3.213679007259760965e+03 5.091294247044989563e-01 1.216450279864707794e-02
3.216892686267021418e+03 4.937493312216574282e-01 1.208976640500017234e-02
3.220109578953289656e+03 4.784208487363025286e-01 1.215195630540842620e-02
3.223329688532243836e+03 4.632491783132663410e-01 1.225502633331270255e-02
3.226553018220777176e+03 4.497480475971746272e-01 1.225287442282317271e-02
3.229779571238999324e+03 4.220975784452181134e-01 1.046152308736774880e-02
3.233009350810239084e+03 3.997951286105534963e-01 9.651551729153547837e-03
3.236242360161050783e+03 3.777334691038546910e-01 8.989595153519934143e-03
3.239478602521212906e+03 3.603140765937987711e-01 8.943218564104895782e-03
3.242718081123734919e+03 3.452961462109911950e-01 9.067919939214390962e-03
3.245960799204859995e+03 3.354536338862460498e-01 8.971998258343091837e-03
3.249206760004065927e+03 3.276135754761880792e-01 9.265709590806586390e-03
3.252455966764071036e+03 3.239887123308487493e-01 9.790708799605292098e-03
3.255708422730835991e+03 3.312996325655576668e-01 9.455580857476027570e-03
3.258964131153567905e+03 3.321500590812402343e-01 9.360963785470259937e-03
3.262223095284722604e+03 3.366874822249903421e-01 9.298210086220143333e-03
3.265485318380008266e+03 3.385915091048789516e-01 9.143880797538219557e-03
3.268750803698389518e+03 3.392992641134875975e-01 9.240071975297642001e-03
3.272019554502088795e+03 3.372692376788394286e-01 9.192101982915637168e-03
3.275291574056592253e+03 3.407023841887965587e-01 8.833780180397491494e-03
3.278566865630649772e+03 3.415871333770661988e-01 8.881104988605260930e-03
3.281845432496281319e+03 3.470915297820238998e-01 8.429896107576623915e-03
3.285127277928778767e+03 3.495344066040208530e-01 8.211197998043789914e-03
3.288412405206708627e+03 3.475907603309315030e-01 8.650130619038905871e-03
3.291700817611916591e+03 3.451042637246141132e-01 8.608376285566420386e-03
3.294992518429529355e+03 3.401986297715107743e-01 8.676882633824515786e-03
3.298287510947960072e+03 3.380711567277572271e-01 8.386916271982397877e-03
3.301585798458909267e+03 3.365465291154703387e-01 8.254574832392376146e-03
3.304887384257369376e+03 3.321269957680658136e-01 8.149935897889573969e-03
3.308192271641627485e+03 3.312852053559664500e-01 8.177201988914358649e-03
3.311500463913270323e+03 3.322030747082577729e-01 8.315128125783784185e-03
3.314811964377184722e+03 3.338753106351909916e-01 8.337130031958236293e-03
3.318126776341563072e+03 3.419626925148701035e-01 8.465918334692670508e-03
3.321444903117905596e+03 3.459660122100578494e-01 8.224358111710095356e-03
3.324766348021024896e+03 3.579702432908695720e-01 8.164519827030352478e-03
3.328091114369046863e+03 3.686697959333151697e-01 8.192694849048368436e-03
3.331419205483417045e+03 3.775392551751538539e-01 8.229347988878189107e-03
3.334750624688901553e+03 3.867390629679430814e-01 8.382892530959803329e-03
3.338085375313591612e+03 3.999174786190966002e-01 7.401699358254321473e-03
3.341423460688906289e+03 4.085818669975602724e-01 7.155101168519994483e-03
3.344764884149596128e+03 4.125750837018927752e-01 7.313087772510102127e-03
3.348109649033746791e+03 4.128326300511462321e-01 7.514354321333654128e-03
3.351457758682781787e+03 4.133582776852029461e-01 7.500869984573828135e-03
3.354809216441465651e+03 4.084336227445805045e-01 7.115806111588925294e-03
3.358164025657908041e+03 4.049873428259431751e-01 7.232483601562412351e-03
3.361522189683567376e+03 3.993039898158556311e-01 7.372728405326173066e-03
3.364883711873251741e+03 3.941823981677041733e-01 7.608687443036987567e-03
3.368248595585126168e+03 3.845661480849239533e-01 7.723349749361591889e-03
3.371616844180712633e+03 3.774970677107049588e-01 7.870151124662702613e-03
3.374988461024894150e+03 3.739041319197438096e-01 7.991567065010739615e-03
3.378363449485920228e+03 3.643196034648340520e-01 7.177783765016250081e-03
3.381741812935407324e+03 3.577018940829228555e-01 7.001345057402882759e-03
3.385123554748343849e+03 3.519858368674683158e-01 6.980131277194152710e-03
3.388508678303093347e+03 3.498263871817489656e-01 7.078572043628882614e-03
3.391897186981397681e+03 3.481173128425727459e-01 7.198076797741663826e-03
3.395289084168380214e+03 3.470054787033385879e-01 7.296531479467893537e-03
3.398684373252549449e+03 3.473111624038385248e-01 7.296441946241231935e-03
3.402083057625803121e+03 3.511046806144900723e-01 7.009150437546154272e-03
3.405485140683430018e+03 3.574180438103718993e-01 6.179803360069806642e-03
3.408890625824114522e+03 3.585694474195874060e-01 6.284985662450779005e-03
3.412299516449939802e+03 3.633113973310687084e-01 6.336086447319195028e-03
3.415711815966390986e+03 3.655618554823370503e-01 6.831142518844826594e-03
3.419127527782358356e+03 3.702502167306166436e-01 6.072300483998667626e-03
3.422546655310141887e+03 3.814435685700599543e-01 6.241006090722017036e-03
3.425969201965453522e+03 3.904959071245239777e-01 6.138161027489009818e-03
3.429395171167419903e+03 4.017640184174908202e-01 6.095433792921554732e-03
3.432824566338588284e+03 4.146296646202956571e-01 6.134936385192998713e-03
3.436257390904928343e+03 4.324539963453120084e-01 6.443041499356629009e-03
3.439693648295834464e+03 4.472649695210663134e-01 6.806175594441393924e-03
3.443133341944131189e+03 4.687537724039024800e-01 6.879686683778971253e-03
3.446576475286076402e+03 4.904257642810916362e-01 7.057502795887799461e-03
3.450023051761363604e+03 5.191006608574064707e-01 7.552431508385219414e-03
3.453473074813126004e+03 5.483308676544913496e-01 6.934558234424391746e-03
3.456926547887940615e+03 5.712360501963498205e-01 7.119447156198276637e-03
3.460383474435829612e+03 5.930925941137947799e-01 7.424644414717066453e-03
3.463843857910266706e+03 6.141994008531006521e-01 7.493829035429212110e-03
3.467307701768178049e+03 6.325930518557760784e-01 7.484302211592476148e-03
3.470775009469947236e+03 6.522253425887840628e-01 7.630065853427418256e-03
3.474245784479418489e+03 6.682907281450407577e-01 7.633071061302175962e-03
3.477720030263898934e+03 6.821596166667762695e-01 7.816023344169734446e-03
3.481197750294164052e+03 6.917025868037398606e-01 7.750128480183429702e-03
3.484678948044459503e+03 6.972861648300132664e-01 7.621029841152889180e-03
3.488163626992504760e+03 6.991817683355211477e-01 7.639628123925593615e-03
3.491651790619498570e+03 7.001457616823834051e-01 7.657293668597073451e-03
3.495143442410119405e+03 6.965694029897305795e-01 7.554383122571695433e-03
3.498638585852530468e+03 6.868115597791278892e-01 7.623209840056095581e-03
3.502137224438384237e+03 6.718520967090368945e-01 7.983518974212932759e-03
3.505639361662823831e+03 6.509751615014192083e-01 7.938516109507819107e-03
3.509145001024487556e+03 6.261747486943815000e-01 7.700818088879535575e-03
3.512654146025513455e+03 6.060466834426502247e-01 7.736612617479069962e-03
3.516166800171540217e+03 5.830967094228736158e-01 7.756714257981189853e-03
3.519682966971712631e+03 5.593731770206411547e-01 7.511180697359633694e-03
3.523202649938685681e+03 5.352360749106622739e-01 7.509340215328195144e-03
3.526725852588625457e+03 5.112832961893430950e-01 7.655999852617850591e-03
3.530252578441215064e+03 4.892912950530177163e-01 7.875313233211906488e-03
3.533782831019657806e+03 4.618970241457376891e-01 7.578136694808407063e-03
3.537316613850678550e+03 4.419609580919964253e-01 7.446142731657975737e-03
3.540853930464530094e+03 4.258881351278474003e-01 7.017493012467148489e-03
3.544394784394995895e+03 4.098897266063802891e-01 7.148707378391533189e-03
3.547939179179392340e+03 3.913569790117698011e-01 6.029819001640962170e-03
3.551487118358572843e+03 3.828632981908736133e-01 6.157854475528327584e-03
3.555038605476932389e+03 3.776243655836672430e-01 5.932986929483006523e-03
3.558593644082410719e+03 3.782513202315074263e-01 5.959411225473162238e-03
3.562152237726494150e+03 3.810114654940465195e-01 5.891225664886757564e-03
3.565714389964221937e+03 3.924012556223620551e-01 6.010891227998087401e-03
3.569280104354187188e+03 4.106230219168893747e-01 6.096549613676160821e-03
3.572849384458542772e+03 4.345285343037754155e-01 6.872600793373984975e-03
3.576422233843002232e+03 4.596131392691035211e-01 7.280181300133298575e-03
3.579998656076846601e+03 4.902679501824236397e-01 6.421030349543483881e-03
3.583578654732924406e+03 5.205302470458774700e-01 6.036560140528277225e-03
3.587162233387658489e+03 5.489015186138890279e-01 5.975277545735967893e-03
3.590749395621047370e+03 5.772274992902876045e-01 6.142706199785113313e-03
3.594340145016669794e+03 6.004670871625464867e-01 6.348419832038545811e-03
3.597934485161687462e+03 6.179537673100617967e-01 6.355825803532590135e-03
3.601532419646850485e+03 6.308141929520573177e-01 6.739599581930274565e-03
3.605133952066498296e+03 6.379187166374223894e-01 6.909575467315885906e-03
3.608739086018566013e+03 6.371246073557600420e-01 7.181196222568172159e-03
3.612347825104585809e+03 6.341815927197121949e-01 7.248423332118162331e-03
3.615960172929691907e+03 6.215840386342623702e-01 8.029951476894543402e-03
3.619576133102622407e+03 6.071499019299754218e-01 7.458958076640469052e-03
3.623195709235726554e+03 5.958900170096317339e-01 7.359710106115889723e-03
3.626818904944963379e+03 5.861527267688972920e-01 7.320995379375708212e-03
3.630445723849909427e+03 5.770012571844940208e-01 7.302371051772357444e-03
3.634076169573760581e+03 5.701122384614482064e-01 7.527349880302040483e-03
3.637710245743335690e+03 5.645876057269800796e-01 7.575184135424524456e-03
3.641347955989080219e+03 5.653922095139706228e-01 7.782957727730831395e-03
3.644989303945070333e+03 5.703227090186094861e-01 7.524781140512106642e-03
3.648634293249016537e+03 5.797256358895583883e-01 7.090652976331832461e-03
3.652282927542266862e+03 5.912712677788862781e-01 6.075542691803940271e-03
3.655935210469810499e+03 5.978271967476253002e-01 6.035524798010422944e-03
3.659591145680281443e+03 5.989439615502091252e-01 5.705857280620440890e-03
3.663250736825963031e+03 6.032325147863449866e-01 6.150180496530743487e-03
3.666913987562790226e+03 6.038745275260297696e-01 6.446713205167416659e-03
3.670580901550354156e+03 6.006136373376687043e-01 6.592651351803852262e-03
3.674251482451905758e+03 5.939153498907325801e-01 6.878933063853830479e-03
3.677925733934358959e+03 5.916881585645183961e-01 6.468373618318372549e-03
3.681603659668294313e+03 5.852752140644287282e-01 6.594234700486899421e-03
3.685285263327964003e+03 5.782206646171820230e-01 6.739121431268209339e-03
3.688970548591293209e+03 5.686901537950440622e-01 6.618554864175622138e-03
3.692659519139885560e+03 5.571799404687580726e-01 6.437163170541456043e-03
3.696352178659026777e+03 5.511380568212826958e-01 6.956744607811482517e-03
3.700048530837686940e+03 5.490005934507057317e-01 6.811545651140883846e-03
3.703748579368525952e+03 5.495693110982027285e-01 7.265152262555887169e-03
3.707452327947895355e+03 5.494250718176794113e-01 8.040920350967543234e-03
3.711159780275844696e+03 5.615296764308117528e-01 8.316819457836233803e-03
3.714870940056121526e+03 5.901453255790464203e-01 8.507317954757851255e-03
3.718585810996179134e+03 6.286258864301669247e-01 9.616414720603577021e-03
3.722304396807176545e+03 6.731943213268772874e-01 1.080460518526055527e-02
3.726026701203984885e+03 7.173803331972073982e-01 1.206515189015410806e-02
3.729752727905190113e+03 7.545909258475503867e-01 1.174612553903139900e-02
3.733482480633096657e+03 7.896931853804426416e-01 1.111009042260928392e-02
3.737215963113731050e+03 8.143713364512522590e-01 8.989971449839517445e-03
3.740953179076846027e+03 8.183661020885800719e-01 8.123066077439403815e-03
3.744694132255923705e+03 7.949559845245635081e-01 8.739932223192461644e-03
3.748438826388181042e+03 7.528933928845947809e-01 9.093605736083964011e-03
3.752187265214570289e+03 6.961909634257466006e-01 8.800723636597512431e-03
3.755939452479786269e+03 6.288332055122263231e-01 8.957573705418645296e-03
3.759695391932267285e+03 5.556557099276698830e-01 8.554541613397302277e-03
3.763455087324201031e+03 4.834666082999590220e-01 7.897597706595370012e-03
3.767218542411526414e+03 4.136121743771241643e-01 6.620403345101952622e-03
3.770985760953939007e+03 3.630379711557904510e-01 6.635583197230741741e-03
3.774756746714894234e+03 3.167429772504740670e-01 6.571986732050363184e-03
3.778531503461610555e+03 2.737711930707548702e-01 6.573324994816035285e-03
3.782310034965073100e+03 2.391307312408614549e-01 6.539927332016050136e-03
3.786092345000039586e+03 2.160971696269504694e-01 6.551722068383285420e-03
3.789878437345040766e+03 2.042546988685404186e-01 6.249995634739668321e-03
3.793668315782387253e+03 1.937591294111052354e-01 6.221099249680480184e-03
3.797461984098170888e+03 1.916519566857339263e-01 6.429767866429941976e-03
3.801259446082270188e+03 1.872295630923076770e-01 5.788708045348556555e-03
3.805060705528353537e+03 1.888997580262616605e-01 6.029447376272538579e-03
3.808865766233883278e+03 1.922502808601458113e-01 6.031951328624601295e-03
3.812674632000118436e+03 1.911201322609876463e-01 6.124586543615305120e-03
3.816487306632119726e+03 1.908076969947802570e-01 5.970738886917622418e-03
3.820303793938753188e+03 1.897145294646677971e-01 5.981819044965546242e-03
3.824124097732693372e+03 1.878097322353816934e-01 6.197498734285047765e-03
3.827948221830427428e+03 1.842436862147902588e-01 6.411832156430294187e-03
3.831776170052258749e+03 1.792353594519560112e-01 6.027693932047091183e-03
3.835607946222312421e+03 1.805020075320214745e-01 6.074123126408282995e-03
3.839443554168536139e+03 1.815110545369673645e-01 5.927907894895486328e-03
3.843282997722705659e+03 1.888996683158829515e-01 6.369189941470695601e-03
3.847126280720429804e+03 1.967568408707059402e-01 6.091810090332669750e-03
3.850973407001151372e+03 2.031742235322814560e-01 6.118637423202686124e-03
3.854824380408153957e+03 2.113872058611097615e-01 5.897228971475912754e-03
3.858679204788563311e+03 2.204406633444295216e-01 5.613052017977925023e-03
3.862537883993353262e+03 2.262578017706827205e-01 5.559413690356160287e-03
3.866400421877347981e+03 2.253629201978593621e-01 4.888623398386238855e-03
3.870266822299226533e+03 2.284772807224250690e-01 4.695044894881997277e-03
3.874137089121526969e+03 2.375876844714491232e-01 4.521341500333952122e-03
3.878011226210649966e+03 2.530824680215211231e-01 4.887034695753670992e-03
3.881889237436861549e+03 2.778856948186365639e-01 6.302674072369337382e-03
3.885771126674299921e+03 3.031992298465212565e-01 6.095347206099412801e-03
3.889656897800975457e+03 3.354899026340417700e-01 7.965633328152402562e-03
3.893546554698777527e+03 3.740178226554806695e-01 1.271911505491179518e-02
3.897440101253477678e+03 4.342902927766041365e-01 1.375618515965957439e-02
3.901337541354732366e+03 5.235671182343301089e-01 1.427435658232671656e-02
3.905238878896088409e+03 6.295763821860044240e-01 1.650855045328595769e-02
3.909144117774985716e+03 7.419692679808801428e-01 1.731383838342877290e-02
3.913053261892762293e+03 8.582561872504815836e-01 1.776824003637507768e-02
3.916966315154656058e+03 9.767868839400926095e-01 1.740836016352195065e-02
3.920883281469812118e+03 1.081141026938743366e+00 1.674471734878417092e-02
3.924804164751283224e+03 1.169507082993565872e+00 1.607902869523245362e-02
3.928728968916035683e+03 1.234575577475072627e+00 1.602410858638000576e-02
3.932657697884953450e+03 1.281970610543208267e+00 1.580792524339471455e-02
3.936590355582839493e+03 1.300555556979342553e+00 1.605675047161699009e-02
3.940526945938423523e+03 1.286276791625599270e+00 1.601013449807493771e-02
3.944467472884363360e+03 1.239884889569763171e+00 1.559255441158277113e-02
3.948411940357249023e+03 1.165432586274908200e+00 1.635459866036112139e-02
3.952360352297607733e+03 1.073955837612253328e+00 1.928326177425640497e-02
3.956312712649906643e+03 1.000577479679653825e+00 2.069297237806702605e-02
3.960269025362557841e+03 9.367512246136868725e-01 2.085506634206943724e-02
3.964229294387921527e+03 8.850896460286619138e-01 2.008797778153737987e-02
3.968193523682310570e+03 8.426170422943876082e-01 1.711710852137373826e-02
3.972161717205994591e+03 8.253703781669816664e-01 1.663529908882851321e-02
3.976133878923201792e+03 8.419197169655003865e-01 1.806174121234457863e-02
3.980110012802126221e+03 8.771286463106974240e-01 1.801451676514740849e-02
3.984090122814929600e+03 9.241933840074270101e-01 1.737838203847249380e-02
3.988074212937745870e+03 9.723424350539877636e-01 1.502407328492282555e-02
3.992062287150684824e+03 1.014825864132320676e+00 1.283168212788679888e-02
3.996054349437837118e+03 1.049094973678373677e+00 1.262460212423717129e-02
4.000050403787276082e+03 1.066709556366061573e+00 1.317869680426038935e-02
4.004050454191064546e+03 1.068450155439515825e+00 1.077013660980337753e-02
4.008054504645257111e+03 1.064962290326624927e+00 6.495283113937927802e-03
4.012062559149903791e+03 1.068441158008392566e+00 6.165998953068824173e-03
4.016074621709055009e+03 1.072918600439328962e+00 6.356997308833799327e-03
4.020090696330765240e+03 1.087656193338743860e+00 6.190973833466143113e-03
4.024110787027097558e+03 1.099664299685791491e+00 6.411767644155522833e-03
4.028134897814125907e+03 1.113815331598630554e+00 6.515291013619521621e-03
4.032163032711941469e+03 1.135210564267846500e+00 8.360243300246393561e-03
4.036195195744654484e+03 1.161146846813490452e+00 9.744635029133983176e-03
4.040231390940400615e+03 1.179795612312688480e+00 9.965735175518845856e-03
4.044271622331342314e+03 1.188535555160356028e+00 1.008500385855324796e-02
4.048315893953675186e+03 1.183327228829047950e+00 1.012683877028471013e-02
4.052364209847629809e+03 1.168539351989197561e+00 1.007613725593489544e-02
4.056416574057479011e+03 1.148010084002215825e+00 1.017929729662299561e-02
4.060472990631537868e+03 1.118324940105688725e+00 1.035213321836822575e-02
4.064533463622170530e+03 1.076063502303828967e+00 1.142655044475994648e-02
4.068597997085794304e+03 1.030725216573510794e+00 1.051534489310279250e-02
4.072666595082881486e+03 9.885660172831891579e-01 9.948689324951933560e-03
4.076739261677965715e+03 9.556122433750668943e-01 9.397941796729095826e-03
4.080816000939644709e+03 9.350836414902533589e-01 8.658055431487976863e-03
4.084896816940585722e+03 9.408632433788226557e-01 1.126343992228796310e-02
4.088981713757527814e+03 9.573607738075796680e-01 1.280569909468756880e-02
4.093070695471286854e+03 9.755555360997453240e-01 1.260480249067364063e-02
4.097163766166759160e+03 9.976809668338111337e-01 1.137671969360141630e-02
4.101260929932927866e+03 1.002966893164818796e+00 1.133866696949476643e-02
4.105362190862862008e+03 9.976016516444521365e-01 1.182913607326448874e-02
4.109467553053726078e+03 9.859040590984158303e-01 1.441542014624030629e-02
4.113577020606780934e+03 9.771650614882553265e-01 1.578349064135727703e-02
4.117690597627389252e+03 9.636524210823508296e-01 1.631706119223541238e-02
