# starting wavelength: 3470.710
# ending wavelength: 7404.980
# wav flux eflux
3.470775009469947236e+03 1.446246415488078585e-01 9.430688392444443180e-02
3.474245784479418489e+03 1.673054442515201634e-01 7.585939800642510500e-02
3.477720030263898934e+03 1.805507600106666111e-01 5.974006596289300336e-02
3.481197750294164052e+03 1.829713003865351406e-01 4.521728107816656850e-02
3.484678948044459503e+03 1.787351108866546689e-01 3.501940705171936730e-02
3.488163626992504760e+03 1.740270231864244344e-01 2.739836507954356709e-02
3.491651790619498570e+03 1.663341275665551344e-01 2.194447745538369299e-02
3.495143442410119405e+03 1.583035024558044623e-01 1.809555563884913260e-02
3.498638585852530468e+03 1.504958408387266355e-01 1.530763724267941196e-02
3.502137224438384237e+03 1.411550731529092606e-01 1.305182648054842819e-02
3.505639361662823831e+03 1.318155594232234828e-01 1.128810824994383802e-02
3.509145001024487556e+03 1.266382004481769186e-01 1.047661357026042489e-02
3.512654146025513455e+03 1.191426586321212289e-01 9.554863392040591208e-03
3.516166800171540217e+03 1.125479523800899107e-01 8.799061193742312506e-03
3.519682966971712631e+03 1.078924259954531228e-01 8.242171234335606000e-03
3.523202649938685681e+03 1.034423967916481557e-01 7.834257295040962868e-03
3.526725852588625457e+03 1.007874753899852260e-01 7.539906456859601230e-03
3.530252578441215064e+03 9.617752116729402778e-02 7.338094064312041670e-03
3.533782831019657806e+03 9.554905048944611901e-02 7.143522891160648987e-03
3.537316613850678550e+03 9.487814505221148220e-02 7.169734041362073144e-03
3.540853930464530094e+03 9.648115937169865486e-02 7.147693120861147581e-03
3.544394784394995895e+03 1.021834481205198542e-01 7.097512588098689804e-03
3.547939179179392340e+03 1.102948332807985043e-01 6.972810050354924516e-03
3.551487118358572843e+03 1.170799049060009811e-01 6.991351835199160515e-03
3.555038605476932389e+03 1.232966521917564784e-01 6.934377063883593109e-03
3.558593644082410719e+03 1.312262992796552341e-01 6.832693120139282129e-03
3.562152237726494150e+03 1.412579864975000710e-01 6.917672746932154726e-03
3.565714389964221937e+03 1.520057038480314704e-01 7.232504456641391209e-03
3.569280104354187188e+03 1.605764047834720709e-01 7.234190947314929343e-03
3.572849384458542772e+03 1.713805558531279194e-01 7.330667397187512827e-03
3.576422233843002232e+03 1.763190544306681429e-01 7.371725374214113669e-03
3.579998656076846601e+03 1.819881210664495708e-01 6.862154824307787476e-03
3.583578654732924406e+03 1.897157220060965155e-01 6.649727659376476405e-03
3.587162233387658489e+03 1.948092825857342392e-01 6.309745135362924279e-03
3.590749395621047370e+03 1.971498535143528796e-01 6.421768691934016601e-03
3.594340145016669794e+03 1.972660702484677619e-01 6.418695410511997095e-03
3.597934485161687462e+03 1.959900275375630885e-01 6.272999766713530795e-03
3.601532419646850485e+03 1.912984003096030450e-01 5.786116299215245465e-03
3.605133952066498296e+03 1.910268088858827762e-01 5.543468507651012553e-03
3.608739086018566013e+03 1.825099675636411289e-01 6.374615430843834710e-03
3.612347825104585809e+03 1.769517004090301049e-01 6.543762657743141045e-03
3.615960172929691907e+03 1.737364268871677275e-01 6.554908652015500534e-03
3.619576133102622407e+03 1.711123186838923449e-01 6.625741387231660895e-03
3.623195709235726554e+03 1.657391791313159168e-01 6.247731323722367780e-03
3.626818904944963379e+03 1.645369899800371016e-01 6.179621433895759325e-03
3.630445723849909427e+03 1.648198698632573067e-01 6.130564168426233702e-03
3.634076169573760581e+03 1.637020414117797140e-01 6.036784228554316865e-03
3.637710245743335690e+03 1.666177773363475279e-01 5.934891273166723914e-03
3.641347955989080219e+03 1.729411240896906454e-01 5.888975854357693385e-03
3.644989303945070333e+03 1.772504588280841009e-01 5.922708709026722369e-03
3.648634293249016537e+03 1.811730964411874256e-01 5.888018722665788393e-03
3.652282927542266862e+03 1.855463513520805852e-01 5.808743982778209400e-03
3.655935210469810499e+03 1.895545534243582853e-01 5.886610401898341449e-03
3.659591145680281443e+03 1.931509092343483280e-01 5.848375295265102573e-03
3.663250736825963031e+03 1.953600533777778703e-01 5.940721784547185400e-03
3.666913987562790226e+03 1.963471208679822555e-01 5.973349811580086315e-03
3.670580901550354156e+03 1.967714448938502891e-01 5.797470236797747090e-03
3.674251482451905758e+03 1.992469552773285524e-01 5.822022866264884092e-03
3.677925733934358959e+03 2.007192714339269546e-01 5.898995560104636042e-03
3.681603659668294313e+03 2.033048980145603646e-01 5.993788713612734770e-03
3.685285263327964003e+03 2.059575325864277939e-01 5.930912942997806567e-03
3.688970548591293209e+03 2.036004518651844952e-01 5.741101568244052697e-03
3.692659519139885560e+03 2.026488081674869546e-01 5.739097369262947772e-03
3.696352178659026777e+03 2.025368567322396451e-01 5.780799292180496471e-03
3.700048530837686940e+03 1.999227060386118415e-01 5.771508298649940562e-03
3.703748579368525952e+03 1.992177098773256771e-01 5.620793028513072775e-03
3.707452327947895355e+03 1.955953712139255063e-01 5.601365997740666638e-03
3.711159780275844696e+03 1.880517225870712017e-01 5.502633514508168538e-03
3.714870940056121526e+03 1.790129592275184756e-01 5.242953530145145515e-03
3.718585810996179134e+03 1.697603261182036305e-01 4.593112535001953219e-03
3.722304396807176545e+03 1.589805083921255746e-01 4.275386477040981313e-03
3.726026701203984885e+03 1.458915445415230328e-01 4.594902085035148728e-03
3.729752727905190113e+03 1.343539225005128401e-01 4.698282022624759510e-03
3.733482480633096657e+03 1.179670946217674654e-01 4.516605228085252867e-03
3.737215963113731050e+03 1.049325294233690725e-01 4.394777051794531222e-03
3.740953179076846027e+03 9.009366759966343230e-02 4.326135807904916628e-03
3.744694132255923705e+03 7.768625081568880653e-02 4.371968952051695674e-03
3.748438826388181042e+03 6.715114122066682956e-02 4.538194536140740046e-03
3.752187265214570289e+03 5.772375487395212112e-02 4.495984164648546277e-03
3.755939452479786269e+03 4.933333458505706481e-02 4.341495778400309390e-03
3.759695391932267285e+03 4.217807248385797153e-02 4.382510402595388502e-03
3.763455087324201031e+03 3.620116449088593702e-02 4.472987421607149683e-03
3.767218542411526414e+03 3.242285493880960046e-02 4.505521198301463102e-03
3.770985760953939007e+03 3.083821553734121881e-02 4.478988112614030667e-03
3.774756746714894234e+03 3.152622321624538870e-02 4.802459741947759549e-03
3.778531503461610555e+03 3.431584920757990709e-02 4.475275425127015969e-03
3.782310034965073100e+03 3.221591590110597925e-02 4.527359762684280212e-03
3.786092345000039586e+03 3.281685694498939765e-02 4.575722743726396390e-03
3.789878437345040766e+03 3.621098945748234266e-02 4.611389803364174256e-03
3.793668315782387253e+03 3.991895506333284493e-02 4.622501798120988784e-03
3.797461984098170888e+03 4.153001183208348407e-02 4.633237055726354206e-03
3.801259446082270188e+03 4.275415121382253325e-02 4.697152590463595130e-03
3.805060705528353537e+03 4.303827912107144327e-02 4.741893182241313683e-03
3.808865766233883278e+03 4.440067941215353198e-02 4.606064294648886878e-03
3.812674632000118436e+03 4.391997704405935232e-02 4.537010594671350532e-03
3.816487306632119726e+03 4.046240339223398236e-02 4.174133166608269725e-03
3.820303793938753188e+03 3.890072701602585031e-02 3.825242723186642914e-03
3.824124097732693372e+03 3.740033493386495100e-02 3.724138624889305766e-03
3.827948221830427428e+03 3.576184954820331441e-02 3.713338603737432065e-03
3.831776170052258749e+03 3.560334074976594793e-02 3.669830221054839591e-03
3.835607946222312421e+03 3.941280592931817317e-02 3.261244670325307796e-03
3.839443554168536139e+03 3.923796208519636508e-02 3.274020289931627633e-03
3.843282997722705659e+03 4.110394301316590976e-02 3.194433890825275520e-03
3.847126280720429804e+03 4.399653431415923716e-02 3.238252144149284147e-03
3.850973407001151372e+03 4.975192083117271902e-02 3.344928029768315467e-03
3.854824380408153957e+03 5.703889078093428433e-02 3.206965478163889983e-03
3.858679204788563311e+03 6.699190599841706173e-02 2.984375953737694771e-03
3.862537883993353262e+03 7.512182341758649740e-02 2.991331202513072569e-03
3.866400421877347981e+03 8.659263077301732059e-02 3.051965222209719174e-03
3.870266822299226533e+03 9.961283824104821827e-02 2.910054144340598961e-03
3.874137089121526969e+03 1.103586427014139337e-01 3.905892522612271385e-03
3.878011226210649966e+03 1.232402425786367495e-01 3.836805730377609944e-03
3.881889237436861549e+03 1.413203587358546620e-01 3.858695238469458250e-03
3.885771126674299921e+03 1.629495848673135905e-01 3.749246497099453096e-03
3.889656897800975457e+03 1.929671911529933226e-01 4.491097643206786762e-03
3.893546554698777527e+03 2.227108924726095007e-01 4.665605227655752509e-03
3.897440101253477678e+03 2.556148591875559428e-01 5.607628704959567202e-03
3.901337541354732366e+03 2.834378099664247030e-01 6.194940323164440862e-03
3.905238878896088409e+03 3.049863291058171888e-01 5.990990279317854293e-03
3.909144117774985716e+03 3.158928488696157721e-01 5.502632297852057611e-03
3.913053261892762293e+03 3.141296287453555491e-01 6.402943042815321083e-03
3.916966315154656058e+03 3.072200337812866500e-01 6.942628596273090966e-03
3.920883281469812118e+03 2.950396576516648439e-01 6.871418544915804984e-03
3.924804164751283224e+03 2.818261285787730386e-01 6.689836056905141409e-03
3.928728968916035683e+03 2.642127424296599747e-01 6.171972552685226973e-03
3.932657697884953450e+03 2.542208886755437103e-01 5.759832190421030826e-03
3.936590355582839493e+03 2.507457670304357733e-01 5.514574995824993164e-03
3.940526945938423523e+03 2.551390997132645944e-01 5.397724149174991382e-03
3.944467472884363360e+03 2.723132223758515935e-01 5.572954329526091065e-03
3.948411940357249023e+03 2.883163696681630417e-01 5.506373011080854286e-03
3.952360352297607733e+03 3.125229939872215534e-01 5.063826909560852421e-03
3.956312712649906643e+03 3.365139836765283499e-01 5.240266019012588747e-03
3.960269025362557841e+03 3.559486072560608116e-01 5.270930300877009998e-03
3.964229294387921527e+03 3.736605494481549106e-01 5.270192557775734386e-03
3.968193523682310570e+03 3.855953076933535395e-01 5.699675419300645821e-03
3.972161717205994591e+03 4.011362218297944149e-01 5.691715302360558434e-03
3.976133878923201792e+03 4.179766670245724791e-01 5.607499132316175541e-03
3.980110012802126221e+03 4.325941400057655706e-01 5.843311979956619662e-03
3.984090122814929600e+03 4.476721341809220545e-01 5.575933013013220640e-03
3.988074212937745870e+03 4.610894197348868184e-01 5.388834597269802525e-03
3.992062287150684824e+03 4.779057478717499974e-01 5.904842689136283185e-03
3.996054349437837118e+03 4.944038835166260637e-01 5.801233289331499121e-03
4.000050403787276082e+03 5.074226155961143458e-01 5.681208891696262926e-03
4.004050454191064546e+03 5.181647493934272708e-01 5.790567076698752320e-03
4.008054504645257111e+03 5.302245534855379860e-01 5.211676465354276103e-03
4.012062559149903791e+03 5.351983605132298871e-01 5.118429795327299539e-03
4.016074621709055009e+03 5.328963662600582074e-01 5.047602636521995693e-03
4.020090696330765240e+03 5.275489527837856629e-01 5.183420570019506637e-03
4.024110787027097558e+03 5.143458568648049400e-01 4.808912491907043132e-03
4.028134897814125907e+03 5.032031870148343522e-01 4.853814045514579650e-03
4.032163032711941469e+03 4.927327090053493786e-01 4.784051116637998841e-03
4.036195195744654484e+03 4.865714210917940763e-01 4.704938143654380581e-03
4.040231390940400615e+03 4.791585451522632488e-01 4.877973280749404485e-03
4.044271622331342314e+03 4.719965675114639603e-01 4.869972498845328950e-03
4.048315893953675186e+03 4.664430307937592057e-01 5.052547983551833842e-03
4.052364209847629809e+03 4.616117689149092929e-01 5.227438998063660414e-03
4.056416574057479011e+03 4.603088220636025185e-01 5.046452366613415723e-03
4.060472990631537868e+03 4.663207526076751930e-01 5.147264365728610944e-03
4.064533463622170530e+03 4.728244631695039391e-01 5.223974034288338814e-03
4.068597997085794304e+03 4.822890914703812371e-01 5.367071869441609154e-03
4.072666595082881486e+03 4.934383566988491121e-01 5.089111180201169420e-03
4.076739261677965715e+03 4.969265696360138373e-01 5.142302796283072970e-03
4.080816000939644709e+03 5.006705400197566380e-01 5.031622003487729554e-03
4.084896816940585722e+03 5.041829367074869284e-01 4.876409249871864471e-03
4.088981713757527814e+03 5.041443478839205961e-01 5.152699866504253066e-03
4.093070695471286854e+03 5.033414959218224238e-01 5.702572069983379704e-03
4.097163766166759160e+03 5.048979537482186641e-01 5.706881972733661434e-03
4.101260929932927866e+03 5.098355555469971101e-01 5.647478606174190750e-03
4.105362190862862008e+03 5.124053401306476463e-01 5.214142836116541189e-03
4.109467553053726078e+03 5.186666449883682306e-01 5.388311744278835407e-03
4.113577020606780934e+03 5.290754262140278108e-01 5.462137385577347549e-03
4.117690597627389252e+03 5.401536510360966936e-01 4.978556842725649113e-03
4.121808288225018259e+03 5.530699816270554514e-01 4.474821824242897379e-03
4.125930096513244280e+03 5.602156865101349803e-01 4.113446221821379610e-03
4.130056026609759101e+03 5.604058531238714780e-01 3.943727630511375919e-03
4.134186082636369974e+03 5.623513206481611792e-01 4.040696409617655638e-03
4.138320268719007800e+03 5.585566597509220577e-01 4.075695804939109129e-03
4.142458588987728035e+03 5.485240652234728564e-01 4.153740452708118772e-03
4.146601047576717065e+03 5.375824820910739543e-01 3.902281168665724682e-03
4.150747648624294925e+03 5.288087910954156756e-01 3.966376316369712302e-03
4.154898396272920763e+03 5.182842179964044504e-01 3.984130036663452445e-03
4.159053294669195566e+03 5.137924797987015735e-01 4.113910356377610718e-03
4.163212347963865795e+03 5.098247542852381020e-01 4.104759676587316913e-03
4.167375560311830668e+03 5.082467766208838000e-01 4.263299632060553977e-03
4.171542935872143971e+03 5.036266177626880225e-01 4.334448557785100520e-03
4.175714478808017702e+03 4.993222454112669628e-01 4.067704549656091587e-03
4.179890193286827525e+03 4.979809578888059196e-01 4.067898176352595201e-03
4.184070083480115500e+03 4.972039979106639418e-01 3.919957729917078124e-03
4.188254153563597356e+03 5.018235437318354641e-01 3.723815109372497715e-03
4.192442407717161586e+03 5.037864497829054322e-01 3.675863607901842713e-03
4.196634850124880359e+03 5.054273577876974288e-01 3.713610868411799069e-03
4.200831484975006788e+03 5.093358086945181107e-01 3.816072176103756357e-03
4.205032316459983122e+03 5.106051099309379948e-01 3.674257998241425068e-03
4.209237348776444378e+03 5.131657314605477804e-01 4.063151689902693223e-03
4.213446586125221984e+03 5.139497623537839788e-01 3.702189270679348120e-03
4.217660032711349231e+03 5.135196769047114529e-01 3.418384066838500452e-03
4.221877692744061278e+03 5.079722983574349593e-01 3.611164006784182198e-03
4.226099570436806971e+03 5.017361230188711607e-01 3.749254254213900406e-03
4.230325670007245208e+03 4.925961583057872351e-01 3.781147720371729175e-03
4.234555995677254032e+03 4.827001312358512042e-01 3.277162690748996327e-03
4.238790551672932452e+03 4.757702537225788619e-01 3.130798735777901888e-03
4.243029342224606808e+03 4.739358443315492830e-01 3.840199287190306995e-03
4.247272371566832589e+03 4.724448498549342901e-01 3.619864759502659530e-03
4.251519643938400804e+03 4.662189483620744479e-01 4.120737998527986175e-03
4.255771163582340705e+03 4.654138130241056714e-01 4.145264794562075056e-03
4.260026934745924336e+03 4.647839870382597383e-01 4.215490361531851887e-03
4.264286961680671993e+03 4.632422587994208807e-01 4.145480614113824895e-03
4.268551248642354039e+03 4.625332769128583377e-01 4.301753212932210232e-03
4.272819799890998183e+03 4.600126039218777607e-01 4.249563327673081849e-03
4.277092619690890388e+03 4.501220430211997914e-01 4.294553372723628436e-03
4.281369712310583054e+03 4.402266307765954068e-01 4.331243721912349590e-03
4.285651082022895025e+03 4.309427839345957856e-01 4.298643335127463536e-03
4.289936733104918858e+03 4.215764039183602097e-01 4.520286675258443874e-03
4.294226669838025373e+03 4.124834521269823973e-01 4.684580872814229566e-03
4.298520896507864563e+03 4.061630093697402022e-01 4.506560850376191071e-03
4.302819417404373780e+03 4.030778746517238997e-01 4.471029585743812457e-03
4.307122236821779552e+03 4.029031574704665664e-01 4.588642473192548060e-03
4.311429359058603040e+03 4.053597221021766339e-01 5.002893297682911751e-03
4.315740788417662770e+03 4.079640221650086551e-01 5.516850436736967130e-03
4.320056529206081905e+03 4.083104435381323394e-01 5.302510937445367722e-03
4.324376585735290064e+03 4.086201965994983865e-01 3.868672005952999461e-03
4.328700962321026054e+03 4.022591364021513294e-01 3.484081720048949702e-03
4.333029663283348782e+03 3.828794158600820063e-01 3.759656488419641212e-03
4.337362692946633615e+03 3.622563942557963657e-01 3.854383453699152754e-03
4.341700055639581478e+03 3.352507428249563715e-01 3.914775330760602613e-03
4.346041755695222491e+03 3.045984107842003574e-01 3.848997443252053386e-03
4.350387797450919606e+03 2.795663998721094612e-01 3.702626698185806572e-03
4.354738185248371337e+03 2.576549768848837019e-01 3.701259632460550224e-03
4.359092923433621763e+03 2.363999014482488226e-01 3.490901679048104885e-03
4.363452016357056891e+03 2.206039631215755414e-01 3.632769626530955691e-03
4.367815468373414660e+03 2.124115537121005759e-01 3.767653903594244281e-03
4.372183283841789489e+03 2.123280846561655943e-01 3.903657772711634309e-03
4.376555467125633186e+03 2.213202822333397990e-01 3.835736726920971514e-03
4.380932022592760404e+03 2.408537036052569857e-01 4.031936278037690814e-03
4.385312954615354101e+03 2.672753379991700262e-01 4.625001350760880522e-03
4.389698267569970994e+03 2.994430858144783714e-01 5.046978082784386692e-03
4.394087965837542470e+03 3.333388492189560681e-01 5.306031520461982655e-03
4.398482053803381859e+03 3.659833359710464307e-01 4.753233355875768895e-03
4.402880535857186260e+03 3.935227442510347839e-01 4.888647541521675896e-03
4.407283416393044718e+03 4.216587339311696492e-01 4.873781695866444101e-03
4.411690699809440048e+03 4.452562442732622694e-01 5.059298209156625446e-03
4.416102390509250654e+03 4.635540485011918066e-01 5.267393041619671673e-03
4.420518492899761441e+03 4.797171761126256539e-01 5.300649106430901578e-03
4.424939011392662906e+03 4.916579788897552650e-01 4.792196331746454395e-03
4.429363950404056595e+03 5.020075093631961582e-01 3.991298579343534846e-03
4.433793314354462382e+03 5.183710207989326024e-01 4.458203478832491878e-03
4.438227107668818462e+03 5.355909618751270029e-01 4.355242568467172261e-03
4.442665334776488635e+03 5.525437701016067127e-01 3.998108157519070921e-03
4.447108000111265937e+03 5.658955650115055080e-01 3.712571858141617675e-03
4.451555108111379013e+03 5.734629710406602410e-01 3.797044686692232877e-03
4.456006663219492111e+03 5.768978483755244913e-01 3.744065391594876297e-03
4.460462669882713271e+03 5.749219770804093743e-01 3.707343637880900974e-03
4.464923132552597053e+03 5.704833237577028315e-01 3.602437188648768482e-03
4.469388055685150903e+03 5.652138649124379688e-01 3.678332130747638280e-03
4.473857443740837880e+03 5.593578574721758123e-01 3.781577818612259518e-03
4.478331301184580298e+03 5.544209487933451364e-01 3.787575767564362386e-03
4.482809632485766087e+03 5.463912851895674772e-01 3.833597032315505960e-03
4.487292442118253348e+03 5.369315828132416035e-01 3.945829115844041481e-03
4.491779734560373072e+03 5.328772402192819557e-01 3.946554247908198865e-03
4.496271514294934605e+03 5.313755332628765649e-01 3.896126361059759104e-03
4.500767785809231100e+03 5.357069566300071140e-01 3.808444955178682048e-03
4.505268553595042249e+03 5.461020197349251148e-01 3.676266428394634519e-03
4.509773822148638828e+03 5.596130054270932463e-01 3.585967611598531168e-03
4.514283595970789065e+03 5.788165846936970116e-01 4.193351836481650115e-03
4.518797879566761367e+03 6.000082247514526568e-01 4.410246380233764224e-03
