# starting wavelength: 3467.710
# ending wavelength: 7401.990
# wav flux eflux
3.470775009469947236e+03 5.160713891355863669e-01 8.760934214147660104e-02
3.474245784479418489e+03 4.997811399859636849e-01 6.913346402665936086e-02
3.477720030263898934e+03 4.903478130560961490e-01 5.360528125533225996e-02
3.481197750294164052e+03 4.785754354079073125e-01 4.152018054626093607e-02
3.484678948044459503e+03 4.631240696208231422e-01 3.253128475109522827e-02
3.488163626992504760e+03 4.450035818322810588e-01 2.586271940318785392e-02
3.491651790619498570e+03 4.274647114062740672e-01 2.098112126466703323e-02
3.495143442410119405e+03 4.123517275172108310e-01 1.740686914700685650e-02
3.498638585852530468e+03 4.007574198284247213e-01 1.479566185836885157e-02
3.502137224438384237e+03 3.938796028628106516e-01 1.305705566390020708e-02
3.505639361662823831e+03 3.902105673204738223e-01 1.163680497191213123e-02
3.509145001024487556e+03 3.897700616986006228e-01 1.059848218409769997e-02
3.512654146025513455e+03 3.919135707789065393e-01 9.839811775746925421e-03
3.516166800171540217e+03 3.977510267113356091e-01 9.374596646374603812e-03
3.519682966971712631e+03 3.975682146974661157e-01 9.075475705217080427e-03
3.523202649938685681e+03 4.045843384653208252e-01 8.801136899512685893e-03
3.526725852588625457e+03 4.145942783828401867e-01 9.030521336444006023e-03
3.530252578441215064e+03 4.230265127625839616e-01 9.130526762187434614e-03
3.533782831019657806e+03 4.317347423947153762e-01 9.170715409108616198e-03
3.537316613850678550e+03 4.377550131805651445e-01 9.112981731892705328e-03
3.540853930464530094e+03 4.438525865302041518e-01 8.572352995001300199e-03
3.544394784394995895e+03 4.446892030902526161e-01 8.591896542124456346e-03
3.547939179179392340e+03 4.436638051986058762e-01 8.606090981165513687e-03
3.551487118358572843e+03 4.411234161529547504e-01 8.704699953237585858e-03
3.555038605476932389e+03 4.360860113434763541e-01 9.164319076612616188e-03
3.558593644082410719e+03 4.346046572753694548e-01 9.210685557197234238e-03
3.562152237726494150e+03 4.238359423610723042e-01 9.516658126063358425e-03
3.565714389964221937e+03 4.163508696433267375e-01 1.003476867031366342e-02
3.569280104354187188e+03 4.036552515893787052e-01 9.339737059689313253e-03
3.572849384458542772e+03 3.901553782716207230e-01 8.382243725944335186e-03
3.576422233843002232e+03 3.848127549497823985e-01 7.910795801320594928e-03
3.579998656076846601e+03 3.824272896361312069e-01 7.564800334303750477e-03
3.583578654732924406e+03 3.829034790879096151e-01 7.620482435637173507e-03
3.587162233387658489e+03 3.859805575099463648e-01 7.608627875414457689e-03
3.590749395621047370e+03 4.003604929116588718e-01 8.528395140169698144e-03
3.594340145016669794e+03 4.085429725271730872e-01 8.377630302256631675e-03
3.597934485161687462e+03 4.229897430762141197e-01 7.963051764578432321e-03
3.601532419646850485e+03 4.323441810308246147e-01 7.963085960927688070e-03
3.605133952066498296e+03 4.452785159317757535e-01 7.963559606048654232e-03
3.608739086018566013e+03 4.578933248956241764e-01 7.895197732846973709e-03
3.612347825104585809e+03 4.687088518023510009e-01 7.802536648528082472e-03
3.615960172929691907e+03 4.778051880791284733e-01 7.720358790605051993e-03
3.619576133102622407e+03 4.844835386366295737e-01 7.816885024663860343e-03
3.623195709235726554e+03 4.911200070266361628e-01 7.917657620626699158e-03
3.626818904944963379e+03 4.961471674600141935e-01 8.029624192707099373e-03
3.630445723849909427e+03 4.974631590976902329e-01 7.940007001154445257e-03
3.634076169573760581e+03 4.944416708342672107e-01 7.977712294785690300e-03
3.637710245743335690e+03 4.854555244817747583e-01 7.736055198103437662e-03
3.641347955989080219e+03 4.750495824598986450e-01 7.233230240587963829e-03
3.644989303945070333e+03 4.667174182736818500e-01 7.011274338555439391e-03
3.648634293249016537e+03 4.538749457044702895e-01 7.097200499586581862e-03
3.652282927542266862e+03 4.371352461104291987e-01 7.064596402064482646e-03
3.655935210469810499e+03 4.170728212209741104e-01 7.126912926930736164e-03
3.659591145680281443e+03 3.958502161963313726e-01 7.291704928330079889e-03
3.663250736825963031e+03 3.720433699346537559e-01 7.307767877918902241e-03
3.666913987562790226e+03 3.482895321211925133e-01 7.216594657552094158e-03
3.670580901550354156e+03 3.246369945302003956e-01 7.424989199202356761e-03
3.674251482451905758e+03 3.022031617876874132e-01 7.293567067318098944e-03
3.677925733934358959e+03 2.727727161527879196e-01 6.377084090867193855e-03
3.681603659668294313e+03 2.486503714649664909e-01 6.093112411266218484e-03
3.685285263327964003e+03 2.270543266868955135e-01 5.772342839487991893e-03
3.688970548591293209e+03 2.097727603021948828e-01 5.898132748793699295e-03
3.692659519139885560e+03 1.916917721168887589e-01 5.834846045784785121e-03
3.696352178659026777e+03 1.833192112589970835e-01 6.319913512548798462e-03
3.700048530837686940e+03 1.789183951137956474e-01 5.806805470957699007e-03
3.703748579368525952e+03 1.726445774255684351e-01 5.717270058327993468e-03
3.707452327947895355e+03 1.744197658887658153e-01 5.349106505742822794e-03
3.711159780275844696e+03 1.777078308678566032e-01 4.868920448121719959e-03
3.714870940056121526e+03 1.806589626971610574e-01 4.788017765553679791e-03
3.718585810996179134e+03 1.845311320206121930e-01 4.783445141583126184e-03
3.722304396807176545e+03 1.869328618980322931e-01 4.850798458288992608e-03
3.726026701203984885e+03 1.871958277498764756e-01 4.709125911077089409e-03
3.729752727905190113e+03 1.904243430553548833e-01 4.727590632452436173e-03
3.733482480633096657e+03 1.938786582717387796e-01 4.779621698025466811e-03
3.737215963113731050e+03 1.972006800185449049e-01 4.747713280981815699e-03
3.740953179076846027e+03 1.995646709685835463e-01 4.946197104439943072e-03
3.744694132255923705e+03 2.037649559352857076e-01 4.972105998537154105e-03
3.748438826388181042e+03 2.133459827827148270e-01 5.546001923233674462e-03
3.752187265214570289e+03 2.199715011148009880e-01 5.487858581732424357e-03
3.755939452479786269e+03 2.251508348965413353e-01 5.563645493966679935e-03
3.759695391932267285e+03 2.318358151154759350e-01 5.397385815287418509e-03
3.763455087324201031e+03 2.383609376392001600e-01 5.765231039671776282e-03
3.767218542411526414e+03 2.448991605011745232e-01 6.176802543320986626e-03
3.770985760953939007e+03 2.565802292332117207e-01 6.247310388045973668e-03
3.774756746714894234e+03 2.711553375191244619e-01 6.347319212789424674e-03
3.778531503461610555e+03 2.876602926029756535e-01 6.516552229365227440e-03
3.782310034965073100e+03 3.037259878864833063e-01 6.596851897052842528e-03
3.786092345000039586e+03 3.204493009087104882e-01 6.674045466636557497e-03
3.789878437345040766e+03 3.386484791698889385e-01 6.256477621943747243e-03
3.793668315782387253e+03 3.562792298241125866e-01 6.092533457622387703e-03
3.797461984098170888e+03 3.765805258984777915e-01 6.156772532555343166e-03
3.801259446082270188e+03 3.971459900628903084e-01 6.528857785980967700e-03
3.805060705528353537e+03 4.224911599255380401e-01 6.777961201688085385e-03
3.808865766233883278e+03 4.534247510365991829e-01 6.783502304997276848e-03
3.812674632000118436e+03 4.863404596264638835e-01 6.643862485785236201e-03
3.816487306632119726e+03 5.192383627773190513e-01 6.883258241884232000e-03
3.820303793938753188e+03 5.555778837186253760e-01 6.987459450567976710e-03
3.824124097732693372e+03 5.951403468631746296e-01 7.181024199847252723e-03
3.827948221830427428e+03 6.354910901920258759e-01 7.310092218422443999e-03
3.831776170052258749e+03 6.811324352075757149e-01 7.207636153447408330e-03
3.835607946222312421e+03 7.303284593911618661e-01 6.638481902687412561e-03
3.839443554168536139e+03 7.735567412819928101e-01 6.859846461279251080e-03
3.843282997722705659e+03 8.139433817254797532e-01 6.605859421910787940e-03
3.847126280720429804e+03 8.409496183703600858e-01 6.732897209046899423e-03
3.850973407001151372e+03 8.610300168275577537e-01 7.228365949213330817e-03
3.854824380408153957e+03 8.820387653046150023e-01 7.200951342099706776e-03
3.858679204788563311e+03 9.014114279740469415e-01 7.392202206305317075e-03
3.862537883993353262e+03 9.192165184859594218e-01 7.220005450016058965e-03
3.866400421877347981e+03 9.355192442442002987e-01 7.325392429123160631e-03
3.870266822299226533e+03 9.471901342643195276e-01 7.850090126612583805e-03
3.874137089121526969e+03 9.546490050689149243e-01 8.705686335053417976e-03
3.878011226210649966e+03 9.716068350613655813e-01 8.788359922176429764e-03
3.881889237436861549e+03 9.891659189091109861e-01 9.666253770035030182e-03
3.885771126674299921e+03 1.002457207799974936e+00 9.795879848966293491e-03
3.889656897800975457e+03 1.019711109121631099e+00 1.005032039921346411e-02
3.893546554698777527e+03 1.023464572530216055e+00 1.030972353018739379e-02
3.897440101253477678e+03 1.024048830773443663e+00 1.085647568820642152e-02
3.901337541354732366e+03 1.031338239079041763e+00 1.163214379114771262e-02
3.905238878896088409e+03 1.025841850499031205e+00 1.150865964233084918e-02
3.909144117774985716e+03 1.013516171776303931e+00 1.167343326026766895e-02
3.913053261892762293e+03 1.002933110596444743e+00 1.188730996063342045e-02
3.916966315154656058e+03 9.996362981246238455e-01 1.207327211820585777e-02
3.920883281469812118e+03 9.941535489716721852e-01 1.250496762152424925e-02
3.924804164751283224e+03 9.977062268075913565e-01 1.180890020370227618e-02
3.928728968916035683e+03 1.000821321730091862e+00 1.157978688369714487e-02
3.932657697884953450e+03 1.024135676415640184e+00 1.252277754885419876e-02
3.936590355582839493e+03 1.060060376069485111e+00 1.342711998619273636e-02
3.940526945938423523e+03 1.094378570767176262e+00 1.286154638406991103e-02
3.944467472884363360e+03 1.127110462505731103e+00 1.270864920519322420e-02
3.948411940357249023e+03 1.148648412585184353e+00 1.226144697022050686e-02
3.952360352297607733e+03 1.177262517976042977e+00 1.183943048659462025e-02
3.956312712649906643e+03 1.197308721860822267e+00 1.195406851225916910e-02
3.960269025362557841e+03 1.215140391165428158e+00 1.171981114717276021e-02
3.964229294387921527e+03 1.226299457189381714e+00 1.118837551579279603e-02
3.968193523682310570e+03 1.219910644117343068e+00 1.011704016561560879e-02
3.972161717205994591e+03 1.208730325432965325e+00 9.506292451434470922e-03
3.976133878923201792e+03 1.207546154514456127e+00 8.765646933309424738e-03
3.980110012802126221e+03 1.195935920970877087e+00 8.728192584516888952e-03
3.984090122814929600e+03 1.179867079742182190e+00 8.709903912110024404e-03
3.988074212937745870e+03 1.162396044733680300e+00 8.902045695143743706e-03
3.992062287150684824e+03 1.147843822781241752e+00 8.714402694466581029e-03
3.996054349437837118e+03 1.126788800640227128e+00 8.375144354933829888e-03
4.000050403787276082e+03 1.109311500248888471e+00 8.198066689205274829e-03
4.004050454191064546e+03 1.085984664790264009e+00 6.837599619071403276e-03
4.008054504645257111e+03 1.075346260023041012e+00 6.333058668175000488e-03
4.012062559149903791e+03 1.070491190641968515e+00 5.906358551389867366e-03
4.016074621709055009e+03 1.060193870232505997e+00 6.037334780769592311e-03
4.020090696330765240e+03 1.056028776874988750e+00 6.521664994203810357e-03
4.024110787027097558e+03 1.049973769900752085e+00 6.589702055422597300e-03
4.028134897814125907e+03 1.037295789008282343e+00 6.422959209639405448e-03
4.032163032711941469e+03 1.015239029191206788e+00 6.481050251035678708e-03
4.036195195744654484e+03 9.992676131228809266e-01 6.292154762582886918e-03
4.040231390940400615e+03 9.751691759824199224e-01 6.565203102303368392e-03
4.044271622331342314e+03 9.456285094216390075e-01 6.671428845292067325e-03
4.048315893953675186e+03 9.191380916864152484e-01 6.406575278373541522e-03
4.052364209847629809e+03 8.961089836856112045e-01 6.271250291470358181e-03
4.056416574057479011e+03 8.711145944501007543e-01 6.076751202157645686e-03
4.060472990631537868e+03 8.480744403541666809e-01 5.861696205311408940e-03
4.064533463622170530e+03 8.319813974254409716e-01 5.814825552234041510e-03
4.068597997085794304e+03 8.187067685491006275e-01 5.637616706918513118e-03
4.072666595082881486e+03 8.089966711105917030e-01 5.570871977894309608e-03
4.076739261677965715e+03 8.050149429031239201e-01 5.868602557774984727e-03
4.080816000939644709e+03 7.997225364632235545e-01 5.887839006752505419e-03
4.084896816940585722e+03 7.923437319157058401e-01 5.830599011354849030e-03
4.088981713757527814e+03 7.852012633736438207e-01 5.549137054453356747e-03
4.093070695471286854e+03 7.709809859349968653e-01 5.488555936603437165e-03
4.097163766166759160e+03 7.573417425454594953e-01 5.133265850003929792e-03
4.101260929932927866e+03 7.415843081174917639e-01 5.328157142302644526e-03
4.105362190862862008e+03 7.261509300707764680e-01 5.374771488218451319e-03
4.109467553053726078e+03 7.115261912701785763e-01 5.504748175288579071e-03
4.113577020606780934e+03 6.952264307896465212e-01 5.210509990925300469e-03
4.117690597627389252e+03 6.703069903457243850e-01 5.426299644074678886e-03
4.121808288225018259e+03 6.514793128836526837e-01 5.180103283272076940e-03
4.125930096513244280e+03 6.375109741358504500e-01 5.096270682159684609e-03
4.130056026609759101e+03 6.271552329550229565e-01 5.181563119216166594e-03
4.134186082636369974e+03 6.216112022574477036e-01 5.260894640861002620e-03
4.138320268719007800e+03 6.240727701854833498e-01 5.510620191369293604e-03
4.142458588987728035e+03 6.287525792878713160e-01 5.587171374036601322e-03
4.146601047576717065e+03 6.353821731857983712e-01 5.682479025571356493e-03
4.150747648624294925e+03 6.428152216097064997e-01 5.726120071772387854e-03
4.154898396272920763e+03 6.576661735828157607e-01 5.762467627750986893e-03
4.159053294669195566e+03 6.709390019503883584e-01 6.105951913257114116e-03
4.163212347963865795e+03 6.869180914987547126e-01 5.941640560561022716e-03
4.167375560311830668e+03 6.974183502206594554e-01 6.217602888477950090e-03
4.171542935872143971e+03 7.101757428977300002e-01 6.225802875950069322e-03
4.175714478808017702e+03 7.172488639530442134e-01 5.617241533676614433e-03
4.179890193286827525e+03 7.266937433414956127e-01 5.076230360504201296e-03
4.184070083480115500e+03 7.409408284532833511e-01 4.969247144381564417e-03
4.188254153563597356e+03 7.628018094238691038e-01 5.163104896559185357e-03
4.192442407717161586e+03 7.840896521231540683e-01 5.005468708733092943e-03
4.196634850124880359e+03 8.014792335536256029e-01 4.956795807203276394e-03
4.200831484975006788e+03 8.261038169393198904e-01 5.067505470616034784e-03
4.205032316459983122e+03 8.459262804014563430e-01 4.980239288312869259e-03
4.209237348776444378e+03 8.634193724386070024e-01 4.965927963363312922e-03
4.213446586125221984e+03 8.780030858239101788e-01 4.903575500010257451e-03
4.217660032711349231e+03 8.936403830553513172e-01 4.920895334625873668e-03
4.221877692744061278e+03 9.024633290536222541e-01 4.829036438919978580e-03
4.226099570436806971e+03 9.078103830457006085e-01 4.893774239042174984e-03
4.230325670007245208e+03 9.051368096126899410e-01 5.087501330682539860e-03
4.234555995677254032e+03 9.093551944165398915e-01 4.946339153905829171e-03
4.238790551672932452e+03 9.154531752473024087e-01 5.051227345538382776e-03
4.243029342224606808e+03 9.212270941758221587e-01 4.630279504629528434e-03
4.247272371566832589e+03 9.293014641067903758e-01 4.584176508762288944e-03
4.251519643938400804e+03 9.414897889137247011e-01 4.976936219736684090e-03
4.255771163582340705e+03 9.523636893954502414e-01 4.983463537274637582e-03
4.260026934745924336e+03 9.608186179791472492e-01 4.981256647654232206e-03
4.264286961680671993e+03 9.683831639227937771e-01 5.137021999464913904e-03
4.268551248642354039e+03 9.707311415942120325e-01 4.913304345590264154e-03
4.272819799890998183e+03 9.676009328367415341e-01 4.745288545774493591e-03
4.277092619690890388e+03 9.558028376337431853e-01 4.912531487746370565e-03
4.281369712310583054e+03 9.412122380422012213e-01 5.023720723801409181e-03
4.285651082022895025e+03 9.223209312438739316e-01 4.862570905431313345e-03
4.289936733104918858e+03 8.972886888234008484e-01 4.488705333894283701e-03
4.294226669838025373e+03 8.733057067717454602e-01 4.402656466150007934e-03
4.298520896507864563e+03 8.467122125975952152e-01 4.700694434112720650e-03
4.302819417404373780e+03 8.235424636371585505e-01 4.595550676883663165e-03
4.307122236821779552e+03 8.047720026047594510e-01 4.552699170956867047e-03
4.311429359058603040e+03 7.834582087376538162e-01 4.742297610401437213e-03
4.315740788417662770e+03 7.708409986590708529e-01 4.692131117912987093e-03
4.320056529206081905e+03 7.576211190835754339e-01 4.499589519294707081e-03
4.324376585735290064e+03 7.514984654699398137e-01 4.614929758713335467e-03
4.328700962321026054e+03 7.461442672573620483e-01 4.575469602090088267e-03
4.333029663283348782e+03 7.478987965081880240e-01 4.679817361462190219e-03
4.337362692946633615e+03 7.477836343924403328e-01 4.741172459212691405e-03
4.341700055639581478e+03 7.497274075192608134e-01 4.686341483567457028e-03
4.346041755695222491e+03 7.556389502150563375e-01 4.558824220742904373e-03
4.350387797450919606e+03 7.582639552058558774e-01 4.454606267432354751e-03
4.354738185248371337e+03 7.563589907130493506e-01 4.755499872132478920e-03
4.359092923433621763e+03 7.557788790790468392e-01 4.549130105465057014e-03
4.363452016357056891e+03 7.565612891690745023e-01 4.517806510956392727e-03
4.367815468373414660e+03 7.608731736805450785e-01 4.488190729531634296e-03
4.372183283841789489e+03 7.654203037127347287e-01 4.446742769554354324e-03
4.376555467125633186e+03 7.724399651734821237e-01 4.593332594090099481e-03
4.380932022592760404e+03 7.768075551235343879e-01 4.878837710620905453e-03
4.385312954615354101e+03 7.885320326224025678e-01 4.812969471566692220e-03
4.389698267569970994e+03 8.059041206960293469e-01 5.075224304277353021e-03
4.394087965837542470e+03 8.194906249511785257e-01 5.176434324824599233e-03
4.398482053803381859e+03 8.340273613920511364e-01 4.909590142466355688e-03
4.402880535857186260e+03 8.491639858668370566e-01 4.884888283858544733e-03
4.407283416393044718e+03 8.671736268308263273e-01 4.798597501754910122e-03
4.411690699809440048e+03 8.825476864768330154e-01 4.755494853061700139e-03
4.416102390509250654e+03 8.995636967621243318e-01 4.704265007912485780e-03
4.420518492899761441e+03 9.150198373016287245e-01 4.567333111705105045e-03
4.424939011392662906e+03 9.262649509424337735e-01 4.937704037551254865e-03
4.429363950404056595e+03 9.433983945007907712e-01 5.072719841018948767e-03
4.433793314354462382e+03 9.655515614499389221e-01 4.866856740643572647e-03
4.438227107668818462e+03 9.874960297901784756e-01 4.783068824107076546e-03
4.442665334776488635e+03 1.013593502638653776e+00 4.903194054714734955e-03
4.447108000111265937e+03 1.039333525000386338e+00 4.867938695857343574e-03
4.451555108111379013e+03 1.065125703904243437e+00 4.940764854526982428e-03
4.456006663219492111e+03 1.086472562502669437e+00 4.786629546100614960e-03
4.460462669882713271e+03 1.106463111723297699e+00 4.670599874783570339e-03
4.464923132552597053e+03 1.116922204696224830e+00 4.464749644843590479e-03
4.469388055685150903e+03 1.130462512384729390e+00 4.361326596607041986e-03
4.473857443740837880e+03 1.139854741946371375e+00 4.663263374836326865e-03
4.478331301184580298e+03 1.148443765546053541e+00 4.554957229489132661e-03
4.482809632485766087e+03 1.151864762474089643e+00 4.176100912014862367e-03
4.487292442118253348e+03 1.156294693054134681e+00 4.150653361524683262e-03
4.491779734560373072e+03 1.162268799004543274e+00 4.333579484901575220e-03
4.496271514294934605e+03 1.167236320391789262e+00 4.485646024825189898e-03
4.500767785809231100e+03 1.172646654987156145e+00 4.348144451382574514e-03
4.505268553595042249e+03 1.174182206100630843e+00 3.973415566809266296e-03
4.509773822148638828e+03 1.169785262555542271e+00 3.832023636767701007e-03
4.514283595970789065e+03 1.160447235781155051e+00 3.887172170594583535e-03
4.518797879566761367e+03 1.148889256956029836e+00 3.977238863682026199e-03
