# starting wavelength: 3707.680
# ending wavelength: 7622.310
# wav flux eflux
3.711159780275844696e+03 5.045265400615731588e-01 2.994601482866567858e-03
3.714870940056121526e+03 5.072426303643278178e-01 2.285983059910039715e-03
3.718585810996179134e+03 5.085764474396723411e-01 1.891228779783863572e-03
3.722304396807176545e+03 5.098158962753880363e-01 1.479306727066586301e-03
3.726026701203984885e+03 5.107932158959058722e-01 1.241795487071680696e-03
3.729752727905190113e+03 5.119952893202596167e-01 1.138179183348756113e-03
3.733482480633096657e+03 5.138382325605858059e-01 9.294854490372226295e-04
3.737215963113731050e+03 5.162915015385464157e-01 8.402801464768470344e-04
3.740953179076846027e+03 5.194477959378412946e-01 7.280597654059164665e-04
3.744694132255923705e+03 5.233291501029213588e-01 6.621367602524314477e-04
3.748438826388181042e+03 5.281913950122070212e-01 6.032457493949271643e-04
3.752187265214570289e+03 5.340558912397188607e-01 5.797631056720982000e-04
3.755939452479786269e+03 5.408749588744546921e-01 6.729136529851751812e-04
3.759695391932267285e+03 5.492536896741848640e-01 6.790428169923296182e-04
3.763455087324201031e+03 5.594935916530585640e-01 6.482657601432182011e-04
3.767218542411526414e+03 5.716109815557613993e-01 6.594130392158351929e-04
3.770985760953939007e+03 5.850855728086837848e-01 6.678033775749007235e-04
3.774756746714894234e+03 6.002985769325424048e-01 6.610224935428093106e-04
3.778531503461610555e+03 6.170728554600195537e-01 6.977106062306591373e-04
3.782310034965073100e+03 6.356864593077851122e-01 7.162564391154210754e-04
3.786092345000039586e+03 6.562921941350563504e-01 7.070935483345835776e-04
3.789878437345040766e+03 6.789403553205300978e-01 8.004697248100516548e-04
3.793668315782387253e+03 7.029180987052784380e-01 7.953264947939482805e-04
3.797461984098170888e+03 7.289438356395339103e-01 8.877377067931510124e-04
3.801259446082270188e+03 7.566023567416172435e-01 9.900062587216626724e-04
3.805060705528353537e+03 7.853905803035894362e-01 9.998832901945938541e-04
3.808865766233883278e+03 8.152301737619163102e-01 1.023162824944370180e-03
3.812674632000118436e+03 8.458572752342449208e-01 1.050131224508334604e-03
3.816487306632119726e+03 8.776461822944187086e-01 1.055835532501699396e-03
3.820303793938753188e+03 9.101422671394669983e-01 1.034344372283760218e-03
3.824124097732693372e+03 9.429737861745732808e-01 9.735991068427975355e-04
3.827948221830427428e+03 9.765491497484789507e-01 8.260863334882760211e-04
3.831776170052258749e+03 1.009570392595039445e+00 7.611326233943641007e-04
3.835607946222312421e+03 1.042156473235621883e+00 7.525867719624505271e-04
3.839443554168536139e+03 1.074105444635003792e+00 7.527284543337965303e-04
3.843282997722705659e+03 1.105265990218561312e+00 7.840103313718854673e-04
3.847126280720429804e+03 1.135404828867279337e+00 8.029996697411072868e-04
3.850973407001151372e+03 1.164269416157766468e+00 8.241487579905938188e-04
3.854824380408153957e+03 1.191780490090860845e+00 8.379271203825433730e-04
3.858679204788563311e+03 1.217798517625871435e+00 8.212424324325114794e-04
3.862537883993353262e+03 1.242294107333071107e+00 7.875428941562918851e-04
3.866400421877347981e+03 1.264871235925712600e+00 8.037085556887363282e-04
3.870266822299226533e+03 1.285483489157504655e+00 8.025489379928598581e-04
3.874137089121526969e+03 1.304181852400185138e+00 8.096339492953718350e-04
3.878011226210649966e+03 1.320563060596392058e+00 8.163799192497525961e-04
3.881889237436861549e+03 1.334681520596731286e+00 8.424319204080348749e-04
3.885771126674299921e+03 1.346974951633225448e+00 9.691040267007017999e-04
3.889656897800975457e+03 1.356618842671498903e+00 8.928516689942468882e-04
3.893546554698777527e+03 1.364177744594564423e+00 8.607570290865241766e-04
3.897440101253477678e+03 1.368550999179850347e+00 8.613942210743226122e-04
3.901337541354732366e+03 1.370490461247603653e+00 9.112829179735203525e-04
3.905238878896088409e+03 1.370052830764967755e+00 9.101614594188007883e-04
3.909144117774985716e+03 1.367068726872400219e+00 1.002467032890227809e-03
3.913053261892762293e+03 1.361496110914799607e+00 1.235747364953421147e-03
3.916966315154656058e+03 1.354757207620135295e+00 1.416737453012415502e-03
3.920883281469812118e+03 1.346388331201257893e+00 1.622158081817522655e-03
3.924804164751283224e+03 1.336531417915084008e+00 1.823655876679839815e-03
3.928728968916035683e+03 1.326046196144352374e+00 1.976192721103158401e-03
3.932657697884953450e+03 1.316221992391579221e+00 1.879858057239444614e-03
3.936590355582839493e+03 1.305896354157851658e+00 1.745850095614673260e-03
3.940526945938423523e+03 1.296386095745531319e+00 1.413146319801414407e-03
3.944467472884363360e+03 1.287610090501769555e+00 1.043692787331693258e-03
3.948411940357249023e+03 1.280949207385130961e+00 1.061321870323257092e-03
3.952360352297607733e+03 1.275830512208080636e+00 1.206749213166533703e-03
3.956312712649906643e+03 1.272180179129842603e+00 1.247143082001189295e-03
3.960269025362557841e+03 1.270079102749014588e+00 1.382129014123927458e-03
3.964229294387921527e+03 1.268680332816011225e+00 1.265450358731448621e-03
3.968193523682310570e+03 1.267733620174045672e+00 1.144156619384769291e-03
3.972161717205994591e+03 1.266872690018435721e+00 9.265931528210268530e-04
3.976133878923201792e+03 1.266080627204509979e+00 8.792933590623359203e-04
3.980110012802126221e+03 1.265064475842146319e+00 1.070877829229065431e-03
3.984090122814929600e+03 1.263087235983077372e+00 1.174013939335289249e-03
3.988074212937745870e+03 1.259180002370577034e+00 1.212221610374070386e-03
3.992062287150684824e+03 1.253494245095271076e+00 1.096906973773368286e-03
3.996054349437837118e+03 1.245623855512134170e+00 1.140490812860787658e-03
4.000050403787276082e+03 1.236124322105100815e+00 1.194191622290598003e-03
4.004050454191064546e+03 1.225025760539011577e+00 1.498121479466263395e-03
4.008054504645257111e+03 1.212169052089064447e+00 1.887265116910906903e-03
4.012062559149903791e+03 1.199611656862403564e+00 1.884533025292033093e-03
4.016074621709055009e+03 1.186280531790591342e+00 1.823683855914976469e-03
4.020090696330765240e+03 1.173019319948547468e+00 1.758099852543052810e-03
4.024110787027097558e+03 1.160317310943552283e+00 1.543376302554567720e-03
4.028134897814125907e+03 1.148561017507067072e+00 1.327603322240143756e-03
4.032163032711941469e+03 1.139011033734728562e+00 1.223370266039884883e-03
4.036195195744654484e+03 1.131407330020039126e+00 1.261277360558800149e-03
4.040231390940400615e+03 1.126573159966538951e+00 1.266562790228377899e-03
4.044271622331342314e+03 1.124687028117376197e+00 1.344827910485951435e-03
4.048315893953675186e+03 1.125610884232836506e+00 1.651946302043230761e-03
4.052364209847629809e+03 1.127400719161522957e+00 1.691355020149503665e-03
4.056416574057479011e+03 1.131641145710190033e+00 1.809267407949823481e-03
4.060472990631537868e+03 1.135546856409690442e+00 1.912168555057051217e-03
4.064533463622170530e+03 1.139806829711005998e+00 1.899770313008338277e-03
4.068597997085794304e+03 1.144711632607049445e+00 1.782181028605396350e-03
4.072666595082881486e+03 1.148712809671377677e+00 1.873689396120266359e-03
4.076739261677965715e+03 1.152526639649253282e+00 1.980341585069658999e-03
4.080816000939644709e+03 1.156304623068138415e+00 1.976721162403474643e-03
4.084896816940585722e+03 1.159258991326909571e+00 1.952759111728637285e-03
4.088981713757527814e+03 1.161431910592185979e+00 2.067047354387746387e-03
4.093070695471286854e+03 1.162072537193169941e+00 1.863173846425698714e-03
4.097163766166759160e+03 1.161958254393702372e+00 1.763850876449741959e-03
4.101260929932927866e+03 1.162375674978587625e+00 2.031517516109237424e-03
4.105362190862862008e+03 1.161757668336295790e+00 1.895581604604907504e-03
4.109467553053726078e+03 1.158906197800546600e+00 1.694996627828751273e-03
4.113577020606780934e+03 1.154295467976847789e+00 1.965925112420646888e-03
4.117690597627389252e+03 1.148836664672296726e+00 2.274536077732445660e-03
4.121808288225018259e+03 1.142112505269638367e+00 2.128120357964871558e-03
4.125930096513244280e+03 1.135580978650056805e+00 1.672192140511815153e-03
4.130056026609759101e+03 1.130411116208829059e+00 1.480793734388398397e-03
4.134186082636369974e+03 1.126749587297209310e+00 1.580168137765125547e-03
4.138320268719007800e+03 1.124371276151441279e+00 1.630000746832683091e-03
4.142458588987728035e+03 1.122640150709191209e+00 1.623358613461856710e-03
4.146601047576717065e+03 1.122807777842605770e+00 1.527479498191923685e-03
4.150747648624294925e+03 1.124561398548816316e+00 1.336496200884723304e-03
4.154898396272920763e+03 1.126492999163546171e+00 1.403691304884507277e-03
4.159053294669195566e+03 1.129617661537228424e+00 1.477940085890830108e-03
4.163212347963865795e+03 1.134624372486528143e+00 1.483013912051628271e-03
4.167375560311830668e+03 1.139862051400247323e+00 1.395780313249759793e-03
4.171542935872143971e+03 1.145829396272564749e+00 1.185074126533671932e-03
4.175714478808017702e+03 1.153314842009078189e+00 1.362139713785901754e-03
4.179890193286827525e+03 1.162182667386425727e+00 1.554271216942137730e-03
4.184070083480115500e+03 1.170696591495770766e+00 1.231364200678126226e-03
4.188254153563597356e+03 1.177098716168732073e+00 1.181074299572547380e-03
4.192442407717161586e+03 1.182083579607944523e+00 1.220370733157241866e-03
4.196634850124880359e+03 1.185562342761330212e+00 1.215703558644901875e-03
4.200831484975006788e+03 1.187035188402415065e+00 1.194407322727909044e-03
4.205032316459983122e+03 1.186379309360975798e+00 1.176020249281263010e-03
4.209237348776444378e+03 1.183827022803946472e+00 1.212045723966613357e-03
4.213446586125221984e+03 1.178945727935371446e+00 1.294201080240653130e-03
4.217660032711349231e+03 1.171243399219510151e+00 1.272716412578691605e-03
4.221877692744061278e+03 1.160577003757585102e+00 1.308816814050990868e-03
4.226099570436806971e+03 1.148233583500076538e+00 1.321476536679903240e-03
4.230325670007245208e+03 1.133948983447385039e+00 1.523080286165560439e-03
4.234555995677254032e+03 1.118075380851285550e+00 1.672666136667799643e-03
4.238790551672932452e+03 1.101723766417542105e+00 1.613559530770182016e-03
4.243029342224606808e+03 1.085850114769886909e+00 1.587781218391179621e-03
4.247272371566832589e+03 1.069484297149448038e+00 1.358435892707615580e-03
4.251519643938400804e+03 1.053708857490896822e+00 1.329501344829637360e-03
4.255771163582340705e+03 1.039366117332480632e+00 1.446302452514658127e-03
4.260026934745924336e+03 1.025899418903721161e+00 1.142606492838734236e-03
4.264286961680671993e+03 1.012992133065232281e+00 8.102148055825887738e-04
4.268551248642354039e+03 9.996872201457104312e-01 1.199308069675961673e-03
4.272819799890998183e+03 9.879560994496469073e-01 1.244391106337255914e-03
4.277092619690890388e+03 9.774254885561528550e-01 1.223778890470709124e-03
4.281369712310583054e+03 9.681777139103189267e-01 1.236173351146757637e-03
4.285651082022895025e+03 9.598884698092494672e-01 1.223896222281422360e-03
4.289936733104918858e+03 9.528087917586124389e-01 1.212381399070332558e-03
4.294226669838025373e+03 9.475287656724681318e-01 1.176647075690334058e-03
4.298520896507864563e+03 9.433681623064666955e-01 1.194662859891870363e-03
4.302819417404373780e+03 9.407142537753991895e-01 1.214602261467040249e-03
4.307122236821779552e+03 9.395885496302226469e-01 1.242861476185008578e-03
4.311429359058603040e+03 9.395755690225087164e-01 1.215215691163363046e-03
4.315740788417662770e+03 9.408182022568294389e-01 1.456972254615982766e-03
4.320056529206081905e+03 9.424968722040297786e-01 1.638672338392453904e-03
4.324376585735290064e+03 9.443509453069158788e-01 1.668335645262359127e-03
4.328700962321026054e+03 9.461070018888756428e-01 1.642489986175201845e-03
4.333029663283348782e+03 9.479520263682751358e-01 1.519814510509886075e-03
4.337362692946633615e+03 9.496129950174438950e-01 1.385221496293753771e-03
4.341700055639581478e+03 9.507033377191321799e-01 1.496596458882214556e-03
4.346041755695222491e+03 9.514919815014254434e-01 1.679107153560454929e-03
4.350387797450919606e+03 9.519090294586176615e-01 1.368536062230780049e-03
4.354738185248371337e+03 9.535857594518871716e-01 1.072392008449551092e-03
4.359092923433621763e+03 9.566480312421253851e-01 1.007571055362356050e-03
4.363452016357056891e+03 9.615665999905596006e-01 1.242843386158401899e-03
4.367815468373414660e+03 9.673816105527355269e-01 1.198959491742563645e-03
4.372183283841789489e+03 9.744939647691647222e-01 1.174648633410522742e-03
4.376555467125633186e+03 9.833217965880773903e-01 1.197654876565571900e-03
4.380932022592760404e+03 9.935512843299291186e-01 1.339862263309909941e-03
4.385312954615354101e+03 1.005612572436907604e+00 1.310833406184303170e-03
4.389698267569970994e+03 1.019266787216553505e+00 1.094121206915345734e-03
4.394087965837542470e+03 1.035301856893008132e+00 1.342449860753292543e-03
4.398482053803381859e+03 1.053157312777334598e+00 1.462712570287004162e-03
4.402880535857186260e+03 1.071892570914350085e+00 1.438051962037554306e-03
4.407283416393044718e+03 1.091675049687062415e+00 1.399383637908599128e-03
4.411690699809440048e+03 1.112748815298615135e+00 1.336484205421530460e-03
4.416102390509250654e+03 1.134383412856116768e+00 1.218762001722761661e-03
4.420518492899761441e+03 1.156365139114332807e+00 1.239757939939417717e-03
4.424939011392662906e+03 1.178353087751308204e+00 1.445167385148239279e-03
4.429363950404056595e+03 1.200671469623129983e+00 1.477784242679480459e-03
4.433793314354462382e+03 1.224135346818727044e+00 1.097342119620490445e-03
4.438227107668818462e+03 1.249098149896119336e+00 8.600731148990366183e-04
4.442665334776488635e+03 1.275785747946065474e+00 1.142468342646361587e-03
4.447108000111265937e+03 1.303459482219302190e+00 1.169996981684523138e-03
4.451555108111379013e+03 1.330924190659441342e+00 1.078336564916294567e-03
4.456006663219492111e+03 1.358143527285808672e+00 9.326249398228598966e-04
4.460462669882713271e+03 1.384260720068558159e+00 9.368403376205208235e-04
4.464923132552597053e+03 1.409387587403779563e+00 9.327941712796197467e-04
4.469388055685150903e+03 1.433196613037945655e+00 9.994673259123944883e-04
4.473857443740837880e+03 1.455030656706894021e+00 1.070661226325562120e-03
4.478331301184580298e+03 1.474830952215412161e+00 1.006815250988270845e-03
4.482809632485766087e+03 1.491627662545005784e+00 1.001741688532537845e-03
4.487292442118253348e+03 1.505233545794582461e+00 9.881442734324288706e-04
4.491779734560373072e+03 1.516094366830797568e+00 1.004650568331690247e-03
4.496271514294934605e+03 1.524950957065969392e+00 9.566386755242722601e-04
4.500767785809231100e+03 1.531309110387570893e+00 1.018343869217789221e-03
4.505268553595042249e+03 1.535572214786631973e+00 1.192953893073135695e-03
4.509773822148638828e+03 1.537895772113948345e+00 1.351757946520960223e-03
4.514283595970789065e+03 1.539190836377039018e+00 1.201747772186900981e-03
4.518797879566761367e+03 1.541002198117530808e+00 8.351270208802755515e-04
4.523316677446328868e+03 1.543603862723627707e+00 6.872592660177988949e-04
4.527839994123776705e+03 1.547263522407813285e+00 8.119923952546526710e-04
4.532367834117902021e+03 1.551641958496146501e+00 8.799429685514110425e-04
4.536900201952022144e+03 1.556271904159989949e+00 8.356676389060044979e-04
4.541437102153975502e+03 1.561085812145815321e+00 7.405972853395319071e-04
4.545978539256130716e+03 1.565343391605105827e+00 7.334098315562965565e-04
4.550524517795388419e+03 1.569381535636694025e+00 6.719190627595548115e-04
4.555075042313184895e+03 1.572741081492244897e+00 6.127277232098943998e-04
4.559630117355500261e+03 1.574790685369509280e+00 5.858349878955350452e-04
4.564189747472856652e+03 1.575110778572146764e+00 6.237905998791641810e-04
4.568753937220330954e+03 1.573954759969571349e+00 6.178603123224273843e-04
4.573322691157552981e+03 1.570957498584203638e+00 5.838480437549456144e-04
4.577896013848711846e+03 1.566376764296656843e+00 5.501860485228221879e-04
4.582473909862562323e+03 1.560345500139081132e+00 5.542880455603178911e-04
4.587056383772426670e+03 1.552539245672345247e+00 5.288966028523605332e-04
4.591643440156200086e+03 1.542423111632819754e+00 4.864114233469333712e-04
4.596235083596357981e+03 1.529897118918011278e+00 5.617602345659201968e-04
4.600831318679955984e+03 1.515265978728749907e+00 5.190722707005008402e-04
4.605432149998637215e+03 1.499233794555714372e+00 5.080238540674204351e-04
4.610037582148637739e+03 1.481709225790218687e+00 5.284765878698466065e-04
4.614647619730787483e+03 1.462440904536447039e+00 5.293802348707720047e-04
4.619262267350520233e+03 1.441610015793376443e+00 5.244883199533914011e-04
4.623881529617872729e+03 1.419202909763620069e+00 5.190106976312324925e-04
4.628505411147491941e+03 1.395422254055341593e+00 5.163137943984592469e-04
4.633133916558640522e+03 1.370560855288695867e+00 6.105656569511913427e-04
4.637767050475200449e+03 1.344504650749795749e+00 6.128830334649297681e-04
4.642404817525677572e+03 1.317581788500227225e+00 5.324836681745979440e-04
4.647047222343205249e+03 1.289400014741998168e+00 5.234866191906560867e-04
4.651694269565549803e+03 1.260221024057346595e+00 6.350796307190731968e-04
4.656345963835116891e+03 1.230979131320054432e+00 6.594334116060614768e-04
4.661002309798953320e+03 1.201756110785951570e+00 5.544114767882888511e-04
4.665663312108753416e+03 1.173303084945893859e+00 5.210591425160029455e-04
4.670328975420864481e+03 1.145628298304869119e+00 6.038137101805349585e-04
4.674999304396286789e+03 1.119724253003938852e+00 6.377409750371951106e-04
4.679674303700684504e+03 1.095536635895445698e+00 6.353728163639337434e-04
4.684353978004386590e+03 1.073451616617793425e+00 6.428826464728666689e-04
4.689038331982392265e+03 1.053870184948953792e+00 7.673097294513494572e-04
4.693727370314376458e+03 1.037723878940410183e+00 7.373457566769706832e-04
4.698421097684692540e+03 1.025103650909171105e+00 7.486090006227876436e-04
4.703119518782378691e+03 1.015350346910633750e+00 7.652672780707099349e-04
4.707822638301162442e+03 1.008461658473909672e+00 9.685637908838260705e-04
4.712530460939465229e+03 1.003853950819977525e+00 1.325358602071782842e-03
4.717242991400406027e+03 1.000629673983743251e+00 1.590624784267454699e-03
4.721960234391808626e+03 9.984541539393245735e-01 1.706410270749857648e-03
4.726682194626201635e+03 9.954302846628938495e-01 1.415147068632236025e-03
4.731408876820829391e+03 9.912397863033520773e-01 9.386898585103133335e-04
4.736140285697651962e+03 9.850626780338030963e-01 1.031571887740412872e-03
4.740876425983350600e+03 9.772838646228286796e-01 1.255580368489871710e-03
4.745617302409335934e+03 9.684341429999726580e-01 1.355636859538963566e-03
4.750362919711747054e+03 9.590509678358175583e-01 1.303051027910781057e-03
4.755113282631459697e+03 9.496439963766167836e-01 1.238442088546542466e-03
4.759868395914093526e+03 9.408121947621685965e-01 8.705513729426505101e-04
4.764628264310008490e+03 9.340821590776018368e-01 6.890524850565235950e-04
4.769392892574320285e+03 9.298299238147628154e-01 6.329339928871117408e-04
4.774162285466896719e+03 9.280035257828060935e-01 7.559451519581599768e-04
4.778936447752364984e+03 9.292217817336113628e-01 6.633129350465178558e-04
4.783715384200118933e+03 9.338424571257692985e-01 7.094091341625379963e-04
4.788499099584319993e+03 9.412907196093843742e-01 8.986224112668563619e-04
4.793287598683906253e+03 9.504681456080465995e-01 1.124945309332950772e-03
4.798080886282591564e+03 9.610542023926053057e-01 1.387284046340422298e-03
4.802878967168876443e+03 9.721179609232556418e-01 1.586515049081405537e-03
4.807681846136046261e+03 9.825344470704546751e-01 1.537815853887415521e-03
4.812489527982183972e+03 9.916991154091794325e-01 1.031987011670826033e-03
4.817302017510168298e+03 9.979830370793272287e-01 7.374197129122324031e-04
4.822119319527679181e+03 1.001245169826874282e+00 7.459407963430942810e-04
4.826941438847208701e+03 1.001239039592833446e+00 8.567468961037870119e-04
4.831768380286057436e+03 9.982233557000222968e-01 8.392963933835529550e-04
