# starting wavelength: 3255.890
# ending wavelength: 9943.900
# wav flux eflux
3.258964131153567905e+03 2.279055419046214503e-01 1.274569605720318874e-03
3.262223095284722604e+03 2.308420084795381744e-01 1.244813602649866855e-03
3.265485318380008266e+03 2.337416430185561833e-01 9.110772190909273037e-04
3.268750803698389518e+03 2.365882134306753759e-01 7.132407796930502171e-04
3.272019554502088795e+03 2.394762112051058156e-01 5.625442577060024794e-04
3.275291574056592253e+03 2.423994169105616048e-01 4.462286602102865708e-04
3.278566865630649772e+03 2.453461658996541062e-01 3.573185760607737590e-04
3.281845432496281319e+03 2.482149499931939618e-01 3.161990065087276654e-04
3.285127277928778767e+03 2.508995386023205043e-01 3.054793007672315891e-04
3.288412405206708627e+03 2.533475900273285952e-01 3.125609931722629934e-04
3.291700817611916591e+03 2.555942722937887823e-01 2.714466949927271081e-04
3.294992518429529355e+03 2.576648393396667736e-01 2.434645597815612318e-04
3.298287510947960072e+03 2.596128944523680149e-01 2.184411332110980678e-04
3.301585798458909267e+03 2.614820504789887035e-01 2.074827948682793951e-04
3.304887384257369376e+03 2.631945093123919666e-01 1.925165282553346826e-04
3.308192271641627485e+03 2.647849940526852963e-01 1.842575666047534396e-04
3.311500463913270323e+03 2.662635443287297843e-01 1.763538548161194157e-04
3.314811964377184722e+03 2.677417116134053754e-01 1.745002912677311928e-04
3.318126776341563072e+03 2.691536899628786950e-01 1.713041760383625150e-04
3.321444903117905596e+03 2.704633430914050729e-01 1.690580099267466601e-04
3.324766348021024896e+03 2.717198196295954604e-01 1.977227807392367448e-04
3.328091114369046863e+03 2.730673698240841940e-01 2.243324807990738868e-04
3.331419205483417045e+03 2.745322621870228685e-01 2.580551014482023050e-04
3.334750624688901553e+03 2.761433332244701555e-01 3.097474868298261000e-04
3.338085375313591612e+03 2.779849987973316283e-01 3.555090944503975906e-04
3.341423460688906289e+03 2.800245348268470269e-01 3.678921714974462700e-04
3.344764884149596128e+03 2.825814015967591519e-01 3.772030175455056843e-04
3.348109649033746791e+03 2.856077012273194327e-01 3.761034153171674576e-04
3.351457758682781787e+03 2.892165596843202513e-01 3.540284994347546129e-04
3.354809216441465651e+03 2.934067319519254591e-01 3.386462096114352610e-04
3.358164025657908041e+03 2.982410663136702555e-01 3.219770412526980186e-04
3.361522189683567376e+03 3.037240312012127186e-01 3.094371303994424092e-04
3.364883711873251741e+03 3.099250336077997159e-01 3.010269095226475455e-04
3.368248595585126168e+03 3.168533691397071861e-01 2.889693462460104102e-04
3.371616844180712633e+03 3.245328260669617104e-01 2.653950322911173467e-04
3.374988461024894150e+03 3.330535333862669201e-01 2.545464789179778379e-04
3.378363449485920228e+03 3.424207671283621690e-01 2.469886873537845812e-04
3.381741812935407324e+03 3.526247450993663657e-01 2.390941353607486497e-04
3.385123554748343849e+03 3.637422215122653180e-01 2.384556705461390879e-04
3.388508678303093347e+03 3.756454084226591994e-01 2.384404872297813695e-04
3.391897186981397681e+03 3.884015710037013180e-01 2.288265458215315348e-04
3.395289084168380214e+03 4.019155313713380639e-01 2.159880010087318549e-04
3.398684373252549449e+03 4.161601253468594774e-01 2.049424887821563006e-04
3.402083057625803121e+03 4.310275006159542399e-01 2.108401353403979131e-04
3.405485140683430018e+03 4.464493635597506782e-01 2.575091078671333609e-04
3.408890625824114522e+03 4.624071821331140475e-01 3.652775857579428618e-04
3.412299516449939802e+03 4.788189837992267717e-01 4.851087553271779106e-04
3.415711815966390986e+03 4.954970992214490777e-01 6.155600374187069354e-04
3.419127527782358356e+03 5.122483847582959271e-01 6.610062699661962147e-04
3.422546655310141887e+03 5.289752976967180276e-01 6.641004734408691244e-04
3.425969201965453522e+03 5.455550633647356928e-01 6.583795497265382225e-04
3.429395171167419903e+03 5.618923470662522401e-01 6.134916794530120539e-04
3.432824566338588284e+03 5.779335939460320537e-01 5.168044914678040017e-04
3.436257390904928343e+03 5.934639758031953205e-01 4.347537514830945729e-04
3.439693648295834464e+03 6.084171201361482373e-01 3.936548233854632274e-04
3.443133341944131189e+03 6.227318168002954346e-01 3.880652325192975906e-04
3.446576475286076402e+03 6.365299583301562425e-01 3.845072439567023023e-04
3.450023051761363604e+03 6.494721290841514172e-01 4.029235022805380891e-04
3.453473074813126004e+03 6.616254465927472461e-01 4.127680756214416606e-04
3.456926547887940615e+03 6.730142495329778374e-01 4.084278760213292054e-04
3.460383474435829612e+03 6.836806576072871344e-01 3.822360672438119633e-04
3.463843857910266706e+03 6.936597704472768910e-01 3.450862997876317671e-04
3.467307701768178049e+03 7.029948209123313418e-01 3.112449575366092649e-04
3.470775009469947236e+03 7.116777903667774741e-01 3.060753208464184975e-04
3.474245784479418489e+03 7.198003123661540492e-01 3.059969549741301583e-04
3.477720030263898934e+03 7.272836411655650979e-01 3.036095568016805948e-04
3.481197750294164052e+03 7.341651105662830856e-01 3.259323206486885592e-04
3.484678948044459503e+03 7.405682344831754360e-01 3.617239460264052632e-04
3.488163626992504760e+03 7.466018070726322398e-01 3.928922827549174534e-04
3.491651790619498570e+03 7.523102236795072839e-01 4.277871501370009784e-04
3.495143442410119405e+03 7.577682062169922572e-01 4.619303743101627166e-04
3.498638585852530468e+03 7.629791711977876867e-01 5.086835489652035986e-04
3.502137224438384237e+03 7.681080153102115560e-01 5.154653278041511182e-04
3.505639361662823831e+03 7.731522372454563419e-01 4.873980396334936420e-04
3.509145001024487556e+03 7.782471287398377013e-01 4.373296605728536597e-04
3.512654146025513455e+03 7.833271313828341631e-01 3.935091152683984532e-04
3.516166800171540217e+03 7.886197335258146035e-01 3.642960331316694015e-04
3.519682966971712631e+03 7.942575454870229867e-01 4.642940692877201166e-04
3.523202649938685681e+03 8.001919936524799493e-01 5.619000294427874522e-04
3.526725852588625457e+03 8.063708756555754142e-01 6.167480511853243958e-04
3.530252578441215064e+03 8.125888561151697331e-01 5.753564258830943731e-04
3.533782831019657806e+03 8.188859685697638113e-01 5.885955198405891115e-04
3.537316613850678550e+03 8.256378006663792624e-01 6.267437429298387689e-04
3.540853930464530094e+03 8.324831335255287179e-01 7.303866401756443439e-04
3.544394784394995895e+03 8.395170449933234691e-01 9.527214660017637761e-04
3.547939179179392340e+03 8.470876132939916259e-01 1.067337247460136383e-03
3.551487118358572843e+03 8.552148049401255836e-01 1.136442095414253632e-03
3.555038605476932389e+03 8.640604161668976602e-01 1.113831223632123909e-03
3.558593644082410719e+03 8.736509183304745907e-01 1.034138073092485607e-03
3.562152237726494150e+03 8.840282155145569032e-01 9.075315118288164668e-04
3.565714389964221937e+03 8.952392712639439809e-01 8.069217501683131509e-04
3.569280104354187188e+03 9.073156753321005574e-01 8.785226587752049216e-04
3.572849384458542772e+03 9.201171809250061617e-01 1.106799420675026605e-03
3.576422233843002232e+03 9.334160349553956015e-01 1.359510519180968371e-03
3.579998656076846601e+03 9.461493785283366931e-01 1.361064212384023499e-03
3.583578654732924406e+03 9.594684681113887503e-01 1.529126783049006072e-03
3.587162233387658489e+03 9.721928747660499859e-01 1.563598955209724063e-03
3.590749395621047370e+03 9.838451058790128601e-01 1.475086907919702980e-03
3.594340145016669794e+03 9.941961552661736645e-01 1.276910991362783122e-03
3.597934485161687462e+03 1.002817368670823051e+00 9.864059806246711862e-04
3.601532419646850485e+03 1.009381610904886539e+00 7.217727025676816312e-04
3.605133952066498296e+03 1.013808305891439332e+00 5.758313949051750312e-04
3.608739086018566013e+03 1.015411326602633890e+00 6.343899975429247422e-04
3.612347825104585809e+03 1.014567986384053100e+00 6.368753050280101915e-04
3.615960172929691907e+03 1.011305139443791523e+00 5.867060456064112153e-04
3.619576133102622407e+03 1.005721241368033425e+00 4.976442805472814724e-04
3.623195709235726554e+03 9.979939535098828474e-01 4.582738114540240728e-04
3.626818904944963379e+03 9.880942413358720922e-01 4.391095092401116947e-04
3.630445723849909427e+03 9.761917693047327260e-01 4.640152801183050385e-04
3.634076169573760581e+03 9.623456189048938958e-01 4.544307772876640542e-04
3.637710245743335690e+03 9.471070854916084913e-01 4.839442356984022427e-04
3.641347955989080219e+03 9.306056946801242180e-01 6.180407589603013289e-04
3.644989303945070333e+03 9.129937238794372245e-01 7.791037650196993474e-04
3.648634293249016537e+03 8.950158172287969727e-01 7.502692072222697482e-04
3.652282927542266862e+03 8.763189084657089234e-01 8.716947933722890953e-04
3.655935210469810499e+03 8.574764190399125630e-01 8.895134455825842636e-04
3.659591145680281443e+03 8.388657687718926725e-01 8.427689377602971821e-04
3.663250736825963031e+03 8.205365408416699369e-01 7.429632382117303110e-04
3.666913987562790226e+03 8.027601694610126959e-01 6.468112703112162930e-04
3.670580901550354156e+03 7.856220244794700491e-01 6.747923942496957287e-04
3.674251482451905758e+03 7.696915523299956430e-01 8.379193075938984976e-04
3.677925733934358959e+03 7.546575186867768847e-01 9.622392065054531868e-04
3.681603659668294313e+03 7.404035048026565979e-01 9.468774375300849106e-04
3.685285263327964003e+03 7.266783422099413192e-01 8.271327977122525446e-04
3.688970548591293209e+03 7.133628272199833420e-01 6.895107700109882973e-04
3.692659519139885560e+03 7.005546175898935690e-01 5.942976739771764017e-04
3.696352178659026777e+03 6.881067083797282047e-01 6.720048968902843974e-04
3.700048530837686940e+03 6.762734810054644718e-01 7.257797300432131289e-04
3.703748579368525952e+03 6.650162515269196772e-01 7.240564374554015956e-04
3.707452327947895355e+03 6.544616819717163914e-01 6.768383077075453436e-04
3.711159780275844696e+03 6.447407330337067144e-01 6.221771951726641795e-04
3.714870940056121526e+03 6.357003055778119860e-01 5.824096186681896898e-04
3.718585810996179134e+03 6.277061749793044765e-01 5.831066783148599122e-04
3.722304396807176545e+03 6.207015731330922659e-01 6.340376362058205029e-04
3.726026701203984885e+03 6.147164343731296166e-01 7.306976252781996473e-04
3.729752727905190113e+03 6.096886313639943156e-01 7.824869854912270238e-04
3.733482480633096657e+03 6.056201621613048758e-01 7.575213668879854194e-04
3.737215963113731050e+03 6.028178660135220523e-01 4.901220629365454686e-04
3.740953179076846027e+03 6.002119928237035218e-01 4.031098426976570089e-04
3.744694132255923705e+03 5.982200669537810489e-01 4.089612621116880974e-04
3.748438826388181042e+03 5.970547080661781081e-01 4.857174155883477911e-04
3.752187265214570289e+03 5.967861065021388134e-01 6.329736604288855152e-04
3.755939452479786269e+03 5.975974511521832122e-01 7.251698374496677807e-04
3.759695391932267285e+03 6.000334713200311532e-01 6.889924978330504244e-04
3.763455087324201031e+03 6.044760394689043803e-01 5.911741901001830741e-04
3.767218542411526414e+03 6.112842423537888648e-01 5.180597938322878491e-04
3.770985760953939007e+03 6.208896902858723754e-01 4.484284997684792693e-04
3.774756746714894234e+03 6.335295808579406440e-01 3.924264201696318617e-04
3.778531503461610555e+03 6.491817215728181711e-01 3.503025159263449756e-04
3.782310034965073100e+03 6.678981914460691005e-01 3.259867601874737934e-04
3.786092345000039586e+03 6.899918990444721123e-01 3.697551802135512077e-04
3.789878437345040766e+03 7.151940465991368789e-01 3.768472163433690876e-04
3.793668315782387253e+03 7.437259662190547349e-01 3.615787386909694360e-04
3.797461984098170888e+03 7.754076180343258962e-01 3.744139682672351977e-04
3.801259446082270188e+03 8.101244346789971962e-01 2.949252659656198343e-04
3.805060705528353537e+03 8.470804347482255858e-01 2.567085066583919134e-04
3.808865766233883278e+03 8.862312985334637183e-01 2.419773225053797872e-04
3.812674632000118436e+03 9.274125535454805780e-01 2.602990538770744828e-04
3.816487306632119726e+03 9.703650809909595276e-01 2.801380585231565156e-04
3.820303793938753188e+03 1.014977213771656395e+00 2.737529723944290196e-04
3.824124097732693372e+03 1.061096537042585775e+00 2.818685901768665301e-04
3.827948221830427428e+03 1.108283102841147727e+00 2.924369889850864015e-04
3.831776170052258749e+03 1.156252608406784788e+00 3.397331381255811714e-04
3.835607946222312421e+03 1.204652277882288791e+00 3.697533391232675623e-04
3.839443554168536139e+03 1.252986115856769889e+00 4.151313428071553365e-04
3.843282997722705659e+03 1.301067195827283252e+00 6.164166080486493558e-04
3.847126280720429804e+03 1.348000139545928899e+00 5.777452002623187236e-04
3.850973407001151372e+03 1.393413594551813572e+00 5.487653971938883431e-04
3.854824380408153957e+03 1.437022149016987216e+00 5.213713705001794384e-04
3.858679204788563311e+03 1.478576062948223857e+00 4.879514539565220355e-04
3.862537883993353262e+03 1.517769350329397859e+00 4.673020415598702973e-04
3.866400421877347981e+03 1.554239759796718134e+00 4.985066486164740213e-04
3.870266822299226533e+03 1.587717754891576849e+00 4.336727399355129985e-04
3.874137089121526969e+03 1.618247222067039859e+00 4.066778653860224271e-04
3.878011226210649966e+03 1.645964400587421661e+00 4.823747347744422858e-04
3.881889237436861549e+03 1.670470576522411044e+00 4.794358371686930991e-04
3.885771126674299921e+03 1.691675955762770300e+00 4.734432746060455717e-04
3.889656897800975457e+03 1.709572490643215037e+00 6.111235405160616880e-04
3.893546554698777527e+03 1.724413495353574799e+00 8.165748109917940435e-04
3.897440101253477678e+03 1.736552068787783565e+00 9.629784064571517577e-04
3.901337541354732366e+03 1.746608920669315168e+00 9.237699333067047724e-04
3.905238878896088409e+03 1.754843584479140572e+00 8.895968940080954028e-04
3.909144117774985716e+03 1.761041451931665502e+00 8.767630952386958575e-04
3.913053261892762293e+03 1.765567227439904796e+00 1.031430924087377863e-03
3.916966315154656058e+03 1.768187042908435425e+00 1.159643031147260250e-03
3.920883281469812118e+03 1.768678876699038893e+00 1.185941818132568888e-03
3.924804164751283224e+03 1.768007641763610138e+00 9.375396610754241486e-04
3.928728968916035683e+03 1.764936763670273967e+00 7.848449860059968303e-04
3.932657697884953450e+03 1.759560087316909271e+00 9.671077660031621951e-04
3.936590355582839493e+03 1.752427920717989362e+00 1.186408853741305206e-03
3.940526945938423523e+03 1.743842110092767905e+00 1.247963532946448845e-03
3.944467472884363360e+03 1.734359614898613344e+00 1.088639009855727315e-03
3.948411940357249023e+03 1.724350755326534701e+00 8.726690811097549422e-04
3.952360352297607733e+03 1.714129529304581734e+00 7.877128496571291416e-04
3.956312712649906643e+03 1.704014041988667127e+00 8.433075399262952507e-04
3.960269025362557841e+03 1.693898471718156218e+00 8.257773544432030644e-04
3.964229294387921527e+03 1.683640794488862502e+00 6.935667427949756539e-04
3.968193523682310570e+03 1.673037526638330608e+00 6.010337548995368191e-04
3.972161717205994591e+03 1.661878465788947601e+00 5.810905726789336069e-04
3.976133878923201792e+03 1.649944051608527307e+00 5.835155997652875098e-04
3.980110012802126221e+03 1.637250838661633789e+00 6.371005259556411634e-04
3.984090122814929600e+03 1.623465646950724262e+00 7.059718045353140280e-04
3.988074212937745870e+03 1.608335021803751097e+00 7.957681359740531720e-04
3.992062287150684824e+03 1.592005878018760923e+00 8.765752446620039698e-04
3.996054349437837118e+03 1.574082229500143537e+00 8.420422457270515396e-04
4.000050403787276082e+03 1.554489572806792674e+00 6.192999681521550379e-04
4.004050454191064546e+03 1.532822299615528516e+00 3.668530440097403432e-04
4.008054504645257111e+03 1.508983028212847133e+00 6.028112078066963017e-04
4.012062559149903791e+03 1.483777585492362716e+00 8.446356218899908315e-04
4.016074621709055009e+03 1.457923209807481024e+00 8.614403482203314682e-04
4.020090696330765240e+03 1.432439740749200441e+00 7.121941023166163121e-04
4.024110787027097558e+03 1.407901944442886188e+00 5.515899138714511771e-04
4.028134897814125907e+03 1.385118077889646360e+00 4.753656594336504258e-04
4.032163032711941469e+03 1.364602620186298187e+00 5.496162808070113827e-04
4.036195195744654484e+03 1.347218189021516910e+00 5.887256515373300676e-04
4.040231390940400615e+03 1.333275974073894421e+00 6.012585100160667282e-04
4.044271622331342314e+03 1.323519716759207876e+00 5.266846189438040065e-04
4.048315893953675186e+03 1.317897869639299335e+00 5.239295543749848466e-04
4.052364209847629809e+03 1.316343949960858906e+00 6.299422757978634770e-04
4.056416574057479011e+03 1.318379379451690481e+00 7.529547933377386164e-04
4.060472990631537868e+03 1.323395559525058163e+00 8.997780114610143785e-04
4.064533463622170530e+03 1.330854819382332632e+00 1.106633143933811797e-03
4.068597997085794304e+03 1.339911131824521595e+00 1.192831648526105097e-03
4.072666595082881486e+03 1.349569062885413118e+00 1.093534029193653310e-03
4.076739261677965715e+03 1.358970298613832117e+00 7.345288609294053743e-04
4.080816000939644709e+03 1.366917730155851940e+00 4.764915536713710143e-04
4.084896816940585722e+03 1.373196929792592114e+00 5.100745890890673578e-04
4.088981713757527814e+03 1.377555922880284944e+00 5.557119794515723299e-04
4.093070695471286854e+03 1.380168081905957189e+00 5.035192516237642661e-04
4.097163766166759160e+03 1.381337638856674044e+00 4.671887299050835312e-04
4.101260929932927866e+03 1.380893349694101824e+00 5.158115109931534154e-04
4.105362190862862008e+03 1.379313908993211824e+00 6.292563859128173483e-04
4.109467553053726078e+03 1.376937597658991708e+00 6.388681795726653409e-04
4.113577020606780934e+03 1.374441255086861213e+00 5.989850606134242313e-04
4.117690597627389252e+03 1.372019696147121826e+00 4.631699376381686966e-04
4.121808288225018259e+03 1.370280143834639919e+00 4.790553346799498102e-04
4.125930096513244280e+03 1.369005498815596855e+00 5.120180717653584563e-04
4.130056026609759101e+03 1.368271655204801984e+00 5.160096050814719053e-04
4.134186082636369974e+03 1.368041412078284669e+00 5.172965344934300812e-04
4.138320268719007800e+03 1.368425760440629357e+00 5.165218015953517653e-04
4.142458588987728035e+03 1.369676979498524627e+00 5.088935135633635559e-04
4.146601047576717065e+03 1.371607300214215730e+00 4.716923703770965694e-04
4.150747648624294925e+03 1.374113193164195224e+00 4.375632053792402783e-04
4.154898396272920763e+03 1.377089810608006504e+00 5.003794092792500457e-04
4.159053294669195566e+03 1.380406307204126826e+00 4.658824519130310674e-04
4.163212347963865795e+03 1.384525753798946379e+00 3.667646986262270196e-04
4.167375560311830668e+03 1.389409052402329037e+00 3.500574197610242517e-04
4.171542935872143971e+03 1.395021276526183351e+00 4.321384117893516835e-04
4.175714478808017702e+03 1.401165621567747488e+00 3.844327237903177549e-04
4.179890193286827525e+03 1.407200027561180011e+00 3.375602537412085869e-04
4.184070083480115500e+03 1.413142472041949205e+00 3.134670650943053249e-04
4.188254153563597356e+03 1.418726970853113389e+00 3.081386830494565240e-04
4.192442407717161586e+03 1.423788776558682301e+00 3.057062408841563616e-04
4.196634850124880359e+03 1.428151116877640181e+00 3.029805370799478468e-04
4.200831484975006788e+03 1.431635472149138222e+00 3.158793422404853300e-04
4.205032316459983122e+03 1.434167881033449721e+00 3.202426563860506434e-04
4.209237348776444378e+03 1.435494748516572550e+00 3.115402492859148972e-04
4.213446586125221984e+03 1.435700669208563651e+00 2.757559279384931127e-04
4.217660032711349231e+03 1.434652498429447975e+00 2.618493110008889750e-04
4.221877692744061278e+03 1.432506551372582315e+00 3.285943651275359317e-04
4.226099570436806971e+03 1.428835276826140976e+00 2.980539371730913560e-04
4.230325670007245208e+03 1.423364668987376680e+00 2.500549509588903432e-04
4.234555995677254032e+03 1.416039038830997354e+00 2.471793577868955285e-04
4.238790551672932452e+03 1.406962512295945045e+00 2.898848524155664278e-04
4.243029342224606808e+03 1.396072824403496337e+00 3.005260376711698018e-04
