# starting wavelength: 3756.170
# ending wavelength: 7652.850
# wav flux eflux
3.759695391932267285e+03 7.099296309157101525e-01 1.953332457890198659e-02
3.763455087324201031e+03 7.106412495697399523e-01 1.679995806098293770e-02
3.767218542411526414e+03 7.097448452082386616e-01 1.604089523984941063e-02
3.770985760953939007e+03 7.136287302209474159e-01 1.303105587968561054e-02
3.774756746714894234e+03 7.190826245545085538e-01 1.076020766943642203e-02
3.778531503461610555e+03 7.261410805322382478e-01 8.798719862944981082e-03
3.782310034965073100e+03 7.348394690003092755e-01 8.187272623236676455e-03
3.786092345000039586e+03 7.448624442998996731e-01 7.229096028163252072e-03
3.789878437345040766e+03 7.542004524468977067e-01 6.456617757344131417e-03
3.793668315782387253e+03 7.644995220231853850e-01 5.863420967870977205e-03
3.797461984098170888e+03 7.757714924300259662e-01 5.541069499743559931e-03
3.801259446082270188e+03 7.851494529143153711e-01 5.194059378843402831e-03
3.805060705528353537e+03 7.925932609612366120e-01 5.225715750673904682e-03
3.808865766233883278e+03 8.003272846739946100e-01 5.205345154552796887e-03
3.812674632000118436e+03 8.071695870385420246e-01 5.591134063315710521e-03
3.816487306632119726e+03 8.179491524114895773e-01 5.712855978297027779e-03
3.820303793938753188e+03 8.264761031130719582e-01 6.406502658199317649e-03
3.824124097732693372e+03 8.364473016699012220e-01 6.768138482526464030e-03
3.827948221830427428e+03 8.493049079454487726e-01 6.654269113760193088e-03
3.831776170052258749e+03 8.643763796518219023e-01 6.560739473744876989e-03
3.835607946222312421e+03 8.805606281763251886e-01 6.715450885609231327e-03
3.839443554168536139e+03 8.981131773402541985e-01 6.710545226789766705e-03
3.843282997722705659e+03 9.178348717262662104e-01 7.087845129793972181e-03
3.847126280720429804e+03 9.361642147351877385e-01 7.003135736768028273e-03
3.850973407001151372e+03 9.545565438265731784e-01 6.834368775248254868e-03
3.854824380408153957e+03 9.742827944781772276e-01 7.045645089236165885e-03
3.858679204788563311e+03 9.986479616924931468e-01 7.013261326238382463e-03
3.862537883993353262e+03 1.022746687590664116e+00 6.693844196424818260e-03
3.866400421877347981e+03 1.046308002048061958e+00 6.545460849025707718e-03
3.870266822299226533e+03 1.069789483235798366e+00 6.678875130752891937e-03
3.874137089121526969e+03 1.096764369994390531e+00 6.551992880130489728e-03
3.878011226210649966e+03 1.122650768417132294e+00 6.470705860620342559e-03
3.881889237436861549e+03 1.145550329324470207e+00 6.567720689912334708e-03
3.885771126674299921e+03 1.167897638058927878e+00 6.357054184480796961e-03
3.889656897800975457e+03 1.189915269402606501e+00 6.216082042108280782e-03
3.893546554698777527e+03 1.211924113793718005e+00 6.167742170950855397e-03
3.897440101253477678e+03 1.232264919156267791e+00 6.265124930472554428e-03
3.901337541354732366e+03 1.253507084674072347e+00 6.502303994615390124e-03
3.905238878896088409e+03 1.271862615934052032e+00 6.476985646599734033e-03
3.909144117774985716e+03 1.291442433837926007e+00 6.902361887790525209e-03
3.913053261892762293e+03 1.309478548753932881e+00 7.306001128716714706e-03
3.916966315154656058e+03 1.326674607469102485e+00 7.866151256802797823e-03
3.920883281469812118e+03 1.342476714340950172e+00 6.929553168700933186e-03
3.924804164751283224e+03 1.352298647965205047e+00 5.891803012013982835e-03
3.928728968916035683e+03 1.355800446835299544e+00 7.573406281232616596e-03
3.932657697884953450e+03 1.357556094162815752e+00 8.545019100157003403e-03
3.936590355582839493e+03 1.360766840529347599e+00 8.860442286284075930e-03
3.940526945938423523e+03 1.358232969758143227e+00 8.591521121851127679e-03
3.944467472884363360e+03 1.353565142073727356e+00 7.972781865288713909e-03
3.948411940357249023e+03 1.346955291738183291e+00 7.247399233764468575e-03
3.952360352297607733e+03 1.344060510883296589e+00 6.920527979713820589e-03
3.956312712649906643e+03 1.344794851204297981e+00 6.676187315211347569e-03
3.960269025362557841e+03 1.347838705973970042e+00 6.664477405720441866e-03
3.964229294387921527e+03 1.353628311873586565e+00 6.689901541629345375e-03
3.968193523682310570e+03 1.360563273457715328e+00 6.623725567363817832e-03
3.972161717205994591e+03 1.371561923466362076e+00 6.695719731086067703e-03
3.976133878923201792e+03 1.385538978553172873e+00 6.616876451421719284e-03
3.980110012802126221e+03 1.401413899203704849e+00 6.835034432935731784e-03
3.984090122814929600e+03 1.417279492478914049e+00 6.857196587022662548e-03
3.988074212937745870e+03 1.437443999466009759e+00 6.220073418349489174e-03
3.992062287150684824e+03 1.456085551730156524e+00 5.738267343571211432e-03
3.996054349437837118e+03 1.469744779558733949e+00 5.987559830891972350e-03
4.000050403787276082e+03 1.486020378799512764e+00 6.377806521305024942e-03
4.004050454191064546e+03 1.496909125125222229e+00 6.367727038277338873e-03
4.008054504645257111e+03 1.505770252715130653e+00 6.559221286411593722e-03
4.012062559149903791e+03 1.510120384141452776e+00 6.551582004394603843e-03
4.016074621709055009e+03 1.510472364492525532e+00 6.784327749181231527e-03
4.020090696330765240e+03 1.508515464773049430e+00 6.807491934951663548e-03
4.024110787027097558e+03 1.505853895104063866e+00 6.565754811189578218e-03
4.028134897814125907e+03 1.500985050695173406e+00 7.104806853711993428e-03
4.032163032711941469e+03 1.487792655819690779e+00 7.234920990229595089e-03
4.036195195744654484e+03 1.474630356759362382e+00 5.898380900684852164e-03
4.040231390940400615e+03 1.465531125272787838e+00 6.147609210636636665e-03
4.044271622331342314e+03 1.454590452014371760e+00 6.156771076756131084e-03
4.048315893953675186e+03 1.442963491224631412e+00 5.968256550126539717e-03
4.052364209847629809e+03 1.431824795311278598e+00 5.871854394284566070e-03
4.056416574057479011e+03 1.420605129882045903e+00 6.128916204407213256e-03
4.060472990631537868e+03 1.414820055292350665e+00 6.971487330353528557e-03
4.064533463622170530e+03 1.407540366611735871e+00 7.281484334108087077e-03
4.068597997085794304e+03 1.396341621168166069e+00 7.093243420181558762e-03
4.072666595082881486e+03 1.381432389642699876e+00 6.792512989669533506e-03
4.076739261677965715e+03 1.363692688714837065e+00 6.881713713146369454e-03
4.080816000939644709e+03 1.342461492823133096e+00 7.092292349430076928e-03
4.084896816940585722e+03 1.319898786092986720e+00 7.037801459005178263e-03
4.088981713757527814e+03 1.295447442728057785e+00 7.044607364166496043e-03
4.093070695471286854e+03 1.264916893254651065e+00 6.527485381517854172e-03
4.097163766166759160e+03 1.239494990450443090e+00 6.766314740108649549e-03
4.101260929932927866e+03 1.207516235105575264e+00 7.265794000385079887e-03
4.105362190862862008e+03 1.180714542097395459e+00 7.585383875673742081e-03
4.109467553053726078e+03 1.153062130252602291e+00 8.533021716103742285e-03
4.113577020606780934e+03 1.130073495441027420e+00 9.171886193951983568e-03
4.117690597627389252e+03 1.110769614527124860e+00 8.468894653630838071e-03
4.121808288225018259e+03 1.101667680729188081e+00 8.643938593397633430e-03
4.125930096513244280e+03 1.100566962478604305e+00 9.572371500911799544e-03
4.130056026609759101e+03 1.104526514585451036e+00 9.579957922203312035e-03
4.134186082636369974e+03 1.106068263157726328e+00 1.014551974710911110e-02
4.138320268719007800e+03 1.111257892045954598e+00 1.011954418157215083e-02
4.142458588987728035e+03 1.120977670973203999e+00 1.025040106658429637e-02
4.146601047576717065e+03 1.132909364882274339e+00 8.928814642469692225e-03
4.150747648624294925e+03 1.143113964186019516e+00 8.572604138284027619e-03
4.154898396272920763e+03 1.150660700816911852e+00 8.713149507103213481e-03
4.159053294669195566e+03 1.153626997393071729e+00 8.386078176181961316e-03
4.163212347963865795e+03 1.153462063781877101e+00 7.458226564656410262e-03
4.167375560311830668e+03 1.152517715722157554e+00 7.934911673363418197e-03
4.171542935872143971e+03 1.149359155215596617e+00 8.279325016500914056e-03
4.175714478808017702e+03 1.144781126490610479e+00 7.565429749633318345e-03
4.179890193286827525e+03 1.135200854360359557e+00 8.444065855979307131e-03
4.184070083480115500e+03 1.123515109984913662e+00 8.675442338311389542e-03
4.188254153563597356e+03 1.114351381575344302e+00 8.578263683918745455e-03
4.192442407717161586e+03 1.100891421070343545e+00 8.018900737859864167e-03
4.196634850124880359e+03 1.086853230039183327e+00 7.107608101710658627e-03
4.200831484975006788e+03 1.074901436476548566e+00 6.594629361958923193e-03
4.205032316459983122e+03 1.068586691217578322e+00 6.944200645800716921e-03
4.209237348776444378e+03 1.063744426410903277e+00 6.683824244737217139e-03
4.213446586125221984e+03 1.059849988545734423e+00 6.495191008478047243e-03
4.217660032711349231e+03 1.056692088109112193e+00 6.714693957931613250e-03
4.221877692744061278e+03 1.059830010117058796e+00 6.209345300017794257e-03
4.226099570436806971e+03 1.062206541354454137e+00 6.158454717144642120e-03
4.230325670007245208e+03 1.066534663873580868e+00 6.112545074122388393e-03
4.234555995677254032e+03 1.072479219940161821e+00 5.282982191800959099e-03
4.238790551672932452e+03 1.081577006727368895e+00 4.475990961511597775e-03
4.243029342224606808e+03 1.098717330667232872e+00 6.199358481853208674e-03
4.247272371566832589e+03 1.119118308003195006e+00 5.869338344804295345e-03
4.251519643938400804e+03 1.138708978715758713e+00 4.880510739624212800e-03
4.255771163582340705e+03 1.155005063460203818e+00 4.098782147526424703e-03
4.260026934745924336e+03 1.164205376777091239e+00 3.971579611668615319e-03
4.264286961680671993e+03 1.173325032113664346e+00 4.055991028166801467e-03
4.268551248642354039e+03 1.175762798648267715e+00 3.959430817958083104e-03
4.272819799890998183e+03 1.171006170485706877e+00 4.033389310951723643e-03
4.277092619690890388e+03 1.159725181845775221e+00 4.199239369600365514e-03
4.281369712310583054e+03 1.145238553622803801e+00 4.201203433917010538e-03
4.285651082022895025e+03 1.128726937934429131e+00 4.353916737818952845e-03
4.289936733104918858e+03 1.107408247818348901e+00 4.406588633214080473e-03
4.294226669838025373e+03 1.081233780568629399e+00 4.441130791571456550e-03
4.298520896507864563e+03 1.052895376849494857e+00 5.107684936988570422e-03
4.302819417404373780e+03 1.028169754054949037e+00 5.194120450142626286e-03
4.307122236821779552e+03 1.004621539456443058e+00 5.672864686597367187e-03
4.311429359058603040e+03 9.848783119015340759e-01 5.480140837814504069e-03
4.315740788417662770e+03 9.689074156403987281e-01 5.096797924557966777e-03
4.320056529206081905e+03 9.595289550360824871e-01 4.113138609141904142e-03
4.324376585735290064e+03 9.625109558424052025e-01 5.714737219020903092e-03
4.328700962321026054e+03 9.676737904964733961e-01 6.401316843478527252e-03
4.333029663283348782e+03 9.745753017778986393e-01 6.198016857245074174e-03
4.337362692946633615e+03 9.829568032344497830e-01 6.031450978896823675e-03
4.341700055639581478e+03 9.919059526617373113e-01 5.815079305618623198e-03
4.346041755695222491e+03 1.001842782125930142e+00 4.981146312051768638e-03
4.350387797450919606e+03 1.009157937018516416e+00 4.920145526758641814e-03
4.354738185248371337e+03 1.012746836538273021e+00 4.828098870966590801e-03
4.359092923433621763e+03 1.012481334954490109e+00 4.218527174616402628e-03
4.363452016357056891e+03 1.010595856968514061e+00 4.461180156151747268e-03
4.367815468373414660e+03 1.007609324556515196e+00 4.889770945574216029e-03
4.372183283841789489e+03 9.999677586095117032e-01 4.526461164191903849e-03
4.376555467125633186e+03 9.859581659103030526e-01 6.274875977390714440e-03
4.380932022592760404e+03 9.706976190552318862e-01 7.576122085681348539e-03
4.385312954615354101e+03 9.602629294490010459e-01 7.553201592885670952e-03
4.389698267569970994e+03 9.489100767377325329e-01 7.287100920805866799e-03
4.394087965837542470e+03 9.403035909502789336e-01 7.175576527130521007e-03
4.398482053803381859e+03 9.310699649379107212e-01 6.488284381733910519e-03
4.402880535857186260e+03 9.265038756047597746e-01 7.050205188467990707e-03
4.407283416393044718e+03 9.267125851210813448e-01 6.994011963529390453e-03
4.411690699809440048e+03 9.255809019774419166e-01 6.346742893874796933e-03
4.416102390509250654e+03 9.237619134213878036e-01 6.049986478840386865e-03
4.420518492899761441e+03 9.224683209374852089e-01 5.832557744685727512e-03
4.424939011392662906e+03 9.199230873895967164e-01 6.244181356619049085e-03
4.429363950404056595e+03 9.171062267468789164e-01 6.164840812802088212e-03
4.433793314354462382e+03 9.154025013650594067e-01 5.619731528781866589e-03
4.438227107668818462e+03 9.167130507452366794e-01 5.354892186148143760e-03
4.442665334776488635e+03 9.198631882522674275e-01 5.220461890492422014e-03
4.447108000111265937e+03 9.277274547233946844e-01 5.085848319737331681e-03
4.451555108111379013e+03 9.403246286260599218e-01 4.391143727768286736e-03
4.456006663219492111e+03 9.564094557848670242e-01 4.098797973462491549e-03
4.460462669882713271e+03 9.709324587438583620e-01 5.174370547530915757e-03
4.464923132552597053e+03 9.919345886213509766e-01 4.661424430846834721e-03
4.469388055685150903e+03 1.019836495656869957e+00 5.106469891110346736e-03
4.473857443740837880e+03 1.048935829365603034e+00 5.672310043189393754e-03
4.478331301184580298e+03 1.079932882826008855e+00 6.314353462488511877e-03
4.482809632485766087e+03 1.110116773861956618e+00 7.074035004647293186e-03
4.487292442118253348e+03 1.139449879460778581e+00 6.460437107281335155e-03
4.491779734560373072e+03 1.164000767257178826e+00 5.630711408951602666e-03
4.496271514294934605e+03 1.183728583022677583e+00 6.195559170379805539e-03
4.500767785809231100e+03 1.200732788531301720e+00 6.788571100146017535e-03
4.505268553595042249e+03 1.215023807982273718e+00 7.194811514809804770e-03
4.509773822148638828e+03 1.227605045081438639e+00 6.417869435773992937e-03
4.514283595970789065e+03 1.242384284839361142e+00 4.976879979127398108e-03
4.518797879566761367e+03 1.261205197183100868e+00 4.197281514262870758e-03
4.523316677446328868e+03 1.285854823301892047e+00 4.456665367126481404e-03
4.527839994123776705e+03 1.313197998446680392e+00 4.475499114646466770e-03
4.532367834117902021e+03 1.344737707829698037e+00 4.227975542212924868e-03
4.536900201952022144e+03 1.378510028318282510e+00 3.569877415532911411e-03
4.541437102153975502e+03 1.412345759760106567e+00 2.409448448293675417e-03
4.545978539256130716e+03 1.442289878920933077e+00 2.086637814896803375e-03
4.550524517795388419e+03 1.473044161994887968e+00 2.522833591181849067e-03
4.555075042313184895e+03 1.499280632775467970e+00 2.612795109985882602e-03
4.559630117355500261e+03 1.523769562270919087e+00 3.047531054447520735e-03
4.564189747472856652e+03 1.543668882832425204e+00 3.031546571382180266e-03
4.568753937220330954e+03 1.561227101061904987e+00 2.783304538317497683e-03
4.573322691157552981e+03 1.574949637525113078e+00 2.800641782917784404e-03
4.577896013848711846e+03 1.583644773435046060e+00 2.934017375460385574e-03
4.582473909862562323e+03 1.590260323292188582e+00 2.880322341213869056e-03
4.587056383772426670e+03 1.595158235905813848e+00 2.828377719188146944e-03
4.591643440156200086e+03 1.597078307299314215e+00 2.643545285675156023e-03
4.596235083596357981e+03 1.597340971494527473e+00 2.440571450096214959e-03
4.600831318679955984e+03 1.597585767702924597e+00 2.470460271868778635e-03
4.605432149998637215e+03 1.597012574308200872e+00 2.410397896398992681e-03
4.610037582148637739e+03 1.594831138341179289e+00 2.829686833910691895e-03
4.614647619730787483e+03 1.593078369847313214e+00 2.776050397525508563e-03
4.619262267350520233e+03 1.592027667293738791e+00 3.049922255610672001e-03
4.623881529617872729e+03 1.589769294655432708e+00 3.508226857075484074e-03
4.628505411147491941e+03 1.583338231203761604e+00 3.491051135387686095e-03
4.633133916558640522e+03 1.575767029192078894e+00 3.633836741901158227e-03
4.637767050475200449e+03 1.565663631419988100e+00 3.326359371979039237e-03
4.642404817525677572e+03 1.549513054463841577e+00 3.740440983590663168e-03
4.647047222343205249e+03 1.535073130182396328e+00 3.381986643595488989e-03
4.651694269565549803e+03 1.514318253386176760e+00 3.775647582832744771e-03
4.656345963835116891e+03 1.492136228382920704e+00 3.877702693621565798e-03
4.661002309798953320e+03 1.468833491392841584e+00 3.696201423273711307e-03
4.665663312108753416e+03 1.443730913536312332e+00 3.371593371587573631e-03
4.670328975420864481e+03 1.419100307158685847e+00 3.251631666679072677e-03
4.674999304396286789e+03 1.396265996706282042e+00 3.392470138670953053e-03
4.679674303700684504e+03 1.373164845711049242e+00 3.383322219106076403e-03
4.684353978004386590e+03 1.351733419638711853e+00 3.349816566254812389e-03
4.689038331982392265e+03 1.331974106934834090e+00 3.459708691209019849e-03
4.693727370314376458e+03 1.313318375902883250e+00 3.505122836829310980e-03
4.698421097684692540e+03 1.295411296002559443e+00 2.939465053230001183e-03
4.703119518782378691e+03 1.280697394913527631e+00 2.836960275744559914e-03
4.707822638301162442e+03 1.269040589175009170e+00 3.394994386825772505e-03
4.712530460939465229e+03 1.258282326020021769e+00 3.772959336720841956e-03
4.717242991400406027e+03 1.245858442726650805e+00 3.980108526234611872e-03
4.721960234391808626e+03 1.233296846613307851e+00 3.454576333355597034e-03
4.726682194626201635e+03 1.217145195225836307e+00 3.006554790547239040e-03
4.731408876820829391e+03 1.196112294385234698e+00 3.007224485732964449e-03
4.736140285697651962e+03 1.174159009049085878e+00 2.008027068383900441e-03
4.740876425983350600e+03 1.145145956617737326e+00 2.144826928827898126e-03
4.745617302409335934e+03 1.113903768987672516e+00 2.285160090570303483e-03
4.750362919711747054e+03 1.081449105548995870e+00 2.461123167536936537e-03
4.755113282631459697e+03 1.048076170930601014e+00 2.061942013093517791e-03
4.759868395914093526e+03 1.017554997287273277e+00 1.458727508713071608e-03
4.764628264310008490e+03 9.914936861153907932e-01 1.470156533368945605e-03
4.769392892574320285e+03 9.686201104129822381e-01 1.833815350992054356e-03
4.774162285466896719e+03 9.519387655250041158e-01 2.275174471448493559e-03
4.778936447752364984e+03 9.428505871516299486e-01 2.042966746321984474e-03
4.783715384200118933e+03 9.410492715037708233e-01 2.261197271940172584e-03
4.788499099584319993e+03 9.451747348454098141e-01 2.708457805604863686e-03
4.793287598683906253e+03 9.544904151510332779e-01 3.199264995885404365e-03
4.798080886282591564e+03 9.683912283311103542e-01 3.384235728926146200e-03
4.802878967168876443e+03 9.835914032169007504e-01 3.141915310428395128e-03
4.807681846136046261e+03 9.982208342654504962e-01 2.745935155907089451e-03
4.812489527982183972e+03 1.010377767840657359e+00 2.221886795971921794e-03
4.817302017510168298e+03 1.019240628001884863e+00 2.189190247611338264e-03
4.822119319527679181e+03 1.024333996652358802e+00 2.286876059972593918e-03
4.826941438847208701e+03 1.026318279605208161e+00 2.358732652532302600e-03
4.831768380286057436e+03 1.024268773695700352e+00 2.131261532579900066e-03
4.836600148666345376e+03 1.018686628101363123e+00 1.997353527950270196e-03
4.841436748815013743e+03 1.009431059941819697e+00 1.906520907123802162e-03
4.846278185563829538e+03 9.983081250196226275e-01 1.842594407848928808e-03
4.851124463749395545e+03 9.873391399332730467e-01 1.721395462209116163e-03
4.855975588213146693e+03 9.747683534167226327e-01 2.043916310601715577e-03
4.860831563801360971e+03 9.613491398674854915e-01 2.468162613452982729e-03
4.865692395365163975e+03 9.489932271121397367e-01 2.612495463926985638e-03
4.870558087760530725e+03 9.414223189242423295e-01 2.465357806293198492e-03
4.875428645848292945e+03 9.372023049244975201e-01 2.306234084488012828e-03
4.880304074494142696e+03 9.369261106317942067e-01 2.242803360939818209e-03
4.885184378568638749e+03 9.414227799817281861e-01 2.470749854662793177e-03
4.890069562947209306e+03 9.505090241369771320e-01 2.439293155433021852e-03
4.894959632510157462e+03 9.633545959278477788e-01 2.243840359917405759e-03
