# starting wavelength: 5095.010
# ending wavelength: 9993.720
# wav flux eflux
5.099719524014439230e+03 1.742587694116155550e+00 6.561306651159794744e-03
5.104819243538455339e+03 1.729764104831990723e+00 5.093648931863039089e-03
5.109924062781995417e+03 1.721859761630156305e+00 5.076592560457861107e-03
5.115033986844779065e+03 1.722477783165952570e+00 6.623872681694980245e-03
5.120149020831625421e+03 1.726722973542651696e+00 6.371702775563287992e-03
5.125269169852458617e+03 1.732812511432640035e+00 5.858542622944227889e-03
5.130394439022313236e+03 1.739461103085117699e+00 5.177306386000417836e-03
5.135524833461337039e+03 1.745742526203863942e+00 4.148821446815401971e-03
5.140660358294800062e+03 1.752766044692945391e+00 3.439770422324223750e-03
5.145801018653096435e+03 1.760321534320188563e+00 2.952220865028866003e-03
5.150946819671751655e+03 1.768554054421263233e+00 2.713902078834993896e-03
5.156097766491425318e+03 1.777359510897128514e+00 2.698864865140324001e-03
5.161253864257918394e+03 1.785635742992384145e+00 2.519895756428992654e-03
5.166415118122177773e+03 1.792426365466939675e+00 2.316813874758807089e-03
5.171581533240301724e+03 1.797650212420548677e+00 2.191581258740138427e-03
5.176753114773543530e+03 1.801433107842373094e+00 2.103307321617297037e-03
5.181929867888318768e+03 1.804160460255715748e+00 2.069149294432651599e-03
5.187111797756208944e+03 1.805048642946832427e+00 2.009904351860854112e-03
5.192298909553966951e+03 1.804164309441812497e+00 1.995366593141267159e-03
5.197491208463522526e+03 1.801607431894518552e+00 1.972068237855548623e-03
5.202688699671987706e+03 1.797374122615885028e+00 1.952251277509074864e-03
5.207891388371661378e+03 1.791349017425434731e+00 1.994507190622474800e-03
5.213099279760034733e+03 1.783972879083079111e+00 1.990316632697098492e-03
5.218312379039796724e+03 1.775016054988996617e+00 2.009853891217838057e-03
5.223530691418837705e+03 1.764280356212448275e+00 2.133312366985585205e-03
5.228754222110258524e+03 1.752244867293356601e+00 2.265322310053378106e-03
5.233982976332370527e+03 1.740055429780989593e+00 2.293639847942569119e-03
5.239216959308704645e+03 1.726579269238960102e+00 2.433371283421939708e-03
5.244456176268015042e+03 1.712626566393981031e+00 2.560958181249298887e-03
5.249700632444284565e+03 1.698430257771622376e+00 2.705611252222781850e-03
5.254950333076731113e+03 1.683344081983213725e+00 2.587221756844726439e-03
5.260205283409809454e+03 1.669911931993029564e+00 2.403571957233235131e-03
5.265465488693221232e+03 1.657865350292542672e+00 2.132918042059775941e-03
5.270730954181915877e+03 1.647357911095074456e+00 1.912270002726344309e-03
5.276001685136099695e+03 1.639210973251930881e+00 1.875168860485752938e-03
5.281277686821237694e+03 1.632641367921035647e+00 1.932982786109784879e-03
5.286558964508059944e+03 1.628971938588711144e+00 2.004480918493992993e-03
5.291845523472569766e+03 1.627261824462404638e+00 2.136929237886392961e-03
5.297137368996044643e+03 1.625742046995470202e+00 2.365812209637089061e-03
5.302434506365042580e+03 1.625363593351163205e+00 2.650766175980254821e-03
5.307736940871409388e+03 1.625726968645082815e+00 2.851914848641493548e-03
5.313044677812282316e+03 1.626970049018620967e+00 2.872050247100823000e-03
5.318357722490096421e+03 1.628456221767531131e+00 2.673441478145528304e-03
5.323676080212588204e+03 1.630065224298990367e+00 2.193287891317762580e-03
5.328999756292802886e+03 1.631271601724597176e+00 1.495235149155524444e-03
5.334328756049097137e+03 1.631523512509822860e+00 1.229787320412196973e-03
5.339663084805148173e+03 1.629973446009482352e+00 1.248878216877254144e-03
5.345002747889954662e+03 1.627054718349741247e+00 1.290800655981073648e-03
5.350347750637846730e+03 1.622717750363033007e+00 1.308400517166317728e-03
5.355698098388485960e+03 1.617049155304572716e+00 1.235286855907785338e-03
5.361053796486876308e+03 1.609768090233140603e+00 1.160205324751821879e-03
5.366414850283365013e+03 1.601076312958629622e+00 1.090427182021389864e-03
5.371781265133649867e+03 1.591160568022877753e+00 1.053106867654899151e-03
5.377153046398785591e+03 1.580535247715315839e+00 1.071046137824439555e-03
5.382530199445186554e+03 1.569355682588328138e+00 1.100134180226650668e-03
5.387912729644633146e+03 1.557376254351011235e+00 1.112030286587246519e-03
5.393300642374279960e+03 1.545357306744515657e+00 1.162927303472284860e-03
5.398693943016655794e+03 1.533376437581978724e+00 1.299459789763464032e-03
5.404092636959673655e+03 1.521208890647790524e+00 1.361309728816902879e-03
5.409496729596635305e+03 1.509145115496924872e+00 1.419677188557382863e-03
5.414906226326233991e+03 1.497896297291037460e+00 1.341600130120015541e-03
5.420321132552561721e+03 1.487728433414856610e+00 1.253720426939626282e-03
5.425741453685116539e+03 1.477989515646831675e+00 1.024914865930938966e-03
5.431167195138803436e+03 1.469380215913634213e+00 1.007108313358040953e-03
5.436598362333943442e+03 1.462462488298687857e+00 1.039850100921629059e-03
5.442034960696279086e+03 1.457295334344038684e+00 1.133189158356299586e-03
5.447476995656978033e+03 1.453577719247851840e+00 1.073505650900024189e-03
5.452924472652636723e+03 1.450575997939959727e+00 8.686880136433631876e-04
5.458377397125291282e+03 1.447766522831457792e+00 8.752781019611831533e-04
5.463835774522417523e+03 1.445655460140292448e+00 9.576726048470920235e-04
5.469299610296941864e+03 1.444057132548153266e+00 1.056485967839359023e-03
5.474768909907241323e+03 1.442992679294944569e+00 1.037734628535155355e-03
5.480243678817149885e+03 1.442736950306534593e+00 9.433510156276354039e-04
5.485723922495968509e+03 1.443160517762201778e+00 8.432527721431594793e-04
5.491209646418466946e+03 1.444502049442669023e+00 9.008291329925130703e-04
5.496700856064887375e+03 1.446199610611129227e+00 1.009756392825054061e-03
5.502197556920953502e+03 1.448011246025474152e+00 1.078053830733826605e-03
5.507699754477876013e+03 1.449590438366438638e+00 1.086464034349523752e-03
5.513207454232356213e+03 1.451074988607689686e+00 1.061484974199761351e-03
5.518720661686590574e+03 1.451971770795994932e+00 1.023033698637059894e-03
5.524239382348278923e+03 1.451540666786879985e+00 9.081252731477227258e-04
5.529763621730628984e+03 1.449355015620349629e+00 8.572002150515462514e-04
5.535293385352360929e+03 1.445430985798831003e+00 8.004517009536914500e-04
5.540828678737715563e+03 1.439121038476320447e+00 8.074743388658571150e-04
5.546369507416455235e+03 1.431116137993593052e+00 9.084719241524341540e-04
5.551915876923872929e+03 1.420772515870591279e+00 7.606117458037153474e-04
5.557467792800798634e+03 1.408943348705665954e+00 6.383352748785544543e-04
5.563025260593602070e+03 1.395824836763189136e+00 9.188615132974564973e-04
5.568588285854197238e+03 1.382498675024302237e+00 9.095796033048123442e-04
5.574156874140053333e+03 1.368845072241980931e+00 9.222584619469479435e-04
5.579731031014194741e+03 1.354245084838702651e+00 8.634867133951537209e-04
5.585310762045211050e+03 1.339851752436575838e+00 8.628447665362209799e-04
5.590896072807257951e+03 1.325271104223085805e+00 1.022092712372525388e-03
5.596486968880067252e+03 1.311808924813426147e+00 9.746347630371214902e-04
5.602083455848949598e+03 1.299880235033430642e+00 9.985864939769685793e-04
5.607685539304799931e+03 1.288954366645301386e+00 1.043750678436280218e-03
5.613293224844106589e+03 1.278882577711714319e+00 1.158398269290863633e-03
5.618906518068952209e+03 1.269180341606973794e+00 1.287008661014306951e-03
5.624525424587023736e+03 1.259193396175170676e+00 1.305775726376794121e-03
5.630149950011612418e+03 1.249460132576704741e+00 1.275676702956091667e-03
5.635780099961625638e+03 1.239487120178476509e+00 1.192180087639075183e-03
5.641415880061589633e+03 1.229261297846380607e+00 1.205453875552955651e-03
5.647057295941652228e+03 1.218893814149825783e+00 1.338944616932011885e-03
5.652704353237596479e+03 1.208693673514922295e+00 1.407775653430068082e-03
5.658357057590835211e+03 1.199053246250024296e+00 1.320647638763520907e-03
5.664015414648428305e+03 1.190704297272890733e+00 1.315332768250130832e-03
5.669679430063079053e+03 1.183290032689975124e+00 1.422108571384293448e-03
5.675349109493143260e+03 1.176069466512740913e+00 1.314782021166093634e-03
5.681024458602638333e+03 1.171222994000012507e+00 1.218520965129905528e-03
5.686705483061243285e+03 1.168057249887997084e+00 1.045409765627696840e-03
5.692392188544306009e+03 1.165843951810318302e+00 1.384114671376890371e-03
5.698084580732852373e+03 1.165354100445187058e+00 1.332587287932706852e-03
5.703782665313587131e+03 1.167247215383421466e+00 1.270620316805999269e-03
5.709486447978903016e+03 1.171120692944982000e+00 1.239225675325026635e-03
5.715195934426883468e+03 1.177033964208245465e+00 1.449228125021866879e-03
5.720911130361312644e+03 1.184601548708553054e+00 1.622534580864899061e-03
5.726632041491675409e+03 1.193163839006261551e+00 1.557203925409073432e-03
5.732358673533169167e+03 1.202474430479687939e+00 1.482430128298643486e-03
5.738091032206703858e+03 1.212933682248446221e+00 1.291513047214756186e-03
5.743829123238912871e+03 1.223278653512614111e+00 1.191862728086733611e-03
5.749572952362153046e+03 1.233622937692310462e+00 1.145421456119124224e-03
5.755322525314517407e+03 1.243104478692113712e+00 1.132855339462297134e-03
5.761077847839834249e+03 1.251893469166420747e+00 1.129159344493344680e-03
5.766838925687675328e+03 1.260864345540386955e+00 1.034244852709642398e-03
5.772605764613364954e+03 1.270918206478684587e+00 1.040673087465125409e-03
5.778378370377980900e+03 1.282510815386519898e+00 1.101903021190348518e-03
5.784156748748360769e+03 1.294012581138432649e+00 1.124188808704293992e-03
5.789940905497111089e+03 1.307070093570728675e+00 1.116674886171720431e-03
5.795730846402610041e+03 1.320747405134694352e+00 1.235264665438835351e-03
5.801526577249013826e+03 1.334878501461136624e+00 1.242115762366083256e-03
5.807328103826264851e+03 1.351024251096446305e+00 1.165122463722165474e-03
5.813135431930093546e+03 1.368397309561357744e+00 1.284184709046264474e-03
5.818948567362025642e+03 1.386092625765315223e+00 1.358019523872360879e-03
5.824767515929389447e+03 1.404365970797536223e+00 1.552646663795496842e-03
5.830592283445320390e+03 1.421400829723956649e+00 1.714154595642963189e-03
5.836422875728768304e+03 1.435707315247204185e+00 1.879909044196031954e-03
5.842259298604498326e+03 1.446411136710867185e+00 1.835499376547863404e-03
5.848101557903105459e+03 1.453038344018021455e+00 1.613145932457362266e-03
5.853949659461010015e+03 1.455341432591732653e+00 1.549074135227541081e-03
5.859803609120473084e+03 1.453424054477803429e+00 1.582104125714742628e-03
5.865663412729595620e+03 1.446783163551571993e+00 1.902799304036567780e-03
5.871529076142326630e+03 1.436268654362365060e+00 1.773575395230226693e-03
5.877400605218471355e+03 1.422815679307956938e+00 1.361299741294273854e-03
5.883278005823691274e+03 1.407762318268277468e+00 9.040179420585378557e-04
5.889161283829516833e+03 1.392666432014962652e+00 1.137670722028848733e-03
5.895050445113348360e+03 1.376093763022696148e+00 1.114655062018447872e-03
5.900945495558464245e+03 1.359961008284943151e+00 1.056610477946829394e-03
5.906846441054024581e+03 1.343508116101461702e+00 1.744753689500675884e-03
5.912753287495080258e+03 1.328493527088957515e+00 2.044504797954709626e-03
5.918666040782577511e+03 1.316497567659371981e+00 2.058649515618648108e-03
5.924584706823361557e+03 1.307197004933784434e+00 1.952774151544759600e-03
5.930509291530187511e+03 1.300258001736209756e+00 1.800240757710371052e-03
5.936439800821719473e+03 1.296729748472018162e+00 2.452492625690773191e-03
5.942376240622543264e+03 1.295214323793993927e+00 3.027040882628003176e-03
5.948318616863167335e+03 1.294398256342101261e+00 2.968679966105011638e-03
5.954266935480032771e+03 1.292856224489175032e+00 2.592707090917435991e-03
5.960221202415515108e+03 1.290391641797499656e+00 2.421715118517610722e-03
5.966181423617932523e+03 1.287307562474356404e+00 2.243060968217200704e-03
5.972147605041552197e+03 1.282365239023512737e+00 2.285900347779191728e-03
5.978119752646595771e+03 1.275309186531893291e+00 2.247884810015597472e-03
5.984097872399243897e+03 1.266929937288688413e+00 2.044107849900577735e-03
5.990081970271645332e+03 1.257395905272837622e+00 1.592977849998313683e-03
5.996072052241918755e+03 1.248116696583410290e+00 1.437618554278502318e-03
6.002068124294162772e+03 1.239801114309976526e+00 1.434762221246196944e-03
6.008070192418459555e+03 1.231510374359285676e+00 1.342810126893334869e-03
6.014078262610879392e+03 1.223597406220579886e+00 1.322465578116528923e-03
6.020092340873492503e+03 1.215707002577984586e+00 1.538554170406368623e-03
6.026112433214368139e+03 1.208922993383603650e+00 1.624972970992871746e-03
6.032138545647584579e+03 1.203709459455196695e+00 1.516351458257849836e-03
6.038170684193233683e+03 1.200063037214369910e+00 1.258548859959000453e-03
6.044208854877429076e+03 1.198270116852639733e+00 1.260830587736987661e-03
6.050253063732308874e+03 1.198842784181316956e+00 1.518605036279651720e-03
6.056303316796042964e+03 1.200788621991776495e+00 1.370996527246730193e-03
6.062359620112841185e+03 1.202858594672367332e+00 1.049073904703702771e-03
6.068421979732956061e+03 1.204325995655460613e+00 1.050547679107845895e-03
6.074490401712690982e+03 1.205993441942434519e+00 1.041540591303997173e-03
6.080564892114405666e+03 1.207399382413363309e+00 1.038371037429012969e-03
6.086645457006521610e+03 1.207170359221103162e+00 1.009577765614718325e-03
6.092732102463530282e+03 1.205373878658664966e+00 1.013794136249979985e-03
6.098824834565995843e+03 1.202480810032285463e+00 1.017926709300712509e-03
6.104923659400564247e+03 1.198466083636666513e+00 1.061037046418268235e-03
6.111028583059966877e+03 1.193794970027707070e+00 1.039116533078168064e-03
6.117139611643028729e+03 1.188812082751565802e+00 9.292975507537167652e-04
6.123256751254673873e+03 1.183879695449769676e+00 8.474581239612726056e-04
6.129380008005929994e+03 1.179448489710844150e+00 8.436533286435395551e-04
6.135509388013938405e+03 1.176026670219827208e+00 9.845995966005552640e-04
6.141644897401954040e+03 1.174449917295338652e+00 1.748514118555889556e-03
6.147786542299358189e+03 1.177066566948843152e+00 2.337646238284934400e-03
6.153934328841659408e+03 1.185952475225731551e+00 2.571355872690325815e-03
6.160088263170503524e+03 1.203210525641905448e+00 2.460880956158155181e-03
6.166248351433675452e+03 1.229834056522811858e+00 2.316322819376433455e-03
6.172414599785111022e+03 1.266724356518140526e+00 2.042870934048177361e-03
6.178587014384898794e+03 1.314235099515976612e+00 1.716072282171403124e-03
6.184765601399285515e+03 1.372080663055928795e+00 1.979556094195887572e-03
6.190950367000687038e+03 1.440079866401583253e+00 2.876023059263951940e-03
6.197141317367689226e+03 1.515414514673595558e+00 3.207767413466567231e-03
6.203338458685059777e+03 1.594640818653455749e+00 3.030650573723007654e-03
6.209541797143746408e+03 1.675649065515765646e+00 2.679889407075217687e-03
6.215751338940892310e+03 1.755921535710040837e+00 1.958003623475302896e-03
6.221967090279835247e+03 1.832292286861326946e+00 1.105093119503319484e-03
6.228189057370116643e+03 1.902497271166716297e+00 9.229073628198743422e-04
6.234417246427488863e+03 1.965777859439426845e+00 1.071517045257315386e-03
6.240651663673918847e+03 2.022019618056996038e+00 1.116274253740740007e-03
6.246892315337594482e+03 2.070879311011544655e+00 1.388300617908300779e-03
6.253139207652934601e+03 2.111787903226195695e+00 1.915858636893077657e-03
6.259392346860589896e+03 2.145238081001463293e+00 2.096653431432745403e-03
6.265651739207452010e+03 2.173183430908665503e+00 1.708970673371915713e-03
6.271917390946661726e+03 2.195987273011075214e+00 1.364298612581759306e-03
6.278189308337610782e+03 2.213911830834614403e+00 1.402854058376704982e-03
6.284467497645950061e+03 2.226022333902482941e+00 1.495813644851793408e-03
6.290751965143597772e+03 2.232324104974743761e+00 1.703164303971336450e-03
6.297042717108744000e+03 2.232591449330675104e+00 1.910754574758132332e-03
6.303339759825854344e+03 2.225924163592047034e+00 1.957981636741596213e-03
6.309643099585682648e+03 2.211949644147575444e+00 1.490989110923263486e-03
6.315952742685270096e+03 2.189623419448848640e+00 1.064325244130458984e-03
6.322268695427957937e+03 2.158446425362793519e+00 1.017871326438496730e-03
6.328590964123387494e+03 2.119463725064700821e+00 1.015136029211906148e-03
6.334919555087512890e+03 2.072814678284057965e+00 1.231122184635474737e-03
6.341254474642602872e+03 2.019414756721117143e+00 1.344461527722486723e-03
6.347595729117247174e+03 1.960657933532856667e+00 1.307954810686724843e-03
6.353943324846366522e+03 1.898646852961785259e+00 1.438477493192750166e-03
6.360297268171215364e+03 1.835744661380370291e+00 1.464183665292266784e-03
6.366657565439388236e+03 1.772615936394749792e+00 1.377506849170982359e-03
6.373024223004829764e+03 1.710044118362513910e+00 1.106717137465361694e-03
6.379397247227837397e+03 1.649241860724051767e+00 9.274023821022638059e-04
6.385776644475066860e+03 1.591435191049061837e+00 1.116830835459916823e-03
6.392162421119543978e+03 1.536480821596772683e+00 1.097037291636540797e-03
6.398554583540665590e+03 1.484900449550980550e+00 1.001936652936833219e-03
6.404953138124208635e+03 1.436220479002303652e+00 9.116979039150370544e-04
6.411358091262334710e+03 1.390509733506446910e+00 7.678433565968729481e-04
6.417769449353599157e+03 1.347974610114089700e+00 7.525703319566503591e-04
6.424187218802954703e+03 1.308578846309713883e+00 9.440069779395250963e-04
6.430611406021760558e+03 1.272495111164858361e+00 1.065246174415301157e-03
6.437042017427784231e+03 1.240891417693450460e+00 9.848755909650924734e-04
6.443479059445214261e+03 1.213232267832023314e+00 1.229482932430495286e-03
6.449922538504661134e+03 1.189634926944611149e+00 1.657618780819611467e-03
6.456372461043168187e+03 1.169025262024179224e+00 1.808274520130152612e-03
6.462828833504213435e+03 1.150690746674595921e+00 1.546506252557729296e-03
6.469291662337719572e+03 1.134458120817433802e+00 1.506934101838494590e-03
6.475760954000059428e+03 1.120550445852524390e+00 1.537556917486078900e-03
6.482236714954061426e+03 1.109000507272933866e+00 1.699677053407117619e-03
6.488718951669017770e+03 1.099849760404004062e+00 1.902208360841632683e-03
6.495207670620688987e+03 1.093426627319443512e+00 2.113952615682689832e-03
6.501702878291312118e+03 1.090863835162076745e+00 2.037687922171000417e-03
6.508204581169605262e+03 1.092599570549356081e+00 1.634808847386010717e-03
6.514712785750777584e+03 1.098842852647567758e+00 1.292766624636894606e-03
6.521227498536530220e+03 1.109804444215528596e+00 1.851317559716667439e-03
6.527748726035069012e+03 1.123862136344351503e+00 2.170549608743187718e-03
6.534276474761106329e+03 1.139388466951281265e+00 2.074565468242694187e-03
6.540810751235869247e+03 1.154968784972569162e+00 1.779098366586162041e-03
6.547351561987107743e+03 1.168408868238082210e+00 1.577090819804710621e-03
6.553898913549096505e+03 1.178296281173311533e+00 1.645817660620465389e-03
6.560452812462647671e+03 1.184074791143451044e+00 1.357559922014650762e-03
6.567013265275112644e+03 1.184298285141321072e+00 1.145734106608014983e-03
6.573580278540390282e+03 1.178974981063398042e+00 9.399173363083961367e-04
6.580153858818932349e+03 1.167532171614924952e+00 1.083747529143233709e-03
6.586734012677753526e+03 1.149606284232558728e+00 1.794638788894011190e-03
6.593320746690433225e+03 1.128106645893195203e+00 1.898733805577613402e-03
6.599914067437126505e+03 1.104845789132304912e+00 2.006166914799872771e-03
6.606513981504565891e+03 1.080403316492827948e+00 2.150333768496817764e-03
6.613120495486072286e+03 1.056581917745514687e+00 2.186621001873572182e-03
6.619733615981560433e+03 1.034708658752042210e+00 1.732523702761753874e-03
6.626353349597544366e+03 1.016061630364495372e+00 1.317007664775822094e-03
6.632979702947143778e+03 1.001194534918762979e+00 1.367341416791772969e-03
6.639612682650093120e+03 9.905341528034714571e-01 1.822822696459032790e-03
