# starting wavelength: 3703.980
# ending wavelength: 7614.700
# wav flux eflux
3.707452327947895355e+03 5.556759922342584535e-01 1.137036692852713519e-02
3.711159780275844696e+03 5.381326661381279353e-01 8.337971254352887288e-03
3.714870940056121526e+03 5.217179441281024621e-01 6.297731618245135631e-03
3.718585810996179134e+03 5.067305678939697522e-01 4.966424161388382358e-03
3.722304396807176545e+03 4.926188836661931081e-01 5.092297540207879267e-03
3.726026701203984885e+03 4.822252731753222665e-01 4.133768592323089353e-03
3.729752727905190113e+03 4.745310235401070109e-01 3.681757783361161440e-03
3.733482480633096657e+03 4.675089821077204055e-01 3.006680252236529696e-03
3.737215963113731050e+03 4.618434443192287464e-01 2.547307137589060327e-03
3.740953179076846027e+03 4.573223810278387313e-01 2.208481245373749517e-03
3.744694132255923705e+03 4.542366607012516821e-01 2.013806569967544879e-03
3.748438826388181042e+03 4.510575211852153044e-01 2.000479924210050824e-03
3.752187265214570289e+03 4.486967876228330487e-01 1.926106367576178174e-03
3.755939452479786269e+03 4.478388949384503048e-01 1.800005196111072832e-03
3.759695391932267285e+03 4.480788118101491913e-01 1.732248099339753905e-03
3.763455087324201031e+03 4.483812195814043666e-01 1.666427868564103725e-03
3.767218542411526414e+03 4.490124496190537884e-01 1.685614607996111132e-03
3.770985760953939007e+03 4.510891050235511512e-01 1.721406087165039704e-03
3.774756746714894234e+03 4.527137461394730722e-01 2.022743367652889493e-03
3.778531503461610555e+03 4.551842611386621162e-01 2.191370589126222842e-03
3.782310034965073100e+03 4.591903271360000538e-01 2.103654634535897291e-03
3.786092345000039586e+03 4.646047122880819225e-01 2.101877138998260210e-03
3.789878437345040766e+03 4.710072890868819417e-01 2.301278988400877121e-03
3.793668315782387253e+03 4.780973658927752945e-01 2.455302396373797852e-03
3.797461984098170888e+03 4.861030417783389068e-01 2.582653225102365425e-03
3.801259446082270188e+03 4.934750676230032496e-01 2.583845863157384522e-03
3.805060705528353537e+03 5.017655124719246906e-01 2.558256291524541991e-03
3.808865766233883278e+03 5.104061620022309897e-01 2.581708219322469307e-03
3.812674632000118436e+03 5.202962099209733626e-01 2.645288918631755713e-03
3.816487306632119726e+03 5.303413002749127747e-01 2.681439131020941797e-03
3.820303793938753188e+03 5.407850086060280725e-01 2.759478240065459369e-03
3.824124097732693372e+03 5.518965574510367178e-01 2.796488228453041826e-03
3.827948221830427428e+03 5.647544015125918193e-01 2.855611203967824922e-03
3.831776170052258749e+03 5.768048418382069054e-01 3.039900231377686002e-03
3.835607946222312421e+03 5.895921385909268508e-01 3.075922147982104900e-03
3.839443554168536139e+03 6.036023203691607275e-01 2.899842425869442707e-03
3.843282997722705659e+03 6.196118674900824574e-01 3.054524551596800221e-03
3.847126280720429804e+03 6.366519569068013196e-01 3.444254941015419125e-03
3.850973407001151372e+03 6.527784457564734799e-01 3.564808221275080763e-03
3.854824380408153957e+03 6.718356008540153912e-01 4.316379931136000297e-03
3.858679204788563311e+03 6.887103894230343082e-01 4.402043065321598406e-03
3.862537883993353262e+03 7.043563467465669969e-01 4.394752187983792628e-03
3.866400421877347981e+03 7.208406099850515059e-01 4.403533019858987992e-03
3.870266822299226533e+03 7.363873165201663129e-01 4.378118669921857858e-03
3.874137089121526969e+03 7.503534359516611518e-01 4.577021605628286798e-03
3.878011226210649966e+03 7.646054024221358159e-01 4.759767676265232866e-03
3.881889237436861549e+03 7.794113351575827631e-01 4.800087013105179892e-03
3.885771126674299921e+03 7.939806310271231293e-01 4.813567467055624577e-03
3.889656897800975457e+03 8.073659176790347614e-01 4.913004520751159537e-03
3.893546554698777527e+03 8.195110431262507822e-01 4.687200434488965513e-03
3.897440101253477678e+03 8.307616086126261568e-01 4.426020102352091340e-03
3.901337541354732366e+03 8.420822590000951458e-01 4.758682677227281388e-03
3.905238878896088409e+03 8.537242741285951952e-01 5.340412986457447088e-03
3.909144117774985716e+03 8.649932834155146244e-01 5.635595332898347097e-03
3.913053261892762293e+03 8.735492742223462947e-01 5.376848155608997953e-03
3.916966315154656058e+03 8.793562220544858254e-01 5.284412108250737851e-03
3.920883281469812118e+03 8.830674106489311281e-01 5.486476642265428021e-03
3.924804164751283224e+03 8.866321334467760495e-01 5.528361814892315818e-03
3.928728968916035683e+03 8.887015971919797197e-01 5.756789198825267885e-03
3.932657697884953450e+03 8.915042033295444979e-01 5.991512470812117644e-03
3.936590355582839493e+03 8.919374488612689111e-01 6.178497004114856701e-03
3.940526945938423523e+03 8.918979112802414289e-01 6.256016787969601554e-03
3.944467472884363360e+03 8.877027972856073035e-01 5.194626833683942992e-03
3.948411940357249023e+03 8.872294926208573740e-01 3.980679095730138214e-03
3.952360352297607733e+03 8.903745385395619438e-01 3.842071771676823858e-03
3.956312712649906643e+03 8.980309909258511469e-01 5.173130559176145234e-03
3.960269025362557841e+03 9.073530540384293630e-01 5.563269115749787386e-03
3.964229294387921527e+03 9.161827057088723913e-01 5.037366306984583306e-03
3.968193523682310570e+03 9.252792642827245562e-01 5.372220276413981581e-03
3.972161717205994591e+03 9.383442336705815068e-01 5.520097909180581366e-03
3.976133878923201792e+03 9.514828062626101701e-01 5.724838176977498951e-03
3.980110012802126221e+03 9.669724449264113231e-01 5.706233783541749503e-03
3.984090122814929600e+03 9.811881431159986677e-01 5.793450532247981268e-03
3.988074212937745870e+03 9.973243715396992171e-01 5.909206240701854462e-03
3.992062287150684824e+03 1.013026588358034941e+00 6.089346411240419144e-03
3.996054349437837118e+03 1.028350812606682485e+00 6.424404057541652745e-03
4.000050403787276082e+03 1.042809172747131585e+00 6.636223622702411458e-03
4.004050454191064546e+03 1.055725432960801458e+00 6.466497054542524013e-03
4.008054504645257111e+03 1.067322367071177558e+00 6.147199538767481909e-03
4.012062559149903791e+03 1.077169193133536762e+00 5.807253638170036848e-03
4.016074621709055009e+03 1.081671923334942997e+00 6.019725195319295535e-03
4.020090696330765240e+03 1.083433187327379699e+00 6.408165660325213300e-03
4.024110787027097558e+03 1.082459287294736061e+00 6.535231523108862503e-03
4.028134897814125907e+03 1.076813079145132690e+00 6.956848448836417537e-03
4.032163032711941469e+03 1.070232355408319069e+00 6.788853627471200941e-03
4.036195195744654484e+03 1.062481677532016056e+00 6.059722407184530910e-03
4.040231390940400615e+03 1.053862075765704898e+00 4.863773741053759210e-03
4.044271622331342314e+03 1.048855592816620774e+00 5.627826406059243357e-03
4.048315893953675186e+03 1.043751731272326344e+00 5.723767409898157348e-03
4.052364209847629809e+03 1.043876933320062150e+00 4.673651236857984635e-03
4.056416574057479011e+03 1.039877323927064667e+00 3.098876485499184232e-03
4.060472990631537868e+03 1.030520580048287504e+00 3.397128691244483221e-03
4.064533463622170530e+03 1.020166860750043591e+00 3.373740033549659650e-03
4.068597997085794304e+03 1.006734182214637174e+00 3.522816602744128275e-03
4.072666595082881486e+03 9.911424232316067284e-01 3.486309344744291643e-03
4.076739261677965715e+03 9.740267063312543216e-01 3.632271687097662471e-03
4.080816000939644709e+03 9.558896936346242823e-01 3.510969383644299124e-03
4.084896816940585722e+03 9.380140275098469704e-01 3.428341638533799300e-03
4.088981713757527814e+03 9.199885371148273094e-01 3.526355446744421952e-03
4.093070695471286854e+03 9.033406549199310964e-01 3.676911196204455182e-03
4.097163766166759160e+03 8.881830745858824150e-01 3.638105570432728381e-03
4.101260929932927866e+03 8.729368219327663381e-01 3.757184730298340682e-03
4.105362190862862008e+03 8.628015539780087284e-01 3.390847644817964000e-03
4.109467553053726078e+03 8.540557995990692985e-01 3.222078322129325566e-03
4.113577020606780934e+03 8.446432892887559829e-01 3.515805055483960193e-03
4.117690597627389252e+03 8.390607079498865195e-01 3.611408157161918441e-03
4.121808288225018259e+03 8.367797533394580878e-01 3.202548588414756529e-03
4.125930096513244280e+03 8.382941435633107785e-01 2.742869608212083771e-03
4.130056026609759101e+03 8.464863435353980892e-01 3.537505612174609432e-03
4.134186082636369974e+03 8.556487030503907576e-01 3.367767395679120354e-03
4.138320268719007800e+03 8.640968479498464250e-01 3.538010931308425630e-03
4.142458588987728035e+03 8.737070362505903187e-01 3.992275402437621412e-03
4.146601047576717065e+03 8.814379203726758760e-01 3.128352215457633981e-03
4.150747648624294925e+03 8.850230917978426648e-01 2.887788867835172722e-03
4.154898396272920763e+03 8.859002817582981582e-01 2.595915160862720568e-03
4.159053294669195566e+03 8.812897795869992779e-01 2.743443149269226243e-03
4.163212347963865795e+03 8.730526701009798662e-01 3.167857593945080669e-03
4.167375560311830668e+03 8.624256748872972667e-01 3.849818752286341371e-03
4.171542935872143971e+03 8.530404240989971631e-01 3.838408822000562853e-03
4.175714478808017702e+03 8.441062489188124740e-01 3.190148892273387844e-03
4.179890193286827525e+03 8.370521455260118149e-01 2.439289412289826278e-03
4.184070083480115500e+03 8.351124590586791463e-01 2.630412168386898984e-03
4.188254153563597356e+03 8.356391668417476604e-01 2.508089495185343056e-03
4.192442407717161586e+03 8.379197821401445090e-01 2.521550175904950335e-03
4.196634850124880359e+03 8.433221599418199155e-01 2.681350206910333798e-03
4.200831484975006788e+03 8.526325179324805159e-01 2.668909056320397689e-03
4.205032316459983122e+03 8.647539642967644324e-01 2.658894763051965985e-03
4.209237348776444378e+03 8.800451616740746497e-01 2.551168466776925197e-03
4.213446586125221984e+03 8.954864567902326433e-01 2.743429284792211435e-03
4.217660032711349231e+03 9.124970462933684745e-01 4.070835478715187361e-03
4.221877692744061278e+03 9.282051265293941311e-01 4.168354782467248963e-03
4.226099570436806971e+03 9.393536821537316062e-01 4.087040302405632770e-03
4.230325670007245208e+03 9.474096440464651048e-01 3.865424894060303339e-03
4.234555995677254032e+03 9.523307378496643771e-01 3.961731820861197177e-03
4.238790551672932452e+03 9.532016768312967514e-01 5.209704320275890775e-03
4.243029342224606808e+03 9.514362132281969364e-01 5.932393744187846110e-03
4.247272371566832589e+03 9.488631123408509671e-01 5.007112815521370247e-03
4.251519643938400804e+03 9.496656610302323109e-01 4.974999598388342263e-03
4.255771163582340705e+03 9.510539375584762256e-01 5.742089908781063991e-03
4.260026934745924336e+03 9.516714541923472215e-01 5.844797889442907880e-03
4.264286961680671993e+03 9.528182542198289084e-01 5.570257170313117241e-03
4.268551248642354039e+03 9.539421336960340891e-01 5.228502851162318034e-03
4.272819799890998183e+03 9.546106290920021165e-01 4.895599606841056183e-03
4.277092619690890388e+03 9.528291645592416037e-01 4.759451868776040304e-03
4.281369712310583054e+03 9.485867772609721804e-01 4.689242560675695691e-03
4.285651082022895025e+03 9.405120831763172928e-01 4.592139865133341124e-03
4.289936733104918858e+03 9.294698116470072602e-01 4.299551450612135693e-03
4.294226669838025373e+03 9.170197526882776229e-01 4.568865644154169320e-03
4.298520896507864563e+03 9.032492918152126293e-01 4.554578814027698645e-03
4.302819417404373780e+03 8.866811724207066536e-01 4.561327395529085615e-03
4.307122236821779552e+03 8.692753853987821300e-01 5.066727666813408346e-03
4.311429359058603040e+03 8.525298668743490627e-01 6.127499597470048923e-03
4.315740788417662770e+03 8.379194181047736611e-01 6.370044603798827830e-03
4.320056529206081905e+03 8.256679828782929054e-01 5.693008269990175452e-03
4.324376585735290064e+03 8.175060565774819876e-01 4.526695211379536989e-03
4.328700962321026054e+03 8.153323519621674675e-01 5.086284766650761048e-03
4.333029663283348782e+03 8.199168024851707370e-01 5.481515711010885757e-03
4.337362692946633615e+03 8.270157981505629197e-01 4.796417062132456166e-03
4.341700055639581478e+03 8.343108159820626923e-01 4.464543973103137636e-03
4.346041755695222491e+03 8.427880606913363826e-01 4.326278583612061697e-03
4.350387797450919606e+03 8.524623991636310905e-01 4.165183937129793290e-03
4.354738185248371337e+03 8.618011925851528643e-01 4.059000173646244193e-03
4.359092923433621763e+03 8.688822117996548577e-01 4.030190277306022230e-03
4.363452016357056891e+03 8.742551989592125539e-01 3.853668356102925990e-03
4.367815468373414660e+03 8.776536764463765961e-01 3.752193381480114880e-03
4.372183283841789489e+03 8.795921763940481863e-01 3.738694062874985471e-03
4.376555467125633186e+03 8.817171647204307128e-01 3.427576520314225619e-03
4.380932022592760404e+03 8.824537763813852242e-01 3.376410001573802982e-03
4.385312954615354101e+03 8.821286893717573685e-01 3.635830830412955031e-03
4.389698267569970994e+03 8.801982667427868945e-01 4.323180711244932993e-03
4.394087965837542470e+03 8.788492828437373117e-01 3.734850635437663487e-03
4.398482053803381859e+03 8.799124330878925759e-01 3.872254595756748508e-03
4.402880535857186260e+03 8.806824394396460809e-01 3.771305676041876529e-03
4.407283416393044718e+03 8.837884164763113448e-01 4.126341993372541726e-03
4.411690699809440048e+03 8.888359057405401664e-01 3.866227346609056419e-03
4.416102390509250654e+03 8.935104812502704386e-01 3.176004773087095275e-03
4.420518492899761441e+03 8.980347000787128886e-01 2.878099893672063283e-03
4.424939011392662906e+03 9.009320112032785932e-01 3.335642788288851936e-03
4.429363950404056595e+03 9.046372470295006574e-01 3.419857550729101317e-03
4.433793314354462382e+03 9.091187777531322123e-01 3.526555491222345146e-03
4.438227107668818462e+03 9.152876224881872913e-01 3.046742793425154857e-03
4.442665334776488635e+03 9.242283110526668954e-01 2.437548529047343145e-03
4.447108000111265937e+03 9.376368315216968563e-01 2.953262296515606240e-03
4.451555108111379013e+03 9.536295027377487132e-01 3.098688760587754720e-03
4.456006663219492111e+03 9.712843502004825380e-01 2.891491801231622655e-03
4.460462669882713271e+03 9.911399928694020200e-01 2.507195130825022079e-03
4.464923132552597053e+03 1.012148643723855823e+00 2.380262422662203590e-03
4.469388055685150903e+03 1.033865991464162581e+00 2.378955495167255161e-03
4.473857443740837880e+03 1.054676976290427337e+00 1.916262051993673429e-03
4.478331301184580298e+03 1.077492299883644478e+00 1.912768296715323122e-03
4.482809632485766087e+03 1.101769620400199878e+00 2.064533047428033629e-03
4.487292442118253348e+03 1.124048946447934405e+00 1.957830547657303868e-03
4.491779734560373072e+03 1.147844303643023700e+00 2.086967416962639231e-03
4.496271514294934605e+03 1.171186562723954605e+00 2.027766468596976616e-03
4.500767785809231100e+03 1.192656416912299955e+00 1.987171565536271708e-03
4.505268553595042249e+03 1.213684096459974882e+00 1.852525419145633180e-03
4.509773822148638828e+03 1.232126417845413435e+00 2.982665039425167787e-03
4.514283595970789065e+03 1.251562995820216129e+00 3.272431129913519737e-03
4.518797879566761367e+03 1.270734826527536887e+00 2.818386232477251840e-03
4.523316677446328868e+03 1.292300375938854273e+00 2.456866767076930011e-03
4.527839994123776705e+03 1.315349292258251923e+00 2.717894166142364402e-03
4.532367834117902021e+03 1.339910357175774891e+00 3.117273434020720237e-03
4.536900201952022144e+03 1.364146301538641470e+00 3.364801061398246459e-03
4.541437102153975502e+03 1.385809585955665169e+00 3.174124089146441053e-03
4.545978539256130716e+03 1.405814942111217380e+00 2.879004731554304225e-03
4.550524517795388419e+03 1.422887265200873053e+00 2.544087179106016040e-03
4.555075042313184895e+03 1.436187529471055102e+00 2.542660810901458800e-03
4.559630117355500261e+03 1.445218146949682536e+00 2.946579873510790995e-03
4.564189747472856652e+03 1.451729346511267948e+00 3.087789230948018160e-03
4.568753937220330954e+03 1.456552552687669921e+00 2.818694802929969968e-03
4.573322691157552981e+03 1.458911518102498528e+00 1.848001392939455220e-03
4.577896013848711846e+03 1.462098137817561705e+00 2.178928233018939328e-03
4.582473909862562323e+03 1.464427665005257229e+00 2.125380172507985391e-03
4.587056383772426670e+03 1.466012737247748277e+00 2.197429479743872108e-03
4.591643440156200086e+03 1.467869666521265382e+00 2.321993705087682311e-03
4.596235083596357981e+03 1.468552311348093831e+00 2.572267684157724874e-03
4.600831318679955984e+03 1.470776030642126697e+00 2.482937682969908657e-03
4.605432149998637215e+03 1.473444808573492804e+00 2.486571578803192361e-03
4.610037582148637739e+03 1.477080903710909388e+00 3.105993481236898890e-03
4.614647619730787483e+03 1.478900444083724786e+00 3.354521225521658271e-03
4.619262267350520233e+03 1.479237090566910995e+00 3.352948533696990373e-03
4.623881529617872729e+03 1.477404971817168455e+00 3.121254830736319100e-03
4.628505411147491941e+03 1.470785184505841947e+00 3.065784245101676152e-03
4.633133916558640522e+03 1.461818279018321398e+00 2.772871669104700135e-03
4.637767050475200449e+03 1.448920962398288381e+00 2.677220175227228681e-03
4.642404817525677572e+03 1.431786827793520622e+00 2.731355408272169091e-03
4.647047222343205249e+03 1.409896818789619255e+00 2.693647270232877276e-03
4.651694269565549803e+03 1.386068619580363537e+00 2.110758594429707185e-03
4.656345963835116891e+03 1.362028871842576372e+00 1.710043515549184573e-03
4.661002309798953320e+03 1.338199852913285914e+00 1.555167766135055231e-03
4.665663312108753416e+03 1.316523749029220314e+00 1.442663358887538673e-03
4.670328975420864481e+03 1.295267045317504140e+00 1.939537211317431727e-03
4.674999304396286789e+03 1.276724158467207992e+00 1.903407635716916147e-03
4.679674303700684504e+03 1.260585865969639174e+00 1.916179014514825382e-03
4.684353978004386590e+03 1.245302402413665632e+00 1.715959836908839079e-03
4.689038331982392265e+03 1.233578400930864127e+00 1.752255326754832048e-03
4.693727370314376458e+03 1.225009486347688581e+00 2.242366222999057999e-03
4.698421097684692540e+03 1.218207198242415856e+00 2.514641615241568814e-03
4.703119518782378691e+03 1.210568169411078809e+00 2.358878578389799613e-03
4.707822638301162442e+03 1.202773774656994421e+00 2.112459286976946671e-03
4.712530460939465229e+03 1.194224806370815850e+00 1.846037383904874929e-03
4.717242991400406027e+03 1.183139909081623919e+00 1.842144176534160106e-03
4.721960234391808626e+03 1.170518768923406006e+00 1.821041528887410886e-03
4.726682194626201635e+03 1.155773247186947073e+00 2.047035346899388122e-03
4.731408876820829391e+03 1.139896140623417153e+00 2.092036534788216558e-03
4.736140285697651962e+03 1.121979169862472148e+00 2.043511847537186725e-03
4.740876425983350600e+03 1.104997121719500264e+00 1.888353318502187465e-03
4.745617302409335934e+03 1.089274211909461831e+00 1.830114131131920950e-03
4.750362919711747054e+03 1.074505734878739238e+00 1.875252169571066168e-03
4.755113282631459697e+03 1.061159918202245755e+00 2.126136787555026660e-03
4.759868395914093526e+03 1.047203672148873110e+00 2.102072426778399915e-03
4.764628264310008490e+03 1.035891854421144620e+00 1.872673152463018168e-03
4.769392892574320285e+03 1.024338867732733638e+00 1.654922831952425214e-03
4.774162285466896719e+03 1.011922157725790417e+00 1.862493418987459749e-03
4.778936447752364984e+03 1.001344288771449209e+00 1.983381166845302104e-03
4.783715384200118933e+03 9.927978216008258583e-01 2.020488837009652965e-03
4.788499099584319993e+03 9.856550046978989066e-01 2.097894706252974827e-03
4.793287598683906253e+03 9.793409945573747777e-01 1.744497298729527895e-03
4.798080886282591564e+03 9.761211589001047573e-01 1.395211345539463079e-03
4.802878967168876443e+03 9.763056721558627249e-01 2.083922495040268098e-03
4.807681846136046261e+03 9.783800725384499408e-01 2.491681740750459600e-03
4.812489527982183972e+03 9.806771694003078021e-01 2.349866088465638395e-03
4.817302017510168298e+03 9.833043189039375465e-01 2.164864514702129726e-03
4.822119319527679181e+03 9.855332412804580500e-01 1.616564396160279516e-03
4.826941438847208701e+03 9.845783073749725389e-01 1.606828388247697479e-03
