# starting wavelength: 3207.440
# ending wavelength: 9993.720
# wav flux eflux
3.210468538721038840e+03 4.680410482430769070e-02 4.524096576977491846e-03
3.213679007259760965e+03 5.015511865130908853e-02 3.630821701371730013e-03
3.216892686267021418e+03 5.329124996394554031e-02 2.667479981052029055e-03
3.220109578953289656e+03 5.640929405742402952e-02 2.038892520260171797e-03
3.223329688532243836e+03 5.977223789527054409e-02 1.561555159825370230e-03
3.226553018220777176e+03 6.332896776934841820e-02 1.284974473061032763e-03
3.229779571238999324e+03 6.666122226428147779e-02 1.073786190007682082e-03
3.233009350810239084e+03 6.971495800523624942e-02 9.331586809753084901e-04
3.236242360161050783e+03 7.240942772251607318e-02 7.978107436169752133e-04
3.239478602521212906e+03 7.483778313802173787e-02 6.769485284403517229e-04
3.242718081123734919e+03 7.713397055106333000e-02 6.064224692427982793e-04
3.245960799204859995e+03 7.923673900626740374e-02 5.376973667912552041e-04
3.249206760004065927e+03 8.112397351265389356e-02 4.847026089099469278e-04
3.252455966764071036e+03 8.273029015274779852e-02 4.438751561112102098e-04
3.255708422730835991e+03 8.394498650602809364e-02 4.390371177557668122e-04
3.258964131153567905e+03 8.502889248365372299e-02 4.151301148532780295e-04
3.262223095284722604e+03 8.594531920013370740e-02 4.040340489003749615e-04
3.265485318380008266e+03 8.661995902727923080e-02 3.900052253703663752e-04
3.268750803698389518e+03 8.716103827658253089e-02 3.794817768666482486e-04
3.272019554502088795e+03 8.749917517512310894e-02 3.722689370001397847e-04
3.275291574056592253e+03 8.765845824097784345e-02 3.693077499849096047e-04
3.278566865630649772e+03 8.761572911541051778e-02 3.677004671182592136e-04
3.281845432496281319e+03 8.736799797409848523e-02 3.635161425066056173e-04
3.285127277928778767e+03 8.693462170067862982e-02 3.538591115566822281e-04
3.288412405206708627e+03 8.649000221355104823e-02 3.957310392391106277e-04
3.291700817611916591e+03 8.584936359469347300e-02 3.997537261076260988e-04
3.294992518429529355e+03 8.521095239519399511e-02 3.962357822452037691e-04
3.298287510947960072e+03 8.430351749672035377e-02 3.899394011850769210e-04
3.301585798458909267e+03 8.324075735874504611e-02 4.072470203379428767e-04
3.304887384257369376e+03 8.233006929130273766e-02 3.894893301036760264e-04
3.308192271641627485e+03 8.125473218099801831e-02 4.543016774795809523e-04
3.311500463913270323e+03 8.004835656677024291e-02 5.651757256629975825e-04
3.314811964377184722e+03 7.906313272231699218e-02 6.233541529095534090e-04
3.318126776341563072e+03 7.823785866531640654e-02 6.128823770709958783e-04
3.321444903117905596e+03 7.766334719635235861e-02 6.203259560301044957e-04
3.324766348021024896e+03 7.749207188143700242e-02 5.869285459653846796e-04
3.328091114369046863e+03 7.770927494492571586e-02 5.336521713864209168e-04
3.331419205483417045e+03 7.842818137516080479e-02 5.144592769344935547e-04
3.334750624688901553e+03 7.964390276220664755e-02 5.027508156970780752e-04
3.338085375313591612e+03 8.135164375198664088e-02 4.835395271346139604e-04
3.341423460688906289e+03 8.361816296055435416e-02 4.825102928349880968e-04
3.344764884149596128e+03 8.640045767312538871e-02 4.943605251687373855e-04
3.348109649033746791e+03 8.953293456057202782e-02 4.828975198849988558e-04
3.351457758682781787e+03 9.310170149571321552e-02 4.757835993297528402e-04
3.354809216441465651e+03 9.724076162271558244e-02 4.934789496563989769e-04
3.358164025657908041e+03 1.020294460171814327e-01 5.885607000700515332e-04
3.361522189683567376e+03 1.075953944862650252e-01 5.810451623367131682e-04
3.364883711873251741e+03 1.130895212086486246e-01 5.789454146233284897e-04
3.368248595585126168e+03 1.187218278361989038e-01 5.538421563796643455e-04
3.371616844180712633e+03 1.243057257098734159e-01 5.401366986170122019e-04
3.374988461024894150e+03 1.296930473361231906e-01 5.269535313037468013e-04
3.378363449485920228e+03 1.350745542298356083e-01 4.824307885498222283e-04
3.381741812935407324e+03 1.400655064112893144e-01 4.379119091678448797e-04
3.385123554748343849e+03 1.446711665438382144e-01 4.037362237252738466e-04
3.388508678303093347e+03 1.488185461258793030e-01 4.059786793060294317e-04
3.391897186981397681e+03 1.525937658988055223e-01 4.087544007312544372e-04
3.395289084168380214e+03 1.558775126895912966e-01 4.300902801257040970e-04
3.398684373252549449e+03 1.588672161840416486e-01 4.428725687999790928e-04
3.402083057625803121e+03 1.614211651478719700e-01 4.562255681455678539e-04
3.405485140683430018e+03 1.636899784996072027e-01 4.620440021042065081e-04
3.408890625824114522e+03 1.653817510401712487e-01 4.981209920331913874e-04
3.412299516449939802e+03 1.667986383825547925e-01 5.446983834649937349e-04
3.415711815966390986e+03 1.679137131861624388e-01 5.324433742640422408e-04
3.419127527782358356e+03 1.688904078735595227e-01 5.365510471032371295e-04
3.422546655310141887e+03 1.696594697060752610e-01 5.499387285117070473e-04
3.425969201965453522e+03 1.699389540578880864e-01 4.073831626656485147e-04
3.429395171167419903e+03 1.705677275719831298e-01 3.866970754531749862e-04
3.432824566338588284e+03 1.714089501232044788e-01 3.551394099768070359e-04
3.436257390904928343e+03 1.723248522511089398e-01 3.178791134403535432e-04
3.439693648295834464e+03 1.734441597200221952e-01 3.189065437557967223e-04
3.443133341944131189e+03 1.747863173568062756e-01 3.193729388430226971e-04
3.446576475286076402e+03 1.764348500002931031e-01 3.399472071392252090e-04
3.450023051761363604e+03 1.783596741135158592e-01 3.705418720943145171e-04
3.453473074813126004e+03 1.803486618396287211e-01 3.885829617769800525e-04
3.456926547887940615e+03 1.824436716897881727e-01 3.915633028671569637e-04
3.460383474435829612e+03 1.843314278578584986e-01 3.915444734235843695e-04
3.463843857910266706e+03 1.863417344042947732e-01 4.290236833259086628e-04
3.467307701768178049e+03 1.883404376067268904e-01 4.205109928809302208e-04
3.470775009469947236e+03 1.905916178492974844e-01 4.197800012309654935e-04
3.474245784479418489e+03 1.926021491679695830e-01 4.064209589389624721e-04
3.477720030263898934e+03 1.943530048684931066e-01 3.845487501970887138e-04
3.481197750294164052e+03 1.959006282910314978e-01 3.478694473467613588e-04
3.484678948044459503e+03 1.972266165856453868e-01 3.180980741796516275e-04
3.488163626992504760e+03 1.982043105329476251e-01 3.169836317273753371e-04
3.491651790619498570e+03 1.989313034487417142e-01 3.574998481238632407e-04
3.495143442410119405e+03 1.992653524593853698e-01 3.829181434685163051e-04
3.498638585852530468e+03 1.995171675395642497e-01 3.803133815029575504e-04
3.502137224438384237e+03 1.995482104903348597e-01 4.003171588353948381e-04
3.505639361662823831e+03 1.993745802192310734e-01 4.185203115329410163e-04
3.509145001024487556e+03 1.993654929889202565e-01 4.083459142153977829e-04
3.512654146025513455e+03 1.993166276236246204e-01 4.149019803063282098e-04
3.516166800171540217e+03 1.993079152240005147e-01 3.630568884239138107e-04
3.519682966971712631e+03 1.995937403599907789e-01 3.281256021130009716e-04
3.523202649938685681e+03 2.003044849770118097e-01 3.322229653706594067e-04
3.526725852588625457e+03 2.012179135163416899e-01 3.370740920796633168e-04
3.530252578441215064e+03 2.023442887038199856e-01 3.473857796675051133e-04
3.533782831019657806e+03 2.036702664205833901e-01 3.510074995712994441e-04
3.537316613850678550e+03 2.051776163317947099e-01 3.643288611744414083e-04
3.540853930464530094e+03 2.071206582972270338e-01 3.662279231738778938e-04
3.544394784394995895e+03 2.090434446700498161e-01 3.748634621510044964e-04
3.547939179179392340e+03 2.109895806889615921e-01 3.926759851132350623e-04
3.551487118358572843e+03 2.131353127449795437e-01 4.536323734194702955e-04
3.555038605476932389e+03 2.152514415359370603e-01 4.411170867634115985e-04
3.558593644082410719e+03 2.171116736377912138e-01 3.871307686934279905e-04
3.562152237726494150e+03 2.187039189247906856e-01 3.625960468203703034e-04
3.565714389964221937e+03 2.196681476941693134e-01 3.685540217643542031e-04
3.569280104354187188e+03 2.204645255757159417e-01 3.433345508220462215e-04
3.572849384458542772e+03 2.209399144815296367e-01 3.300214326642227579e-04
3.576422233843002232e+03 2.209941873041139648e-01 3.337946964168989170e-04
3.579998656076846601e+03 2.206489442705922288e-01 3.402662269417509660e-04
3.583578654732924406e+03 2.199201304600872375e-01 3.774000748968541386e-04
3.587162233387658489e+03 2.190186541832936096e-01 3.834556323552228119e-04
3.590749395621047370e+03 2.177636644605542848e-01 3.651254164187771171e-04
3.594340145016669794e+03 2.163823469189493642e-01 3.372721521423348691e-04
3.597934485161687462e+03 2.151486753461060719e-01 3.364969071632680463e-04
3.601532419646850485e+03 2.138897793068209319e-01 3.581621820566980360e-04
3.605133952066498296e+03 2.127495567276883048e-01 3.374747739822486683e-04
3.608739086018566013e+03 2.116564463566367182e-01 3.281536629239223814e-04
3.612347825104585809e+03 2.109839376695251123e-01 3.283307968710852268e-04
3.615960172929691907e+03 2.104242906098083288e-01 2.847695150283298632e-04
3.619576133102622407e+03 2.102381108989647140e-01 2.624249001612835456e-04
3.623195709235726554e+03 2.105510245240387879e-01 2.693441397903596551e-04
3.626818904944963379e+03 2.113377938564185154e-01 2.784879814412213753e-04
3.630445723849909427e+03 2.122534747836522795e-01 2.795729387172240826e-04
3.634076169573760581e+03 2.134389252810084681e-01 3.112876992155045501e-04
3.637710245743335690e+03 2.147997692208278020e-01 3.121989268166916660e-04
3.641347955989080219e+03 2.162472211921035725e-01 3.397764597773317340e-04
3.644989303945070333e+03 2.178235861685340891e-01 3.756417908448397196e-04
3.648634293249016537e+03 2.194993646826345901e-01 3.381218650862874734e-04
3.652282927542266862e+03 2.208032290527750241e-01 2.769461897721270773e-04
3.655935210469810499e+03 2.217188391092607957e-01 2.407907962038529064e-04
3.659591145680281443e+03 2.223252998941273595e-01 2.324639199390818344e-04
3.663250736825963031e+03 2.222329771114505692e-01 2.360307151838071703e-04
3.666913987562790226e+03 2.217199486766187611e-01 2.365913233208722982e-04
3.670580901550354156e+03 2.207266441230526233e-01 2.724980572820513139e-04
3.674251482451905758e+03 2.189361458047161535e-01 2.724011108681237870e-04
3.677925733934358959e+03 2.165191590334495653e-01 3.174521795574473297e-04
3.681603659668294313e+03 2.132339347986247913e-01 3.260779862609809536e-04
3.685285263327964003e+03 2.092257633048737464e-01 3.194652931219676213e-04
3.688970548591293209e+03 2.044131761740103637e-01 3.572570156582884526e-04
3.692659519139885560e+03 1.990635227254313744e-01 3.883886037229886297e-04
3.696352178659026777e+03 1.931866143123218138e-01 4.170878762928922120e-04
3.700048530837686940e+03 1.868865302463846856e-01 4.254850597310569837e-04
3.703748579368525952e+03 1.803682420628263394e-01 4.402078924275132040e-04
3.707452327947895355e+03 1.736098893636426055e-01 4.326830610629153620e-04
3.711159780275844696e+03 1.668602348177473382e-01 4.322299288512794317e-04
3.714870940056121526e+03 1.604044527150210731e-01 4.500748093051891766e-04
3.718585810996179134e+03 1.543158080084117978e-01 4.384551780154494704e-04
3.722304396807176545e+03 1.488637398657911837e-01 3.697552721911699257e-04
3.726026701203984885e+03 1.442321259790155241e-01 3.947333712438020606e-04
3.729752727905190113e+03 1.401455738730423561e-01 3.980837917677102367e-04
3.733482480633096657e+03 1.370615054129672994e-01 5.195804373352964044e-04
3.737215963113731050e+03 1.347604555571848550e-01 6.300452956984901919e-04
3.740953179076846027e+03 1.328631213930827615e-01 5.781660538298786720e-04
3.744694132255923705e+03 1.311375730567581055e-01 5.663064409126896412e-04
3.748438826388181042e+03 1.298512094526256822e-01 5.304163845633444105e-04
3.752187265214570289e+03 1.289516954849106445e-01 4.743070218590620161e-04
3.755939452479786269e+03 1.279820504008560567e-01 4.831925211518431611e-04
3.759695391932267285e+03 1.273984858293532307e-01 4.870838679576413861e-04
3.763455087324201031e+03 1.274497130788579402e-01 4.733934980112274298e-04
3.767218542411526414e+03 1.275235952669828143e-01 4.735128102800541423e-04
3.770985760953939007e+03 1.276814863364023334e-01 4.798395697437094843e-04
3.774756746714894234e+03 1.283395781747117270e-01 4.492637301186818062e-04
3.778531503461610555e+03 1.297512060628053243e-01 4.452480466471705860e-04
3.782310034965073100e+03 1.322866810849024077e-01 4.210641706877638014e-04
3.786092345000039586e+03 1.360987206655675519e-01 4.096550403583985151e-04
3.789878437345040766e+03 1.411909165708798430e-01 4.272910231325689930e-04
3.793668315782387253e+03 1.477002045832089827e-01 4.594778132922117532e-04
3.797461984098170888e+03 1.557592681833215864e-01 4.770724630630481270e-04
3.801259446082270188e+03 1.655008580096256898e-01 4.599527174220626380e-04
3.805060705528353537e+03 1.770499347821023473e-01 4.300438247374257757e-04
3.808865766233883278e+03 1.904413861257978902e-01 4.573805348117841209e-04
3.812674632000118436e+03 2.053171052230373383e-01 4.814930389019838404e-04
3.816487306632119726e+03 2.218213959302639260e-01 5.167589866765070735e-04
3.820303793938753188e+03 2.399662659566407230e-01 4.757936971463986231e-04
3.824124097732693372e+03 2.594036547244844559e-01 3.787255876768764584e-04
3.827948221830427428e+03 2.796364574167194972e-01 3.626297761816822955e-04
3.831776170052258749e+03 3.004402966713619061e-01 3.596092948382000705e-04
3.835607946222312421e+03 3.216025803059838761e-01 3.325500087824206246e-04
3.839443554168536139e+03 3.432139699662956067e-01 4.209212515484435238e-04
3.843282997722705659e+03 3.650174110491390955e-01 4.619945587445651778e-04
3.847126280720429804e+03 3.864347922973953020e-01 5.207368739769254948e-04
3.850973407001151372e+03 4.068559271111671927e-01 5.346575231104117726e-04
3.854824380408153957e+03 4.262140348869976059e-01 5.127833696034336331e-04
3.858679204788563311e+03 4.442860278590845535e-01 5.273728259933753871e-04
3.862537883993353262e+03 4.612938472847430416e-01 5.239020357738623061e-04
3.866400421877347981e+03 4.771551983477216874e-01 5.159426183405097909e-04
3.870266822299226533e+03 4.914808050461892952e-01 5.887275690027717013e-04
3.874137089121526969e+03 5.046149287416461515e-01 5.904457275486922879e-04
3.878011226210649966e+03 5.167157435952690614e-01 5.166397389892492947e-04
3.881889237436861549e+03 5.281693114812179290e-01 4.050645201817450734e-04
3.885771126674299921e+03 5.391473715283680024e-01 3.443495581133706562e-04
3.889656897800975457e+03 5.499614169111785023e-01 3.179269487507772733e-04
3.893546554698777527e+03 5.606350625259630682e-01 3.729272978394122069e-04
3.897440101253477678e+03 5.714788417329129677e-01 3.851575094348838298e-04
3.901337541354732366e+03 5.825767681201962089e-01 3.824645651770771791e-04
3.905238878896088409e+03 5.938295120103544988e-01 4.796132976536025480e-04
3.909144117774985716e+03 6.049057499128366322e-01 6.043087078584272707e-04
3.913053261892762293e+03 6.157649294933011941e-01 7.395900768186478361e-04
3.916966315154656058e+03 6.263019975476276091e-01 7.849036601824910210e-04
3.920883281469812118e+03 6.361717529176391661e-01 7.206194738841150338e-04
3.924804164751283224e+03 6.452355992839533538e-01 5.484737893017057600e-04
3.928728968916035683e+03 6.532407344436799157e-01 6.662597805931089147e-04
3.932657697884953450e+03 6.604629716627382630e-01 8.807547620438893393e-04
3.936590355582839493e+03 6.673062759359369434e-01 8.908173589707193800e-04
3.940526945938423523e+03 6.742543056750306407e-01 7.987208286694743448e-04
3.944467472884363360e+03 6.814093066371491592e-01 7.196505262010106712e-04
3.948411940357249023e+03 6.889225898806236037e-01 5.581505240171859674e-04
3.952360352297607733e+03 6.972549088412179907e-01 5.244273994588826912e-04
3.956312712649906643e+03 7.064079999454579983e-01 5.249159268246477751e-04
3.960269025362557841e+03 7.164675110956464366e-01 4.918938402641360227e-04
3.964229294387921527e+03 7.271698541038165153e-01 4.892788499971076387e-04
3.968193523682310570e+03 7.382402316685342525e-01 5.256939257873361523e-04
3.972161717205994591e+03 7.498017610835084890e-01 5.461541348244509497e-04
3.976133878923201792e+03 7.612789689273041782e-01 6.572682130603104116e-04
3.980110012802126221e+03 7.725624194905901243e-01 9.325952966082677164e-04
3.984090122814929600e+03 7.826506749781203531e-01 1.046230326354137931e-03
3.988074212937745870e+03 7.913318243512501571e-01 1.079257943633478998e-03
3.992062287150684824e+03 7.979775573739918970e-01 9.214830995485814684e-04
3.996054349437837118e+03 8.023126998532592591e-01 7.042661591776388933e-04
4.000050403787276082e+03 8.038488137786137244e-01 6.260719212863020923e-04
4.004050454191064546e+03 8.022626624080039237e-01 7.170089897011694240e-04
4.008054504645257111e+03 7.978652817669186215e-01 6.739532814045333864e-04
4.012062559149903791e+03 7.910096036299325561e-01 5.942946892913685431e-04
4.016074621709055009e+03 7.818362321543501636e-01 5.504509842587809948e-04
4.020090696330765240e+03 7.706140691052315583e-01 4.798692308317796984e-04
4.024110787027097558e+03 7.581260055489034144e-01 4.698524464928147668e-04
4.028134897814125907e+03 7.446817537414330834e-01 5.523485019620654780e-04
4.032163032711941469e+03 7.307052638468514161e-01 6.383753186406483171e-04
4.036195195744654484e+03 7.164628258373308967e-01 7.639922105989627611e-04
4.040231390940400615e+03 7.021368703346169138e-01 7.358381999688606411e-04
4.044271622331342314e+03 6.885374541603087595e-01 5.743139573464123380e-04
4.048315893953675186e+03 6.758378328321391626e-01 6.918500158982672250e-04
4.052364209847629809e+03 6.638247858291799197e-01 8.489829688459206696e-04
4.056416574057479011e+03 6.525510868948110055e-01 8.919673057464899951e-04
4.060472990631537868e+03 6.414601954334305800e-01 8.389978076734698432e-04
4.064533463622170530e+03 6.305124298550359718e-01 6.252722126265848092e-04
4.068597997085794304e+03 6.191470339043603222e-01 5.544678675303922524e-04
4.072666595082881486e+03 6.076325335846937126e-01 5.036148213108575331e-04
4.076739261677965715e+03 5.956291854681042830e-01 5.007112137698985221e-04
4.080816000939644709e+03 5.829598048657899101e-01 4.777692136818693035e-04
4.084896816940585722e+03 5.702170007515116046e-01 4.538809948202504672e-04
4.088981713757527814e+03 5.574133355855438454e-01 4.551165836838213662e-04
4.093070695471286854e+03 5.446134402552864628e-01 4.301595362784051461e-04
4.097163766166759160e+03 5.322902791951920065e-01 4.084013520216512715e-04
4.101260929932927866e+03 5.205701210349117369e-01 4.043029884706491293e-04
4.105362190862862008e+03 5.093672659591113039e-01 4.411339580875486615e-04
4.109467553053726078e+03 4.989286831839158110e-01 4.816010045208167847e-04
4.113577020606780934e+03 4.892065664802042746e-01 4.334811810504190068e-04
4.117690597627389252e+03 4.803871848934148092e-01 2.914932087946606881e-04
4.121808288225018259e+03 4.729485744667875080e-01 4.104550289254660258e-04
4.125930096513244280e+03 4.665650741177146954e-01 5.059179324332883920e-04
4.130056026609759101e+03 4.609626912657309727e-01 4.974714137311525087e-04
4.134186082636369974e+03 4.560560917414189785e-01 4.065970639154418650e-04
4.138320268719007800e+03 4.517145909648780933e-01 4.132653325952044781e-04
4.142458588987728035e+03 4.479797003126000932e-01 4.844383383199873266e-04
4.146601047576717065e+03 4.450300223693153812e-01 4.536782065112788371e-04
4.150747648624294925e+03 4.430374956536232700e-01 4.543745477969980944e-04
4.154898396272920763e+03 4.417995595044587609e-01 4.532038341630187199e-04
4.159053294669195566e+03 4.411072892228489195e-01 4.598608998569412177e-04
4.163212347963865795e+03 4.414643971341841722e-01 4.798592518451872432e-04
4.167375560311830668e+03 4.428096995745175457e-01 4.465333606688545796e-04
4.171542935872143971e+03 4.452990530761139487e-01 4.482101115635867038e-04
4.175714478808017702e+03 4.489575656507275303e-01 4.822661760163955984e-04
4.179890193286827525e+03 4.531690766145699545e-01 4.590937630933488085e-04
