# starting wavelength: 3715.100
# ending wavelength: 7622.310
# wav flux eflux
3.718585810996179134e+03 2.858059583532087666e-01 1.269397104988539450e-02
3.722304396807176545e+03 2.957691605223001230e-01 9.841544514620584674e-03
3.726026701203984885e+03 3.012373266196302635e-01 7.955684091599758354e-03
3.729752727905190113e+03 3.029017364507871068e-01 7.881386056873085008e-03
3.733482480633096657e+03 3.050920852252997917e-01 6.542015496260615050e-03
3.737215963113731050e+03 3.065726306643751231e-01 5.890262864552801153e-03
3.740953179076846027e+03 3.085417745532258449e-01 4.817215898614066530e-03
3.744694132255923705e+03 3.106270711260311068e-01 4.765811168788691363e-03
3.748438826388181042e+03 3.132241353473841361e-01 4.509229234587242875e-03
3.752187265214570289e+03 3.155327793679525983e-01 4.124814042760063804e-03
3.755939452479786269e+03 3.177671181951277624e-01 3.925935296871629898e-03
3.759695391932267285e+03 3.192814083100113387e-01 3.729288775089972981e-03
3.763455087324201031e+03 3.176121567135012369e-01 3.681015476473722178e-03
3.767218542411526414e+03 3.153084703001663436e-01 3.610790601395259987e-03
3.770985760953939007e+03 3.121765687401893419e-01 3.654166068330297942e-03
3.774756746714894234e+03 3.089076294642830733e-01 3.724899331009472268e-03
3.778531503461610555e+03 3.073039358791243569e-01 3.819997063945545362e-03
3.782310034965073100e+03 3.051696351005419028e-01 3.909912557012232975e-03
3.786092345000039586e+03 3.040095643944642489e-01 3.974081738098551864e-03
3.789878437345040766e+03 3.035834936612976653e-01 4.120123968019079666e-03
3.793668315782387253e+03 3.042832120619121672e-01 4.364599609297640376e-03
3.797461984098170888e+03 3.047814071925207258e-01 4.681013024268355915e-03
3.801259446082270188e+03 3.074465229063859106e-01 4.615214786268023207e-03
3.805060705528353537e+03 3.139506981043617140e-01 4.187546510297023711e-03
3.808865766233883278e+03 3.235870590065233476e-01 3.835599548605967812e-03
3.812674632000118436e+03 3.361911229412680724e-01 3.627989331938760199e-03
3.816487306632119726e+03 3.509288125638954647e-01 3.219730137010889254e-03
3.820303793938753188e+03 3.691697578934890478e-01 3.178043051100442641e-03
3.824124097732693372e+03 3.922478031459379899e-01 3.462339548409420348e-03
3.827948221830427428e+03 4.184691949771571218e-01 3.661882586433099981e-03
3.831776170052258749e+03 4.487325601550883891e-01 3.759456516977589206e-03
3.835607946222312421e+03 4.831563950726274204e-01 3.397346442213182178e-03
3.839443554168536139e+03 5.178524181129242621e-01 2.851518873419546692e-03
3.843282997722705659e+03 5.536725656483020286e-01 2.705723675825958286e-03
3.847126280720429804e+03 5.905984094263512230e-01 2.683997709488326628e-03
3.850973407001151372e+03 6.276958422493768008e-01 2.768619734309942220e-03
3.854824380408153957e+03 6.643688536421371582e-01 2.722692435507613560e-03
3.858679204788563311e+03 6.991759738286842385e-01 2.740057602877503298e-03
3.862537883993353262e+03 7.330494479983903355e-01 2.641467519674403543e-03
3.866400421877347981e+03 7.638337413811236987e-01 2.774211587430905519e-03
3.870266822299226533e+03 7.935904503358727213e-01 2.946518113916729749e-03
3.874137089121526969e+03 8.223433796032917353e-01 3.075075620547865728e-03
3.878011226210649966e+03 8.489150050124659730e-01 3.158140677696966506e-03
3.881889237436861549e+03 8.746772587917248654e-01 3.132591423344337992e-03
3.885771126674299921e+03 8.972134343439789328e-01 3.228657589952470784e-03
3.889656897800975457e+03 9.171393500254413356e-01 2.717087067556115624e-03
3.893546554698777527e+03 9.362107263926064959e-01 2.680227381960798363e-03
3.897440101253477678e+03 9.525078077560217293e-01 2.674886990442178376e-03
3.901337541354732366e+03 9.680672322873323798e-01 2.887980935410470497e-03
3.905238878896088409e+03 9.824122696734634008e-01 3.188137235931275126e-03
3.909144117774985716e+03 9.934660065242452154e-01 3.074428462143546231e-03
3.913053261892762293e+03 1.001520060262748313e+00 3.227152079286325394e-03
3.916966315154656058e+03 1.007567031237288635e+00 3.210744327921051609e-03
3.920883281469812118e+03 1.011509771448780404e+00 3.221763547654328888e-03
3.924804164751283224e+03 1.015964555775398903e+00 3.014545579307492153e-03
3.928728968916035683e+03 1.015704353561722062e+00 3.401650835660769302e-03
3.932657697884953450e+03 1.013334049501493750e+00 3.814373497191289250e-03
3.936590355582839493e+03 1.010851332855166262e+00 3.853160371348928175e-03
3.940526945938423523e+03 1.007982743020710226e+00 3.858661256606541346e-03
3.944467472884363360e+03 1.003488745554672823e+00 3.712990167469505491e-03
3.948411940357249023e+03 9.992340861042282585e-01 3.629627300029995059e-03
3.952360352297607733e+03 9.934362266795573326e-01 3.365385207071597534e-03
3.956312712649906643e+03 9.895117536668455172e-01 3.372957092037477678e-03
3.960269025362557841e+03 9.869219455516776707e-01 3.328448870791628385e-03
3.964229294387921527e+03 9.858830730009219279e-01 3.167416994848091649e-03
3.968193523682310570e+03 9.847185516871154176e-01 3.497927422358282964e-03
3.972161717205994591e+03 9.844597802892469662e-01 3.993677887400000869e-03
3.976133878923201792e+03 9.872502092761247239e-01 4.072849101218841382e-03
3.980110012802126221e+03 9.914112120638378656e-01 4.107481503015792713e-03
3.984090122814929600e+03 9.990110641370499867e-01 4.114443249391776941e-03
3.988074212937745870e+03 1.007852489596703149e+00 4.317442243615490956e-03
3.992062287150684824e+03 1.017966559693286754e+00 4.242782772155950788e-03
3.996054349437837118e+03 1.030190777934105517e+00 4.368426943767852837e-03
4.000050403787276082e+03 1.043934959658465500e+00 4.489982230028093796e-03
4.004050454191064546e+03 1.059147038660072537e+00 4.529986406406142849e-03
4.008054504645257111e+03 1.074245952536916793e+00 4.354675189030326674e-03
4.012062559149903791e+03 1.085895602797461779e+00 4.323174510512679813e-03
4.016074621709055009e+03 1.095870268277012949e+00 4.419230067445998993e-03
4.020090696330765240e+03 1.104559812692625487e+00 3.925437849653722749e-03
4.024110787027097558e+03 1.108941014192789565e+00 4.180634988943799160e-03
4.028134897814125907e+03 1.109282502110729762e+00 3.551341858582247792e-03
4.032163032711941469e+03 1.105473263454212818e+00 3.228911946058399263e-03
4.036195195744654484e+03 1.101611021857039852e+00 3.100830670896380283e-03
4.040231390940400615e+03 1.095830584108371530e+00 3.310977706642335462e-03
4.044271622331342314e+03 1.088168131662363480e+00 3.636596650091927091e-03
4.048315893953675186e+03 1.078115105093831350e+00 3.621556217108805060e-03
4.052364209847629809e+03 1.065002534580155258e+00 3.574637394491091136e-03
4.056416574057479011e+03 1.051508623607272153e+00 3.457521477810526680e-03
4.060472990631537868e+03 1.036173193531110703e+00 3.168042026646180308e-03
4.064533463622170530e+03 1.016995608794041717e+00 3.195800638615221845e-03
4.068597997085794304e+03 9.963411670356212557e-01 3.295294340910121574e-03
4.072666595082881486e+03 9.764474854295237538e-01 3.312339765631229071e-03
4.076739261677965715e+03 9.554757597694735205e-01 3.567942071378028650e-03
4.080816000939644709e+03 9.352370125810548496e-01 3.299793661910090190e-03
4.084896816940585722e+03 9.157460492454613243e-01 2.951453253789113138e-03
4.088981713757527814e+03 9.015587114212540998e-01 2.851911699520481413e-03
4.093070695471286854e+03 8.920825101097447085e-01 3.336895077128024766e-03
4.097163766166759160e+03 8.850650231769668919e-01 3.300960163430430132e-03
4.101260929932927866e+03 8.811532589132259341e-01 3.138870423238109258e-03
4.105362190862862008e+03 8.795344250375116690e-01 2.925537967929865788e-03
4.109467553053726078e+03 8.782738035433547141e-01 3.125300647382739990e-03
4.113577020606780934e+03 8.801471850403491670e-01 3.206926443467108222e-03
4.117690597627389252e+03 8.819950359178121424e-01 3.287325283108957080e-03
4.121808288225018259e+03 8.853762159993786574e-01 3.303251215469227200e-03
4.125930096513244280e+03 8.880077343438350645e-01 2.969300336592984625e-03
4.130056026609759101e+03 8.892368301650896978e-01 2.849281726144997379e-03
4.134186082636369974e+03 8.880144886058618514e-01 2.836731760934133734e-03
4.138320268719007800e+03 8.839432397075346337e-01 2.728609909463767212e-03
4.142458588987728035e+03 8.788084701356666528e-01 2.822655003154225448e-03
4.146601047576717065e+03 8.702034214429034131e-01 2.794045397241344628e-03
4.150747648624294925e+03 8.594710455738183708e-01 2.687150701944104100e-03
4.154898396272920763e+03 8.457394697482941703e-01 2.684440619982397195e-03
4.159053294669195566e+03 8.285125877228094460e-01 3.114107232012983551e-03
4.163212347963865795e+03 8.109065030460714807e-01 3.175523724873007079e-03
4.167375560311830668e+03 7.924075143811684097e-01 2.466166176496681090e-03
4.171542935872143971e+03 7.780971908731164621e-01 2.454506991830078966e-03
4.175714478808017702e+03 7.666548863924413926e-01 2.547408694155635887e-03
4.179890193286827525e+03 7.563997414872254410e-01 2.507507494248254701e-03
4.184070083480115500e+03 7.485024570230219831e-01 2.425593780212274321e-03
4.188254153563597356e+03 7.431946252877917880e-01 2.254992129419687574e-03
4.192442407717161586e+03 7.441673398538022344e-01 2.144253071585236915e-03
4.196634850124880359e+03 7.489681557706038273e-01 1.965054817100987065e-03
4.200831484975006788e+03 7.569809193347731835e-01 1.929807215460636058e-03
4.205032316459983122e+03 7.675059253795634140e-01 1.867541380178554559e-03
4.209237348776444378e+03 7.820517935315673963e-01 2.629194266413105181e-03
4.213446586125221984e+03 7.972519388742084212e-01 2.828838174856986715e-03
4.217660032711349231e+03 8.128310252820030168e-01 2.799771352159442610e-03
4.221877692744061278e+03 8.301459430883550983e-01 2.875256625916199158e-03
4.226099570436806971e+03 8.461323934972349026e-01 2.735461610734216467e-03
4.230325670007245208e+03 8.609996578832530556e-01 2.362266365189408246e-03
4.234555995677254032e+03 8.730385628742028947e-01 2.876583013201674394e-03
4.238790551672932452e+03 8.827721284527556556e-01 3.175074568686415185e-03
4.243029342224606808e+03 8.920719099400749030e-01 2.941613376972402986e-03
4.247272371566832589e+03 8.999204738447119656e-01 2.573636378523519626e-03
4.251519643938400804e+03 9.072083320720920607e-01 2.862085045123042779e-03
4.255771163582340705e+03 9.137954169593303089e-01 3.190141338245363646e-03
4.260026934745924336e+03 9.174124682718154400e-01 3.063488033769553188e-03
4.264286961680671993e+03 9.184762399321968473e-01 2.829494399324508028e-03
4.268551248642354039e+03 9.160090936991343025e-01 2.915669252948160754e-03
4.272819799890998183e+03 9.116374524431065662e-01 3.298724340216551820e-03
4.277092619690890388e+03 9.049082680996943795e-01 3.827004957080401212e-03
4.281369712310583054e+03 8.978277606910758379e-01 3.481090645973238060e-03
4.285651082022895025e+03 8.906120010196874048e-01 2.982169097987022802e-03
4.289936733104918858e+03 8.866295457286089698e-01 2.956001355719862188e-03
4.294226669838025373e+03 8.830733962617886013e-01 2.708111865526776577e-03
4.298520896507864563e+03 8.815716250581381308e-01 2.965088560632679008e-03
4.302819417404373780e+03 8.841973977115454852e-01 3.721773960458298666e-03
4.307122236821779552e+03 8.856494247514404838e-01 2.993863275601635517e-03
4.311429359058603040e+03 8.857870041758730828e-01 2.344914932429493452e-03
4.315740788417662770e+03 8.838289091937321373e-01 2.823076402436467281e-03
4.320056529206081905e+03 8.810087389082160714e-01 3.054515417191389776e-03
4.324376585735290064e+03 8.784422006608630928e-01 2.997645463070809733e-03
4.328700962321026054e+03 8.760667525524862276e-01 2.741247744122473750e-03
4.333029663283348782e+03 8.739449818286902927e-01 2.490900469247997549e-03
4.337362692946633615e+03 8.733832011631211811e-01 2.641378059778225120e-03
4.341700055639581478e+03 8.731561119800325121e-01 2.728104263141688853e-03
4.346041755695222491e+03 8.739407462124120229e-01 2.578223740676044515e-03
4.350387797450919606e+03 8.742945934909661654e-01 2.567509946598526063e-03
4.354738185248371337e+03 8.753146519262341441e-01 2.526726784801904425e-03
4.359092923433621763e+03 8.759581615073993577e-01 2.675759438467058878e-03
4.363452016357056891e+03 8.775527301321588425e-01 2.703322288272017558e-03
4.367815468373414660e+03 8.782980098374261191e-01 2.466289758530943767e-03
4.372183283841789489e+03 8.799617633344253287e-01 2.502964375179209632e-03
4.376555467125633186e+03 8.809639338620680604e-01 2.657807107686769102e-03
4.380932022592760404e+03 8.823093309432471498e-01 3.013908627832660465e-03
4.385312954615354101e+03 8.841446350011855637e-01 2.135984219704891492e-03
4.389698267569970994e+03 8.822711496502189110e-01 1.907099494801158370e-03
4.394087965837542470e+03 8.784436037453946522e-01 2.122266010889147479e-03
4.398482053803381859e+03 8.726307311706757996e-01 2.446858339633809463e-03
4.402880535857186260e+03 8.661083744225930303e-01 2.428405814788129561e-03
4.407283416393044718e+03 8.590742559715256466e-01 2.251009509961889987e-03
4.411690699809440048e+03 8.523717016389702472e-01 1.964581110803276676e-03
4.416102390509250654e+03 8.465001650896896157e-01 1.706185742420455662e-03
4.420518492899761441e+03 8.429901328925537562e-01 2.078754167353851628e-03
4.424939011392662906e+03 8.406807164304110902e-01 2.155976466116445774e-03
4.429363950404056595e+03 8.395335643165869888e-01 1.917320001400839649e-03
4.433793314354462382e+03 8.392939147703393221e-01 1.986379679612114771e-03
4.438227107668818462e+03 8.413438323618669390e-01 2.255183332570924373e-03
4.442665334776488635e+03 8.451859309867311154e-01 2.447736733413853356e-03
4.447108000111265937e+03 8.522422686297813632e-01 2.299772578488654823e-03
4.451555108111379013e+03 8.629147605222122763e-01 1.821316720876265923e-03
4.456006663219492111e+03 8.772451366496593073e-01 1.573861462854186802e-03
4.460462669882713271e+03 8.964899749294416020e-01 1.465569709843695875e-03
4.464923132552597053e+03 9.208348515568958170e-01 1.605537405830297732e-03
4.469388055685150903e+03 9.494501683077971599e-01 1.589900049129670812e-03
4.473857443740837880e+03 9.800801159824549247e-01 1.758019999836636649e-03
4.478331301184580298e+03 1.012512412035804221e+00 1.657863779153659865e-03
4.482809632485766087e+03 1.045403353120463841e+00 1.601498941757499052e-03
4.487292442118253348e+03 1.077619102698521125e+00 1.394134414178576416e-03
4.491779734560373072e+03 1.107862213137283947e+00 1.611200050439814133e-03
4.496271514294934605e+03 1.134600523269780892e+00 1.555746743542057130e-03
4.500767785809231100e+03 1.157739988122020058e+00 2.019330372276138472e-03
4.505268553595042249e+03 1.179139071393411120e+00 2.337158047458086276e-03
4.509773822148638828e+03 1.198217973735605790e+00 2.834966097896207161e-03
4.514283595970789065e+03 1.215856798345163359e+00 3.059626519327748092e-03
4.518797879566761367e+03 1.233229024828370157e+00 2.663018477278005815e-03
4.523316677446328868e+03 1.251430846025552102e+00 2.106209935799554546e-03
4.527839994123776705e+03 1.271251427800870859e+00 2.720031330530840469e-03
4.532367834117902021e+03 1.291327092048946579e+00 2.965124772631817004e-03
4.536900201952022144e+03 1.311379364729857722e+00 2.658922748925864662e-03
4.541437102153975502e+03 1.329664506955657410e+00 2.660018609407058341e-03
4.545978539256130716e+03 1.348150927199857296e+00 2.509790450653704916e-03
4.550524517795388419e+03 1.365421993374247078e+00 2.371544731238084576e-03
4.555075042313184895e+03 1.380804216779717652e+00 2.326001252588112602e-03
4.559630117355500261e+03 1.393852841458574465e+00 2.336155628954330807e-03
4.564189747472856652e+03 1.403507872432814496e+00 2.249034785801348486e-03
4.568753937220330954e+03 1.411419850924433339e+00 2.109158058490546474e-03
4.573322691157552981e+03 1.418549800749716150e+00 2.409803826909737157e-03
4.577896013848711846e+03 1.423830321244156094e+00 2.220053305597819663e-03
4.582473909862562323e+03 1.426606833464301172e+00 2.396803455130748495e-03
4.587056383772426670e+03 1.427461464778924105e+00 2.860174678922345042e-03
4.591643440156200086e+03 1.428565621761975546e+00 2.930892504585783358e-03
4.596235083596357981e+03 1.428455741173537019e+00 2.812275599948834033e-03
4.600831318679955984e+03 1.428118487299911532e+00 2.423161654187808156e-03
4.605432149998637215e+03 1.428070897463844746e+00 2.481503379704774054e-03
4.610037582148637739e+03 1.428625674836942805e+00 2.985511036286740694e-03
4.614647619730787483e+03 1.429097816655281683e+00 2.740944498977771360e-03
4.619262267350520233e+03 1.427314456063064618e+00 2.322840617266848373e-03
4.623881529617872729e+03 1.423188499733661239e+00 2.034663444937348173e-03
4.628505411147491941e+03 1.415319677048327174e+00 2.168821769257720487e-03
4.633133916558640522e+03 1.405643661845753289e+00 2.339566755225805893e-03
4.637767050475200449e+03 1.393578716372641191e+00 2.602779120958487527e-03
4.642404817525677572e+03 1.380305527162846158e+00 2.633010800816643331e-03
4.647047222343205249e+03 1.366299393287469188e+00 2.580611059839328387e-03
4.651694269565549803e+03 1.352245256229315906e+00 1.434209871959391284e-03
4.656345963835116891e+03 1.341205064679235059e+00 1.950726458909771794e-03
4.661002309798953320e+03 1.332361146933442875e+00 2.361984830672609822e-03
4.665663312108753416e+03 1.322598949047194772e+00 2.216231368884045202e-03
4.670328975420864481e+03 1.312658710160654385e+00 2.030962335587917136e-03
4.674999304396286789e+03 1.302062605901631809e+00 1.907794123016175571e-03
4.679674303700684504e+03 1.291125222286497065e+00 1.648259296173086716e-03
4.684353978004386590e+03 1.277996217541958357e+00 1.663438230873319967e-03
4.689038331982392265e+03 1.263594316974167242e+00 1.689322944027313832e-03
4.693727370314376458e+03 1.247972182759791604e+00 1.697600060280882563e-03
4.698421097684692540e+03 1.231499305404982536e+00 1.681383289607439428e-03
4.703119518782378691e+03 1.214629590957372773e+00 1.567650188306289908e-03
4.707822638301162442e+03 1.197617025143266734e+00 1.536025493691710883e-03
4.712530460939465229e+03 1.180997980705630113e+00 1.503686739066460330e-03
4.717242991400406027e+03 1.163899081866987872e+00 1.777739058435352662e-03
4.721960234391808626e+03 1.147983992823990107e+00 2.200378667059460416e-03
4.726682194626201635e+03 1.133836695502723257e+00 2.281530026917189327e-03
4.731408876820829391e+03 1.121774415908540767e+00 2.256040377954472795e-03
4.736140285697651962e+03 1.110610392523383227e+00 2.338279899135798767e-03
4.740876425983350600e+03 1.100631516912553787e+00 2.775863315780835883e-03
4.745617302409335934e+03 1.092217938486023776e+00 2.797280976339683225e-03
4.750362919711747054e+03 1.082935279148970142e+00 2.450375972915524916e-03
4.755113282631459697e+03 1.071487475408699597e+00 2.328601805374213955e-03
4.759868395914093526e+03 1.059103032455210869e+00 2.200997929928689284e-03
4.764628264310008490e+03 1.045321452672242524e+00 2.186003656261824996e-03
4.769392892574320285e+03 1.030472713193726353e+00 2.231375339934695261e-03
4.774162285466896719e+03 1.013930720727092449e+00 2.440196604057322336e-03
4.778936447752364984e+03 9.974638713801873280e-01 2.312171741608311237e-03
4.783715384200118933e+03 9.821337787683609433e-01 1.788599235232957987e-03
4.788499099584319993e+03 9.685674626907415652e-01 1.295084006472344961e-03
4.793287598683906253e+03 9.592979445947951156e-01 1.210932295092395248e-03
4.798080886282591564e+03 9.541163131302147216e-01 1.165838876016230246e-03
4.802878967168876443e+03 9.525047913555155787e-01 1.298433350338029733e-03
4.807681846136046261e+03 9.541726367301728295e-01 1.507161788794119132e-03
4.812489527982183972e+03 9.600470690942176644e-01 1.342863382859148811e-03
4.817302017510168298e+03 9.699314696966728766e-01 2.071807690194665905e-03
4.822119319527679181e+03 9.825024784422352608e-01 2.731652189492732915e-03
4.826941438847208701e+03 9.958845500543982432e-01 2.862935422351903497e-03
4.831768380286057436e+03 1.009013995606255598e+00 2.664519859389752679e-03
4.836600148666345376e+03 1.020217913347405192e+00 2.126664464861174192e-03
4.841436748815013743e+03 1.028882460253158992e+00 1.818396221997827140e-03
