# starting wavelength: 3711.390
# ending wavelength: 7614.700
# wav flux eflux
3.714870940056121526e+03 3.618677843068647260e-01 1.164668436184108924e-02
3.718585810996179134e+03 3.695910626257900566e-01 1.247092637282518936e-02
3.722304396807176545e+03 3.770478527437223781e-01 1.092550334654088934e-02
3.726026701203984885e+03 3.859790247187557255e-01 8.796563094225360452e-03
3.729752727905190113e+03 3.960499337328685643e-01 7.028330172251220399e-03
3.733482480633096657e+03 4.053222793746900643e-01 5.753587429406433265e-03
3.737215963113731050e+03 4.133619227948622243e-01 4.703316973059872182e-03
3.740953179076846027e+03 4.203719441555437419e-01 3.990805243533284731e-03
3.744694132255923705e+03 4.260824115045597771e-01 3.488595545971811315e-03
3.748438826388181042e+03 4.308898540896550222e-01 3.092916392246364537e-03
3.752187265214570289e+03 4.339159551394806691e-01 2.883884785618313646e-03
3.755939452479786269e+03 4.358812285656247232e-01 2.708744074304977878e-03
3.759695391932267285e+03 4.367058189253276157e-01 2.620699731273130363e-03
3.763455087324201031e+03 4.366862094018396645e-01 2.592667410229227212e-03
3.767218542411526414e+03 4.353616596824448903e-01 2.868763444523050182e-03
3.770985760953939007e+03 4.343257123651287355e-01 2.989180157702302307e-03
3.774756746714894234e+03 4.348540757048596217e-01 3.064724059756671407e-03
3.778531503461610555e+03 4.345205171992173598e-01 3.147197610208865657e-03
3.782310034965073100e+03 4.345060023250190140e-01 3.198362395544185246e-03
3.786092345000039586e+03 4.359231258711496748e-01 3.074653419093251964e-03
3.789878437345040766e+03 4.386111727820196093e-01 3.024235713697046891e-03
3.793668315782387253e+03 4.411799990920026171e-01 2.893950449993317083e-03
3.797461984098170888e+03 4.455313488940912947e-01 2.931566809341546506e-03
3.801259446082270188e+03 4.509955514953507549e-01 3.054493745798025905e-03
3.805060705528353537e+03 4.578500486702987704e-01 3.255237260501283973e-03
3.808865766233883278e+03 4.658289565378708752e-01 3.432966940778709244e-03
3.812674632000118436e+03 4.746523782509147749e-01 3.480166789264649545e-03
3.816487306632119726e+03 4.843580268195788463e-01 3.292009083686883199e-03
3.820303793938753188e+03 4.945153863396076765e-01 3.089944533457269094e-03
3.824124097732693372e+03 5.051086859479696489e-01 3.237154993281970029e-03
3.827948221830427428e+03 5.168273998994167284e-01 3.364205949797619780e-03
3.831776170052258749e+03 5.284510823036858707e-01 3.728712094661532431e-03
3.835607946222312421e+03 5.411556397493842985e-01 3.637015610394202150e-03
3.839443554168536139e+03 5.542627986562630449e-01 3.338896188796444675e-03
3.843282997722705659e+03 5.692671083728358949e-01 3.438041571858571534e-03
3.847126280720429804e+03 5.850951333562647294e-01 3.657445466500404765e-03
3.850973407001151372e+03 6.016349675346207571e-01 3.956691630433383476e-03
3.854824380408153957e+03 6.165852893521829303e-01 4.093536842545926306e-03
3.858679204788563311e+03 6.322231945939255082e-01 4.262332818261334311e-03
3.862537883993353262e+03 6.462403617761831587e-01 4.253122419656083994e-03
3.866400421877347981e+03 6.606142344612969675e-01 4.247572224997523023e-03
3.870266822299226533e+03 6.764192229773430265e-01 4.280393102390604200e-03
3.874137089121526969e+03 6.911029662575606247e-01 3.998983753651025493e-03
3.878011226210649966e+03 7.033538245842553271e-01 3.931845427839520540e-03
3.881889237436861549e+03 7.145255721187756537e-01 3.970712091603916666e-03
3.885771126674299921e+03 7.249816627100867938e-01 3.994120920542894825e-03
3.889656897800975457e+03 7.334872743077710533e-01 4.166885278841911747e-03
3.893546554698777527e+03 7.410828002825063932e-01 4.177959389010359702e-03
3.897440101253477678e+03 7.467550120581426532e-01 4.154584169645795903e-03
3.901337541354732366e+03 7.512933316185608223e-01 3.952229685391747509e-03
3.905238878896088409e+03 7.558058665035649604e-01 3.468972219404585500e-03
3.909144117774985716e+03 7.610678014058143148e-01 3.722211884049533240e-03
3.913053261892762293e+03 7.671036588401525247e-01 4.154807622016328146e-03
3.916966315154656058e+03 7.734982254008835323e-01 4.607049888732461969e-03
3.920883281469812118e+03 7.795950721588690291e-01 4.551889733380196784e-03
3.924804164751283224e+03 7.847508358345288704e-01 4.025974665778997777e-03
3.928728968916035683e+03 7.883904909585375265e-01 3.920429097260421519e-03
3.932657697884953450e+03 7.935038635853512989e-01 3.810628226824264598e-03
3.936590355582839493e+03 7.948731919454719019e-01 4.509634554804581828e-03
3.940526945938423523e+03 7.966529145274124923e-01 4.693533028967211175e-03
3.944467472884363360e+03 7.997100091973735614e-01 4.591064562422095610e-03
3.948411940357249023e+03 8.021280374550812109e-01 4.341925225934291192e-03
3.952360352297607733e+03 8.069006372071692024e-01 4.267818218047515419e-03
3.956312712649906643e+03 8.127268394453188716e-01 4.260366394075117830e-03
3.960269025362557841e+03 8.196167823010253040e-01 4.242735178184926098e-03
3.964229294387921527e+03 8.280936007620721684e-01 4.244015397242034693e-03
3.968193523682310570e+03 8.374949783348555332e-01 4.223222484643730963e-03
3.972161717205994591e+03 8.482971473073804836e-01 4.247231405082855030e-03
3.976133878923201792e+03 8.626927450230801320e-01 4.254536401601533013e-03
3.980110012802126221e+03 8.802011762095353076e-01 4.159787221505708600e-03
3.984090122814929600e+03 8.980256612220193224e-01 4.082749150615675414e-03
3.988074212937745870e+03 9.146241062795753551e-01 4.094292055947052790e-03
3.992062287150684824e+03 9.317994304871722866e-01 4.085448243715890555e-03
3.996054349437837118e+03 9.476292383998456970e-01 4.112907905105224991e-03
4.000050403787276082e+03 9.639095538093471749e-01 3.968796210784224406e-03
4.004050454191064546e+03 9.792282102498918173e-01 3.902075324810916519e-03
4.008054504645257111e+03 9.952490623617032961e-01 4.741417245684132267e-03
4.012062559149903791e+03 1.008449230936547591e+00 4.761505468563673182e-03
4.016074621709055009e+03 1.021681141171701723e+00 4.701710216956903401e-03
4.020090696330765240e+03 1.031632848010939352e+00 3.823505933483610335e-03
4.024110787027097558e+03 1.037570830535634148e+00 3.790498127753894487e-03
4.028134897814125907e+03 1.035677163808492951e+00 4.746571232722561484e-03
4.032163032711941469e+03 1.032300247505366864e+00 4.690806658261848297e-03
4.036195195744654484e+03 1.027805763627359426e+00 4.478317703076390398e-03
4.040231390940400615e+03 1.023837689959288921e+00 4.452292020321617708e-03
4.044271622331342314e+03 1.018204335536410987e+00 4.417890036613364955e-03
4.048315893953675186e+03 1.012085008720364998e+00 4.414750641795354112e-03
4.052364209847629809e+03 1.004230191662556670e+00 4.568447942946266861e-03
4.056416574057479011e+03 9.969682599538645107e-01 4.856267168676414898e-03
4.060472990631537868e+03 9.886772234755835109e-01 5.235387715335518451e-03
4.064533463622170530e+03 9.815157420631319685e-01 5.234276427667741878e-03
4.068597997085794304e+03 9.713034470733393766e-01 3.973647656011828483e-03
4.072666595082881486e+03 9.577474703914758969e-01 3.732496814006016749e-03
4.076739261677965715e+03 9.394107042953047104e-01 4.648332580071922598e-03
4.080816000939644709e+03 9.185595582094162603e-01 4.894675265051386462e-03
4.084896816940585722e+03 8.964969894914976978e-01 3.839250598105687588e-03
4.088981713757527814e+03 8.767156446456503271e-01 3.621584978576812205e-03
4.093070695471286854e+03 8.557113513885487022e-01 3.472331030254391816e-03
4.097163766166759160e+03 8.393396756635250755e-01 3.893315415769598494e-03
4.101260929932927866e+03 8.237749735450266009e-01 3.634539449435524386e-03
4.105362190862862008e+03 8.087086327812984532e-01 3.454902081907428903e-03
4.109467553053726078e+03 7.944645994087121688e-01 3.639623479307331922e-03
4.113577020606780934e+03 7.813040938700602789e-01 3.779381750673539448e-03
4.117690597627389252e+03 7.720450371093114939e-01 3.846724084329809779e-03
4.121808288225018259e+03 7.665146889987797252e-01 3.939566020559549971e-03
4.125930096513244280e+03 7.632018205833163149e-01 3.910801333554992862e-03
4.130056026609759101e+03 7.598621001615979420e-01 3.635119201834887369e-03
4.134186082636369974e+03 7.602476612945127110e-01 3.429351395170155466e-03
4.138320268719007800e+03 7.647170736152473225e-01 3.831949401984877535e-03
4.142458588987728035e+03 7.713461513407334769e-01 3.985837844411380115e-03
4.146601047576717065e+03 7.786745140385555874e-01 3.353740916814722250e-03
4.150747648624294925e+03 7.842706487956093708e-01 3.027794949470500371e-03
4.154898396272920763e+03 7.884461057569357445e-01 2.662130700672271470e-03
4.159053294669195566e+03 7.882838017952633614e-01 3.049267660618775432e-03
4.163212347963865795e+03 7.874116706069925753e-01 2.675322893530054577e-03
4.167375560311830668e+03 7.851897824292913830e-01 2.438003202062712701e-03
4.171542935872143971e+03 7.843203251624695227e-01 2.446283896472895101e-03
4.175714478808017702e+03 7.830837712958681474e-01 2.507972878560997196e-03
4.179890193286827525e+03 7.810717236907563921e-01 2.571668554526338954e-03
4.184070083480115500e+03 7.775675387859518617e-01 2.599085983595139041e-03
4.188254153563597356e+03 7.738132393218027927e-01 2.586187653677943146e-03
4.192442407717161586e+03 7.699024123004990505e-01 2.592118173900420132e-03
4.196634850124880359e+03 7.673112947294340458e-01 2.582034673794655899e-03
4.200831484975006788e+03 7.664027625703464519e-01 2.365154965341437817e-03
4.205032316459983122e+03 7.651135222998494134e-01 2.369636812192175545e-03
4.209237348776444378e+03 7.640151215456691958e-01 1.860030107545952108e-03
4.213446586125221984e+03 7.645160064033046377e-01 2.005624951755294923e-03
4.217660032711349231e+03 7.664129754348046886e-01 2.359376720146836529e-03
4.221877692744061278e+03 7.687393067460981388e-01 2.428688732124400628e-03
4.226099570436806971e+03 7.703322483730503656e-01 2.149127188335541849e-03
4.230325670007245208e+03 7.714705610832227611e-01 2.064081915424736610e-03
4.234555995677254032e+03 7.715201465737385744e-01 2.898054784732442823e-03
4.238790551672932452e+03 7.711640343406560572e-01 3.297335877823447808e-03
4.243029342224606808e+03 7.740019137299846141e-01 3.243467980638107921e-03
4.247272371566832589e+03 7.766077431760971539e-01 3.044190477399215649e-03
4.251519643938400804e+03 7.809138957614736309e-01 3.704278212006371310e-03
4.255771163582340705e+03 7.850082600450060122e-01 3.803172717868878987e-03
4.260026934745924336e+03 7.886464383218222407e-01 3.565950627188683390e-03
4.264286961680671993e+03 7.908711302074724614e-01 3.631113612246157901e-03
4.268551248642354039e+03 7.933405148786754069e-01 3.692310338301041123e-03
4.272819799890998183e+03 7.950310478375441914e-01 4.015756434515667904e-03
4.277092619690890388e+03 7.970439108273073003e-01 4.099779579781147147e-03
4.281369712310583054e+03 7.989349673769647886e-01 3.811602722024560672e-03
4.285651082022895025e+03 8.012300076723885001e-01 3.848356726837514480e-03
4.289936733104918858e+03 8.031987940387265157e-01 4.056718470741870787e-03
4.294226669838025373e+03 8.044579515537519931e-01 4.140585903497951380e-03
4.298520896507864563e+03 8.062205176894136072e-01 4.126080228070136413e-03
4.302819417404373780e+03 8.063239711362631956e-01 3.378803255196631290e-03
4.307122236821779552e+03 8.039796053311076829e-01 2.945061303866413922e-03
4.311429359058603040e+03 7.984217037768037706e-01 3.486770752202654478e-03
4.315740788417662770e+03 7.900280171257563211e-01 3.464376190619230817e-03
4.320056529206081905e+03 7.803464666737699451e-01 2.375087400867549343e-03
4.324376585735290064e+03 7.721737377626345378e-01 2.374202325615930222e-03
4.328700962321026054e+03 7.639914524374864513e-01 2.547609210315741977e-03
4.333029663283348782e+03 7.564827965012682620e-01 2.460988299954883739e-03
4.337362692946633615e+03 7.496275807627986731e-01 2.491446585423626268e-03
4.341700055639581478e+03 7.444238804486428274e-01 2.574044811967340744e-03
4.346041755695222491e+03 7.409033134808507004e-01 2.681465510562995157e-03
4.350387797450919606e+03 7.394265867571105932e-01 2.765775279408304484e-03
4.354738185248371337e+03 7.398100200537737203e-01 2.533304301339822564e-03
4.359092923433621763e+03 7.430106547125185923e-01 2.753856136812196393e-03
4.363452016357056891e+03 7.478035575342999453e-01 2.844109308165371740e-03
4.367815468373414660e+03 7.539095581269277258e-01 2.829246913796517725e-03
4.372183283841789489e+03 7.617838113307552339e-01 2.825399003739042635e-03
4.376555467125633186e+03 7.713297341655555028e-01 3.112165349661772263e-03
4.380932022592760404e+03 7.814226474921865950e-01 2.638090606590179615e-03
4.385312954615354101e+03 7.892169560649907600e-01 2.389860091384155179e-03
4.389698267569970994e+03 7.951944184713772845e-01 2.296783858196929044e-03
4.394087965837542470e+03 7.979062635172561313e-01 2.217186436410840088e-03
4.398482053803381859e+03 7.988654307430284041e-01 2.167867326832771755e-03
4.402880535857186260e+03 7.978774092223054337e-01 2.156474037727670184e-03
4.407283416393044718e+03 7.960925358777629635e-01 2.268557544946765703e-03
4.411690699809440048e+03 7.941190157316956322e-01 2.340831872208901706e-03
4.416102390509250654e+03 7.912497531861170108e-01 2.619243832187010974e-03
4.420518492899761441e+03 7.897035170116374347e-01 2.546249684947694044e-03
4.424939011392662906e+03 7.899207089225706024e-01 2.437606597692317661e-03
4.429363950404056595e+03 7.935083826547241204e-01 2.060469505135669073e-03
4.433793314354462382e+03 8.013134497425232761e-01 1.908686191430945464e-03
4.438227107668818462e+03 8.142951449007921338e-01 2.434659879315283389e-03
4.442665334776488635e+03 8.314194132645718049e-01 1.977974494600698904e-03
4.447108000111265937e+03 8.502566107597813172e-01 1.933385838887715508e-03
4.451555108111379013e+03 8.709366920462601191e-01 2.275148929766485431e-03
4.456006663219492111e+03 8.962694619039878186e-01 2.272405203238641973e-03
4.460462669882713271e+03 9.255260365656152732e-01 2.268898506779678647e-03
4.464923132552597053e+03 9.560341956075649739e-01 2.300605945981142649e-03
4.469388055685150903e+03 9.874624944117142977e-01 2.402872848099556636e-03
4.473857443740837880e+03 1.019848201027494072e+00 2.703904107582864088e-03
4.478331301184580298e+03 1.051668633827919530e+00 2.907434179012779833e-03
4.482809632485766087e+03 1.082546475435374411e+00 2.706251202477015418e-03
4.487292442118253348e+03 1.110069668912492036e+00 2.526125894875410911e-03
4.491779734560373072e+03 1.134792404499360474e+00 2.554070705366236638e-03
4.496271514294934605e+03 1.157357393523374745e+00 2.541269699807972068e-03
4.500767785809231100e+03 1.176200088638474028e+00 2.819348997855818106e-03
4.505268553595042249e+03 1.192610995932798179e+00 3.158017511853002200e-03
4.509773822148638828e+03 1.207405280635895251e+00 2.459757599969679322e-03
4.514283595970789065e+03 1.223131834844573218e+00 1.837179663059994045e-03
4.518797879566761367e+03 1.239566124028488314e+00 1.906489943134159672e-03
4.523316677446328868e+03 1.257032027915438332e+00 1.791445415669248604e-03
4.527839994123776705e+03 1.274773785997146192e+00 1.580761905004163161e-03
4.532367834117902021e+03 1.291922340037670702e+00 1.563351086576543827e-03
4.536900201952022144e+03 1.307713569559208144e+00 1.553534543268735415e-03
4.541437102153975502e+03 1.323265564461862498e+00 1.396992602170552683e-03
4.545978539256130716e+03 1.337705043858874676e+00 1.265208952402445408e-03
4.550524517795388419e+03 1.350173668716767139e+00 1.287973610725941373e-03
4.555075042313184895e+03 1.360473494585358711e+00 1.304325322495394814e-03
4.559630117355500261e+03 1.369520679851085276e+00 1.293715308127077208e-03
4.564189747472856652e+03 1.377265991926339472e+00 1.286974909590783527e-03
4.568753937220330954e+03 1.383365243611001105e+00 1.431321699203336878e-03
4.573322691157552981e+03 1.387947110188542776e+00 1.454959830842981680e-03
4.577896013848711846e+03 1.392814915743499915e+00 1.464718035249478953e-03
4.582473909862562323e+03 1.397229176674041007e+00 1.414582083239174833e-03
4.587056383772426670e+03 1.399992118889767045e+00 1.444601105583074186e-03
4.591643440156200086e+03 1.401490118446438782e+00 1.264156598682120592e-03
4.596235083596357981e+03 1.403608997265909597e+00 1.358262262922920686e-03
4.600831318679955984e+03 1.405784803895524071e+00 1.355388528039133808e-03
4.605432149998637215e+03 1.406240250262267955e+00 1.388357391014916412e-03
4.610037582148637739e+03 1.405008953661586624e+00 1.552202200388218961e-03
4.614647619730787483e+03 1.401835364533514872e+00 1.648560971145912905e-03
4.619262267350520233e+03 1.395821185457701841e+00 1.535986841051759739e-03
4.623881529617872729e+03 1.385328455664426528e+00 1.589205854098686742e-03
4.628505411147491941e+03 1.371890946614585660e+00 1.747883776614511187e-03
4.633133916558640522e+03 1.355555132364078652e+00 2.321845920797592586e-03
4.637767050475200449e+03 1.338046411433090332e+00 2.489530081695687323e-03
4.642404817525677572e+03 1.319777843843919829e+00 2.213752705328674193e-03
4.647047222343205249e+03 1.301223470850628727e+00 2.096801764079616985e-03
4.651694269565549803e+03 1.283303563613980902e+00 2.015547289175191083e-03
4.656345963835116891e+03 1.265542414977105956e+00 1.804113106334454897e-03
4.661002309798953320e+03 1.249941820605789733e+00 1.797961307054434226e-03
4.665663312108753416e+03 1.236917810898205294e+00 1.623551728053171340e-03
4.670328975420864481e+03 1.225186608295268931e+00 1.497625772633587576e-03
4.674999304396286789e+03 1.214999253041531002e+00 1.488253379130910622e-03
4.679674303700684504e+03 1.205809644353714072e+00 1.508017051016983774e-03
4.684353978004386590e+03 1.198098669733949517e+00 1.458848269173925556e-03
4.689038331982392265e+03 1.190498325579216310e+00 1.471743399953153245e-03
4.693727370314376458e+03 1.182783927239955624e+00 1.421815834140387723e-03
4.698421097684692540e+03 1.175728432654769451e+00 1.429633038959756894e-03
4.703119518782378691e+03 1.169234423090265151e+00 1.540571826568723534e-03
4.707822638301162442e+03 1.163885342790660582e+00 1.468048257478363292e-03
4.712530460939465229e+03 1.157744520220147288e+00 1.511723266009552249e-03
4.717242991400406027e+03 1.151299248196844927e+00 1.868861690949672784e-03
4.721960234391808626e+03 1.142477261116456866e+00 2.066455885546203235e-03
4.726682194626201635e+03 1.132161880444430446e+00 2.197023087404771560e-03
4.731408876820829391e+03 1.120062622256810192e+00 1.900307358869437807e-03
4.736140285697651962e+03 1.104567536579048381e+00 1.798747832906776381e-03
4.740876425983350600e+03 1.086961039712910804e+00 1.816639847871908634e-03
4.745617302409335934e+03 1.066942411055795903e+00 2.118616415994587117e-03
4.750362919711747054e+03 1.046131145453907507e+00 2.438701462765651470e-03
4.755113282631459697e+03 1.024690354587583618e+00 2.719783357187882059e-03
4.759868395914093526e+03 1.005052109213356415e+00 2.013392800272117370e-03
4.764628264310008490e+03 9.889202137510463286e-01 1.485231081758466801e-03
4.769392892574320285e+03 9.762962199081218762e-01 1.121957010533732989e-03
4.774162285466896719e+03 9.686461548765589180e-01 1.072263509583480830e-03
4.778936447752364984e+03 9.667563184673619858e-01 1.180509785720882613e-03
4.783715384200118933e+03 9.683566896036529537e-01 1.411771875187344503e-03
4.788499099584319993e+03 9.747007865060599574e-01 1.418653977996062578e-03
4.793287598683906253e+03 9.849366204841063510e-01 1.683242200040748447e-03
4.798080886282591564e+03 9.983643409023938986e-01 2.313990053836926380e-03
4.802878967168876443e+03 1.012952346663489100e+00 3.261304131033584616e-03
4.807681846136046261e+03 1.026844907101859938e+00 3.614079778608343240e-03
4.812489527982183972e+03 1.037600325275871205e+00 3.659229037301236272e-03
4.817302017510168298e+03 1.043652808969919965e+00 3.123856063219111745e-03
4.822119319527679181e+03 1.044220976747580742e+00 2.612836221576869157e-03
4.826941438847208701e+03 1.038718396645758935e+00 2.694722024627362305e-03
4.831768380286057436e+03 1.027574170763930317e+00 3.531744884532640998e-03
4.836600148666345376e+03 1.012353205993449912e+00 4.265933702770482831e-03
