# starting wavelength: 3921.130
# ending wavelength: 9717.900
# wav flux eflux
3.924804164751283224e+03 3.478715374869795207e-01 1.374884299363714202e-02
3.928728968916035683e+03 3.626597190019762995e-01 9.851353699101183387e-03
3.932657697884953450e+03 3.737838205511342382e-01 7.225996490189894039e-03
3.936590355582839493e+03 3.809814072357595172e-01 6.197238966607994913e-03
3.940526945938423523e+03 3.862491179820317644e-01 5.732240398681652353e-03
3.944467472884363360e+03 3.915397353810684544e-01 5.056594777337370013e-03
3.948411940357249023e+03 3.972764047224148776e-01 4.640167834546908739e-03
3.952360352297607733e+03 4.040584946024237123e-01 4.298584412371732506e-03
3.956312712649906643e+03 4.120508421881448058e-01 3.783639341648379825e-03
3.960269025362557841e+03 4.206947779946725308e-01 3.242863908070281638e-03
3.964229294387921527e+03 4.294112520994123883e-01 2.803611196746409219e-03
3.968193523682310570e+03 4.379647817932533216e-01 2.463531658312375239e-03
3.972161717205994591e+03 4.465458943553082816e-01 2.248005101658807209e-03
3.976133878923201792e+03 4.545494508036259096e-01 2.068373378979295948e-03
3.980110012802126221e+03 4.619824430356116451e-01 1.931811946118106894e-03
3.984090122814929600e+03 4.681835716820934024e-01 1.925199602699931680e-03
3.988074212937745870e+03 4.739210806738625714e-01 1.914545703543096312e-03
3.992062287150684824e+03 4.791158200673851231e-01 1.936715167786181311e-03
3.996054349437837118e+03 4.838866826224637596e-01 2.058480637715909712e-03
4.000050403787276082e+03 4.889494381973784054e-01 2.054024169327616379e-03
4.004050454191064546e+03 4.938241620780086105e-01 2.044170934108168955e-03
4.008054504645257111e+03 4.983027548535735041e-01 2.046570819444991623e-03
4.012062559149903791e+03 5.023848082526379821e-01 2.090424687935044882e-03
4.016074621709055009e+03 5.061814244287471398e-01 2.225550657040592257e-03
4.020090696330765240e+03 5.086019375508656903e-01 2.249418482581918427e-03
4.024110787027097558e+03 5.101133627788655422e-01 2.267218489193363867e-03
4.028134897814125907e+03 5.103457561986133317e-01 2.313926934289832135e-03
4.032163032711941469e+03 5.105548101264288929e-01 2.390759584197701612e-03
4.036195195744654484e+03 5.105584814597283749e-01 2.449828745009720830e-03
4.040231390940400615e+03 5.094988042741858125e-01 2.396486659680196942e-03
4.044271622331342314e+03 5.075679688822498647e-01 2.341001467277073044e-03
4.048315893953675186e+03 5.047930515457292877e-01 2.444885404549718318e-03
4.052364209847629809e+03 5.015604093310478406e-01 2.740741055389216748e-03
4.056416574057479011e+03 4.983124150970634214e-01 2.893316026283932873e-03
4.060472990631537868e+03 4.948338459011649704e-01 3.116373898282501307e-03
4.064533463622170530e+03 4.910701970807254679e-01 3.427604862084791468e-03
4.068597997085794304e+03 4.874068216556608490e-01 3.549010504939162543e-03
4.072666595082881486e+03 4.841280866605207622e-01 3.348871205731449897e-03
4.076739261677965715e+03 4.822532156924087543e-01 2.970588134914117773e-03
4.080816000939644709e+03 4.821311844367461852e-01 2.767271667375410110e-03
4.084896816940585722e+03 4.822913800796721495e-01 2.597232691709379978e-03
4.088981713757527814e+03 4.843343872708262832e-01 2.526328263940882599e-03
4.093070695471286854e+03 4.877662810242681113e-01 2.530577862142357939e-03
4.097163766166759160e+03 4.930831895093839568e-01 2.656438121153788939e-03
4.101260929932927866e+03 5.000137837122264894e-01 2.880787739093576810e-03
4.105362190862862008e+03 5.081792606063733064e-01 3.030831792902151812e-03
4.109467553053726078e+03 5.187627345377969768e-01 2.586498103749103935e-03
4.113577020606780934e+03 5.287852333047057263e-01 2.159170856814059559e-03
4.117690597627389252e+03 5.390048068505459700e-01 1.708806956938318513e-03
4.121808288225018259e+03 5.487103212397507201e-01 1.565648681248193270e-03
4.125930096513244280e+03 5.581500050585981310e-01 1.472831469466040011e-03
4.130056026609759101e+03 5.666901282491518810e-01 1.497757998951817701e-03
4.134186082636369974e+03 5.746925982280743916e-01 1.453172496352170273e-03
4.138320268719007800e+03 5.824897351233184750e-01 1.465786917742353205e-03
4.142458588987728035e+03 5.889295769659341762e-01 1.505768807515051998e-03
4.146601047576717065e+03 5.945381029755171243e-01 1.499729395830603747e-03
4.150747648624294925e+03 5.992576169835334143e-01 1.516286610470861732e-03
4.154898396272920763e+03 6.031572928636688147e-01 1.565424648744393431e-03
4.159053294669195566e+03 6.052447363695243610e-01 1.545445872212926558e-03
4.163212347963865795e+03 6.068103928205370590e-01 1.592396861029270498e-03
4.167375560311830668e+03 6.086550434772589613e-01 1.529784116477172920e-03
4.171542935872143971e+03 6.088647420189797765e-01 1.590694108784669342e-03
4.175714478808017702e+03 6.083541894867077193e-01 1.647755685652906726e-03
4.179890193286827525e+03 6.073424471899213639e-01 1.654436890754096149e-03
4.184070083480115500e+03 6.056738760992722570e-01 1.783652505386166013e-03
4.188254153563597356e+03 6.039438981877994772e-01 1.885263624081003108e-03
4.192442407717161586e+03 6.013888645984510894e-01 2.018680394785533818e-03
4.196634850124880359e+03 5.986865897671225234e-01 1.888501588489574457e-03
4.200831484975006788e+03 5.972298983075386980e-01 1.635153808331264638e-03
4.205032316459983122e+03 5.967520986358756385e-01 1.478883382964148955e-03
4.209237348776444378e+03 5.976835570199142689e-01 1.570911161199837038e-03
4.213446586125221984e+03 5.994715809507593640e-01 1.637123413572535470e-03
4.217660032711349231e+03 6.011722852365212200e-01 1.616760298607557590e-03
4.221877692744061278e+03 6.040450291820965711e-01 1.667918820467317572e-03
4.226099570436806971e+03 6.085102089857064023e-01 1.716074483411236112e-03
4.230325670007245208e+03 6.133137420786411997e-01 1.800257603652174890e-03
4.234555995677254032e+03 6.172731559325700390e-01 1.698101500815926528e-03
4.238790551672932452e+03 6.210317870353744274e-01 1.593581514060142057e-03
4.243029342224606808e+03 6.240920953194388776e-01 1.507834465540932190e-03
4.247272371566832589e+03 6.264931769663164562e-01 1.478180396358968812e-03
4.251519643938400804e+03 6.281012006040684881e-01 1.472750992993037506e-03
4.255771163582340705e+03 6.290493655803097717e-01 1.498354613159456504e-03
4.260026934745924336e+03 6.291832591855710533e-01 1.508021401667473168e-03
4.264286961680671993e+03 6.284247115800712935e-01 1.501012400477032965e-03
4.268551248642354039e+03 6.263202369926301749e-01 1.582252499585611082e-03
4.272819799890998183e+03 6.233441944194859641e-01 1.800608213402710416e-03
4.277092619690890388e+03 6.197766690997154049e-01 2.066372946998662127e-03
4.281369712310583054e+03 6.145141358729032666e-01 1.928021776257329931e-03
4.285651082022895025e+03 6.113852791475111736e-01 1.989392151024551355e-03
4.289936733104918858e+03 6.096150595358340585e-01 1.872534093282977180e-03
4.294226669838025373e+03 6.094640136218559823e-01 1.992431290165545474e-03
4.298520896507864563e+03 6.100168922354294310e-01 1.994829515394402116e-03
4.302819417404373780e+03 6.107190406506625147e-01 2.044335377147598731e-03
4.307122236821779552e+03 6.126214856750773485e-01 2.129450137494230157e-03
4.311429359058603040e+03 6.160120324513657097e-01 2.005525303215435155e-03
4.315740788417662770e+03 6.216281074669862683e-01 2.215970091330896237e-03
4.320056529206081905e+03 6.283468988919674869e-01 2.177618381169658859e-03
4.324376585735290064e+03 6.361789657098092521e-01 2.251777457623597815e-03
4.328700962321026054e+03 6.442698684203271853e-01 2.380543438205189304e-03
4.333029663283348782e+03 6.519723408878999038e-01 2.479601781313687907e-03
4.337362692946633615e+03 6.609992027306622608e-01 2.303570987341996799e-03
4.341700055639581478e+03 6.680598618385418241e-01 2.096368260298316685e-03
4.346041755695222491e+03 6.727091154551018137e-01 2.097828537054676271e-03
4.350387797450919606e+03 6.754016139809198016e-01 2.240628603300280110e-03
4.354738185248371337e+03 6.765435373035609823e-01 2.284160779732447803e-03
4.359092923433621763e+03 6.770168355956999173e-01 2.274360930504188902e-03
4.363452016357056891e+03 6.758261120508187725e-01 2.347837431444297143e-03
4.367815468373414660e+03 6.739706752103595822e-01 2.438371480488312273e-03
4.372183283841789489e+03 6.709492935761552923e-01 2.680796658143462085e-03
4.376555467125633186e+03 6.670768349534024200e-01 2.742370867578626178e-03
4.380932022592760404e+03 6.637088784793359064e-01 2.650643473770520914e-03
4.385312954615354101e+03 6.598878019186883437e-01 2.292505416285720108e-03
4.389698267569970994e+03 6.574682712226268544e-01 2.236851378828709058e-03
4.394087965837542470e+03 6.575372148853945165e-01 2.589283182660021172e-03
4.398482053803381859e+03 6.589067045235649234e-01 2.456368032627441553e-03
4.402880535857186260e+03 6.583668414330312579e-01 2.218042778117140096e-03
4.407283416393044718e+03 6.567827379600469362e-01 2.266836392040592202e-03
4.411690699809440048e+03 6.545819065254651070e-01 2.426539464426756294e-03
4.416102390509250654e+03 6.533670204869761466e-01 2.423631488751751620e-03
4.420518492899761441e+03 6.522707542254252422e-01 2.426972471061042066e-03
4.424939011392662906e+03 6.506695249551812665e-01 2.415015842912785534e-03
4.429363950404056595e+03 6.494980279067136264e-01 2.391846278032797295e-03
4.433793314354462382e+03 6.490576817947709687e-01 2.319270631675643228e-03
4.438227107668818462e+03 6.498973148044741022e-01 2.441922684475238223e-03
4.442665334776488635e+03 6.519003185039353720e-01 2.429362401085675104e-03
4.447108000111265937e+03 6.548682014909424920e-01 2.379623618781302220e-03
4.451555108111379013e+03 6.595734852169058415e-01 2.387546088507145996e-03
4.456006663219492111e+03 6.673830791616965907e-01 2.323077853644174660e-03
4.460462669882713271e+03 6.771219519811948473e-01 2.398321792209564575e-03
4.464923132552597053e+03 6.894709299472338015e-01 2.400349943744663119e-03
4.469388055685150903e+03 7.032732408518288514e-01 2.508296334505313776e-03
4.473857443740837880e+03 7.175719615078905989e-01 2.544007461784396351e-03
4.478331301184580298e+03 7.329964525052616864e-01 2.883174144565208395e-03
4.482809632485766087e+03 7.496414783947429328e-01 2.892529550105792102e-03
4.487292442118253348e+03 7.651233140517409437e-01 2.511680567446769770e-03
4.491779734560373072e+03 7.806623605106188801e-01 1.827226229304709272e-03
4.496271514294934605e+03 7.939789049368162210e-01 1.918866699574911213e-03
4.500767785809231100e+03 8.050479680460390641e-01 2.040989023952658431e-03
4.505268553595042249e+03 8.138924102591188481e-01 2.140414996991600594e-03
4.509773822148638828e+03 8.222099389704748962e-01 2.253886118849596047e-03
4.514283595970789065e+03 8.296046792393599878e-01 2.035639223283488165e-03
4.518797879566761367e+03 8.371622579204672787e-01 1.689968946797066121e-03
4.523316677446328868e+03 8.451972098983298043e-01 1.726479189969960283e-03
4.527839994123776705e+03 8.540676540063200095e-01 1.913712809563614635e-03
4.532367834117902021e+03 8.634443575846552088e-01 1.745618397613781739e-03
4.536900201952022144e+03 8.718371441589380932e-01 1.616348669534969223e-03
4.541437102153975502e+03 8.798665824431606275e-01 1.875641526312602815e-03
4.545978539256130716e+03 8.871327399875168496e-01 2.049130725599062307e-03
4.550524517795388419e+03 8.952313202023601812e-01 1.894912074546360519e-03
4.555075042313184895e+03 9.040647435664167508e-01 2.214840734830653395e-03
4.559630117355500261e+03 9.122996451302326504e-01 2.273014831295368764e-03
4.564189747472856652e+03 9.194019290318231619e-01 2.266086270512198200e-03
4.568753937220330954e+03 9.266269254318738602e-01 2.201412703064025214e-03
4.573322691157552981e+03 9.333759533573533496e-01 2.235036590499353115e-03
4.577896013848711846e+03 9.377311193677690948e-01 2.237836892121877232e-03
4.582473909862562323e+03 9.416166800691391225e-01 1.949784315894833491e-03
4.587056383772426670e+03 9.423139427328426354e-01 2.410002778798130216e-03
4.591643440156200086e+03 9.412341027584433251e-01 2.839608608305354415e-03
4.596235083596357981e+03 9.396234049815026523e-01 2.625717306218382750e-03
4.600831318679955984e+03 9.372031359729038336e-01 2.245028127438401452e-03
4.605432149998637215e+03 9.352758071061568756e-01 2.253706862911129122e-03
4.610037582148637739e+03 9.338960885961073988e-01 2.808744184056620810e-03
4.614647619730787483e+03 9.319264678615719610e-01 2.821260080302456872e-03
4.619262267350520233e+03 9.284505833177023604e-01 2.411208813756168540e-03
4.623881529617872729e+03 9.226114495708925833e-01 2.619196320593728932e-03
4.628505411147491941e+03 9.157309195156030368e-01 2.722999382821238070e-03
4.633133916558640522e+03 9.078764972248520859e-01 2.693232515789232770e-03
4.637767050475200449e+03 9.009239168856204572e-01 2.756976041830888971e-03
4.642404817525677572e+03 8.936864238143262806e-01 2.781444592666314133e-03
4.647047222343205249e+03 8.844870979523939969e-01 2.729533230122171451e-03
4.651694269565549803e+03 8.746944581650162309e-01 2.599058325803697833e-03
4.656345963835116891e+03 8.653239344424170643e-01 2.564172377577003063e-03
4.661002309798953320e+03 8.576855740326276845e-01 2.483699509745816974e-03
4.665663312108753416e+03 8.505542989773842155e-01 2.562579564568120277e-03
4.670328975420864481e+03 8.451833879898678070e-01 2.673588251941694683e-03
4.674999304396286789e+03 8.398457454834505898e-01 2.710536409216664829e-03
4.679674303700684504e+03 8.370363803880446207e-01 2.380064958087639918e-03
4.684353978004386590e+03 8.371066857880800072e-01 2.583456050582586764e-03
4.689038331982392265e+03 8.381904558458003196e-01 2.645117377503253698e-03
4.693727370314376458e+03 8.412061392993793740e-01 2.700397412049486325e-03
4.698421097684692540e+03 8.468190869559222289e-01 2.311351321372784838e-03
4.703119518782378691e+03 8.524914126638302170e-01 1.677664033146117079e-03
4.707822638301162442e+03 8.567536539033274723e-01 1.483989432577286502e-03
4.712530460939465229e+03 8.594315608065952183e-01 1.557729361714141813e-03
4.717242991400406027e+03 8.608593801154926783e-01 1.551202141283036708e-03
4.721960234391808626e+03 8.604267860718690653e-01 1.381923877595921894e-03
4.726682194626201635e+03 8.599948995972874766e-01 1.491324982367138409e-03
4.731408876820829391e+03 8.578101296059820191e-01 1.531384803291256430e-03
4.736140285697651962e+03 8.535798703639854157e-01 1.498858648912982424e-03
4.740876425983350600e+03 8.486055872510606113e-01 1.491226562921582404e-03
4.745617302409335934e+03 8.428624314853940813e-01 1.442837768690039988e-03
4.750362919711747054e+03 8.364937122656913582e-01 1.199345386809428987e-03
4.755113282631459697e+03 8.280622741330806447e-01 1.317606056561617615e-03
4.759868395914093526e+03 8.184885768114552596e-01 1.642997629811633609e-03
4.764628264310008490e+03 8.086934078604722798e-01 1.523674757816045628e-03
4.769392892574320285e+03 8.011641886042462080e-01 1.427403082927187301e-03
4.774162285466896719e+03 7.953362356537539979e-01 1.425927451969326775e-03
4.778936447752364984e+03 7.904921558068134235e-01 1.331081785459669762e-03
4.783715384200118933e+03 7.875349286902936230e-01 1.308905924106861960e-03
4.788499099584319993e+03 7.871056105879276066e-01 1.351535903655767465e-03
4.793287598683906253e+03 7.882974010246202035e-01 1.342939101416826785e-03
4.798080886282591564e+03 7.902942432118327254e-01 1.279781151904262840e-03
4.802878967168876443e+03 7.931998581664985171e-01 1.240930945355409086e-03
4.807681846136046261e+03 7.969296446651226162e-01 1.227336659805330042e-03
4.812489527982183972e+03 8.007807556850995434e-01 1.265387548789167951e-03
4.817302017510168298e+03 8.058404682184260315e-01 1.256546712707944189e-03
4.822119319527679181e+03 8.108586422633332624e-01 1.220573158896031719e-03
4.826941438847208701e+03 8.157958932394865359e-01 1.234470343828346101e-03
4.831768380286057436e+03 8.208465445399697469e-01 1.681291710832184686e-03
4.836600148666345376e+03 8.254006049570610237e-01 1.839383449160187549e-03
4.841436748815013743e+03 8.284599415988807003e-01 1.420717123425320689e-03
4.846278185563829538e+03 8.292499599430364077e-01 1.556605017202406351e-03
4.851124463749395545e+03 8.284493217942758836e-01 1.615929031455220696e-03
4.855975588213146693e+03 8.262566230871669637e-01 1.594281265255697959e-03
4.860831563801360971e+03 8.233112853353892202e-01 1.603900110600091269e-03
4.865692395365163975e+03 8.191469676962913615e-01 1.545541053938417854e-03
4.870558087760530725e+03 8.140915582543799545e-01 1.391735506217951085e-03
4.875428645848292945e+03 8.090171669151482448e-01 1.338093515087246128e-03
4.880304074494142696e+03 8.045971100411071220e-01 1.349889968987124647e-03
4.885184378568638749e+03 8.018701474333411738e-01 1.348929786922597194e-03
4.890069562947209306e+03 8.002782295687119740e-01 1.352542286528868537e-03
4.894959632510157462e+03 8.004213924552163739e-01 1.450929005937685130e-03
4.899854592142669389e+03 8.024722948426716851e-01 1.897322546624897587e-03
4.904754446734813428e+03 8.073799137715198526e-01 1.813012486148426333e-03
4.909659201181550088e+03 8.154040534682529540e-01 1.512480906033143550e-03
4.914568860382732964e+03 8.269628272786951895e-01 1.285106394361513332e-03
4.919483429243117826e+03 8.423313460443696554e-01 1.391363173985525701e-03
4.924402912672362618e+03 8.614157128386502604e-01 1.514260513774357171e-03
4.929327315585036558e+03 8.824842381220442400e-01 1.168924356716933123e-03
4.934256642900622865e+03 9.043234684616588970e-01 1.097765889033173146e-03
4.939190899543525120e+03 9.267080366238917843e-01 1.215612265060460806e-03
4.944130090443070912e+03 9.492777418581040960e-01 1.392654084400621372e-03
4.949074220533515472e+03 9.699854447452798123e-01 1.378160542812174785e-03
4.954023294754050767e+03 9.878836635033199087e-01 1.313791189400792493e-03
4.958977318048806410e+03 1.002347826919766760e+00 1.217625440684357669e-03
4.963936295366856939e+03 1.012727109029810890e+00 1.279857346102132110e-03
4.968900231662225451e+03 1.019038969518064164e+00 1.254167225744337111e-03
4.973869131893889062e+03 1.021199445536863593e+00 1.339622109669858646e-03
4.978843001025784361e+03 1.019265123033462617e+00 1.269231535483210079e-03
4.983821844026811959e+03 1.012188120686507542e+00 1.291335297052659606e-03
4.988805665870840130e+03 1.000732093909644682e+00 1.311555753732430258e-03
4.993794471536712990e+03 9.847299028834306522e-01 1.205186810219669152e-03
4.998788266008251412e+03 9.659076929216428020e-01 1.344813848457388590e-03
5.003787054274261209e+03 9.448905274948908861e-01 1.410317123918139546e-03
5.008790841328536771e+03 9.228745706481991107e-01 1.432003342463816905e-03
5.013799632169867436e+03 9.004979036237350520e-01 1.419440345533253163e-03
5.018813431802038394e+03 8.789246056791996109e-01 1.415389344584309841e-03
5.023832245233842514e+03 8.575505562526180015e-01 1.266092899696858376e-03
5.028856077479077612e+03 8.384555808049221071e-01 9.400859770280798689e-04
5.033884933556558281e+03 8.230260288201057817e-01 1.080358037450598191e-03
5.038918818490116792e+03 8.109424606110011702e-01 1.004395522556296785e-03
5.043957737308608557e+03 8.020051454421688319e-01 9.053673370807336805e-04
5.049001695045918495e+03 7.965126392307018133e-01 8.627795579645154526e-04
5.054050696740966487e+03 7.940867123004878847e-01 8.875790346800498413e-04
5.059104747437709193e+03 7.950115102643898757e-01 7.548327546440406020e-04
5.064163852185148244e+03 7.998907260266963082e-01 8.136465649314151335e-04
5.069228016037335692e+03 8.093019238410149585e-01 1.108769077971525404e-03
5.074297244053374015e+03 8.215763029317425525e-01 1.369471598337020264e-03
5.079371541297429758e+03 8.359075304296277320e-01 1.648745659583610891e-03
5.084450912838728073e+03 8.519021855036387203e-01 1.512626565557302367e-03
5.089535363751569093e+03 8.682999694500976862e-01 1.376309887899059871e-03
5.094624899115322478e+03 8.847692353043722369e-01 1.332604491433924407e-03
5.099719524014439230e+03 9.009714074748222945e-01 1.296809628295030048e-03
5.104819243538455339e+03 9.162798403448797480e-01 1.266532885012726416e-03
5.109924062781995417e+03 9.302674601724111314e-01 1.332453842927160516e-03
