# starting wavelength: 3197.830
# ending wavelength: 7272.510
# wav flux eflux
3.200856363859509202e+03 3.868542193222858083e-01 3.463812300816861579e-03
3.204057220223369768e+03 3.802936582882769367e-01 2.574057620506449429e-03
3.207261277443593826e+03 3.760307750690249362e-01 2.125603786617345694e-03
3.210468538721038840e+03 3.732786730123625607e-01 1.735022510188424837e-03
3.213679007259760965e+03 3.714434254518584333e-01 1.407082340472501358e-03
3.216892686267021418e+03 3.701987614548633565e-01 1.156025754934212127e-03
3.220109578953289656e+03 3.691713475006470069e-01 9.232346485814253191e-04
3.223329688532243836e+03 3.684929990054155446e-01 7.621398834645904405e-04
3.226553018220777176e+03 3.679104535965467271e-01 6.862509024622735418e-04
3.229779571238999324e+03 3.672720769643576522e-01 5.738312802413674538e-04
3.233009350810239084e+03 3.663572988128751540e-01 6.456514083093001233e-04
3.236242360161050783e+03 3.651305259048887031e-01 6.964740013747012289e-04
3.239478602521212906e+03 3.636679617204661707e-01 7.143171640755906909e-04
3.242718081123734919e+03 3.621404328903606862e-01 6.846344106897582884e-04
3.245960799204859995e+03 3.605204103847828856e-01 6.559709032289074348e-04
3.249206760004065927e+03 3.586130206239987461e-01 6.818510390566920451e-04
3.252455966764071036e+03 3.568243375836583353e-01 6.609249237818355487e-04
3.255708422730835991e+03 3.552848738120097938e-01 6.574983335635707117e-04
3.258964131153567905e+03 3.536226763620897162e-01 6.802617407435230905e-04
3.262223095284722604e+03 3.517069803252504401e-01 6.957746157093781456e-04
3.265485318380008266e+03 3.496844850614380662e-01 7.651195696950197599e-04
3.268750803698389518e+03 3.473751348829677288e-01 8.088216883944624597e-04
3.272019554502088795e+03 3.445832858778886121e-01 8.317286429978454007e-04
3.275291574056592253e+03 3.419360475852249448e-01 8.481907047556514834e-04
3.278566865630649772e+03 3.388302562403858742e-01 8.313478533598582217e-04
3.281845432496281319e+03 3.355918421435318266e-01 8.002011207414194173e-04
3.285127277928778767e+03 3.321345369886355425e-01 7.791324286820427514e-04
3.288412405206708627e+03 3.284204093536514102e-01 8.158740974524668474e-04
3.291700817611916591e+03 3.244482507238029001e-01 9.235243253720118884e-04
3.294992518429529355e+03 3.204195505633895547e-01 9.628593330684066679e-04
3.298287510947960072e+03 3.165118300941842100e-01 9.761513836369486779e-04
3.301585798458909267e+03 3.125598692038206727e-01 9.883096083500527741e-04
3.304887384257369376e+03 3.086083706534018534e-01 9.860992652356965170e-04
3.308192271641627485e+03 3.047392872810961717e-01 9.443306631052515417e-04
3.311500463913270323e+03 3.010942748367999577e-01 8.910687308245035217e-04
3.314811964377184722e+03 2.978616065949697411e-01 8.940732599648628992e-04
3.318126776341563072e+03 2.948523056292459699e-01 8.389659991370149866e-04
3.321444903117905596e+03 2.922844172806902119e-01 8.054959064302953360e-04
3.324766348021024896e+03 2.901930342810637997e-01 8.171463352938533771e-04
3.328091114369046863e+03 2.885910450004031680e-01 8.561750717255617229e-04
3.331419205483417045e+03 2.878219575385656537e-01 9.279060247876410586e-04
3.334750624688901553e+03 2.875747704013627559e-01 8.658255221272627292e-04
3.338085375313591612e+03 2.876681071021007230e-01 7.822908643671962464e-04
3.341423460688906289e+03 2.877292287140385540e-01 6.680101055762273626e-04
3.344764884149596128e+03 2.878797948621070746e-01 6.591888568554302554e-04
3.348109649033746791e+03 2.882018646905351589e-01 7.253989431252977306e-04
3.351457758682781787e+03 2.888003319286455706e-01 7.900046719421759123e-04
3.354809216441465651e+03 2.899205523358038272e-01 8.171994976030158737e-04
3.358164025657908041e+03 2.907686575581690525e-01 8.688036688926746706e-04
3.361522189683567376e+03 2.918920023518343787e-01 7.227708185955014630e-04
3.364883711873251741e+03 2.938041603700367599e-01 6.306515801951309563e-04
3.368248595585126168e+03 2.964001214588682376e-01 6.101568443277233418e-04
3.371616844180712633e+03 2.993026846669984975e-01 5.882646680916650160e-04
3.374988461024894150e+03 3.030874280289340139e-01 6.178202652402840995e-04
3.378363449485920228e+03 3.073468411530734801e-01 6.593796043291412848e-04
3.381741812935407324e+03 3.119381416660090278e-01 6.563121581912034503e-04
3.385123554748343849e+03 3.168129966667488917e-01 6.604936618527779395e-04
3.388508678303093347e+03 3.222422200700898465e-01 6.555181202973568277e-04
3.391897186981397681e+03 3.278492276844550690e-01 6.524242287869172268e-04
3.395289084168380214e+03 3.335456619353636687e-01 6.742071416830447634e-04
3.398684373252549449e+03 3.395533059151832900e-01 6.650240799483621203e-04
3.402083057625803121e+03 3.457709473634543174e-01 5.957019771078954839e-04
3.405485140683430018e+03 3.518327918207215799e-01 5.281367500180472480e-04
3.408890625824114522e+03 3.576502681302343167e-01 5.550410897969349031e-04
3.412299516449939802e+03 3.631682135266009470e-01 5.562403572215594621e-04
3.415711815966390986e+03 3.684679104766332425e-01 5.295238723370135564e-04
3.419127527782358356e+03 3.736318411279681007e-01 5.430241304210835706e-04
3.422546655310141887e+03 3.785181108418041451e-01 5.929828169209255817e-04
3.425969201965453522e+03 3.830450897109708985e-01 6.365513147833849706e-04
3.429395171167419903e+03 3.871473351298088117e-01 6.549858238239385016e-04
3.432824566338588284e+03 3.909153591671509775e-01 6.045127493017783682e-04
3.436257390904928343e+03 3.943992134017681450e-01 5.406436443907562976e-04
3.439693648295834464e+03 3.974316370858021474e-01 4.493678547958825640e-04
3.443133341944131189e+03 3.994160275527735005e-01 7.623144394078764513e-04
3.446576475286076402e+03 4.012606875807932516e-01 8.785632561861274987e-04
3.450023051761363604e+03 4.026851986905871650e-01 8.868230799317819131e-04
3.453473074813126004e+03 4.040634059968273850e-01 7.776656848315524444e-04
3.456926547887940615e+03 4.055040698893556672e-01 7.499343181274869792e-04
3.460383474435829612e+03 4.070134550350930080e-01 7.953870611363106878e-04
3.463843857910266706e+03 4.084799795541057543e-01 8.833868270513592575e-04
3.467307701768178049e+03 4.097487446886174389e-01 9.307005048897136045e-04
3.470775009469947236e+03 4.109572625595144801e-01 9.550963488291392984e-04
3.474245784479418489e+03 4.118276265009199189e-01 9.228930820544043291e-04
3.477720030263898934e+03 4.124155303673636697e-01 9.562047588282315824e-04
3.481197750294164052e+03 4.129025280371953488e-01 9.324205721103421673e-04
3.484678948044459503e+03 4.132829437665638816e-01 9.247631565283768442e-04
3.488163626992504760e+03 4.135306314774274128e-01 9.533621413489758428e-04
3.491651790619498570e+03 4.136032089673369327e-01 1.080381225083981234e-03
3.495143442410119405e+03 4.133850322934857213e-01 1.044084717513347376e-03
3.498638585852530468e+03 4.132718258545281520e-01 9.260225273124985486e-04
3.502137224438384237e+03 4.135613048609456666e-01 7.484367227381168598e-04
3.505639361662823831e+03 4.144164425365826632e-01 6.490855613293381376e-04
3.509145001024487556e+03 4.159564337863775330e-01 6.909663685519637933e-04
3.512654146025513455e+03 4.181081782776737699e-01 7.482062854562141797e-04
3.516166800171540217e+03 4.207716427078808663e-01 7.305928899040899397e-04
3.519682966971712631e+03 4.237980603405471780e-01 6.417584423026246243e-04
3.523202649938685681e+03 4.271748644702703102e-01 4.621893179260036142e-04
3.526725852588625457e+03 4.305328592216516870e-01 2.810536458749770031e-04
3.530252578441215064e+03 4.334103237678713083e-01 2.564035242299088769e-04
3.533782831019657806e+03 4.362145854526874311e-01 3.020369702398854428e-04
3.537316613850678550e+03 4.386512237550574955e-01 3.954499389144793420e-04
3.540853930464530094e+03 4.404111350002632430e-01 4.064928740501757664e-04
3.544394784394995895e+03 4.416898378622035048e-01 4.206982876391016134e-04
3.547939179179392340e+03 4.422067987298463065e-01 4.318434630214648164e-04
3.551487118358572843e+03 4.421020667111107971e-01 4.996704192556920311e-04
3.555038605476932389e+03 4.416270165283422422e-01 5.647770777707682632e-04
3.558593644082410719e+03 4.405934489683287492e-01 6.403274762138587081e-04
3.562152237726494150e+03 4.396324004306497724e-01 6.493267198735672065e-04
3.565714389964221937e+03 4.383286076051648994e-01 6.762433995741192177e-04
3.569280104354187188e+03 4.372263772505772805e-01 6.736613031516614208e-04
3.572849384458542772e+03 4.361918421764386378e-01 4.909337345246805916e-04
3.576422233843002232e+03 4.360798232456466472e-01 5.220111887249868779e-04
3.579998656076846601e+03 4.364497230813408346e-01 5.569652616734618476e-04
3.583578654732924406e+03 4.373973759799124061e-01 5.589202702714769332e-04
3.587162233387658489e+03 4.386892411399159752e-01 4.940158568425401632e-04
3.590749395621047370e+03 4.401985452217906936e-01 3.871329280943252345e-04
3.594340145016669794e+03 4.414142435038906909e-01 2.950139088209410322e-04
3.597934485161687462e+03 4.421747693758878994e-01 2.711958679138794454e-04
3.601532419646850485e+03 4.424100880058531304e-01 2.886338564660279266e-04
3.605133952066498296e+03 4.422135082107823134e-01 3.147606774619171599e-04
3.608739086018566013e+03 4.414235120789450351e-01 3.415429256059741001e-04
3.612347825104585809e+03 4.400981003739005137e-01 3.381531509361178790e-04
3.615960172929691907e+03 4.379677813152328958e-01 3.598939332118091168e-04
3.619576133102622407e+03 4.354978842281892470e-01 4.727464349768137537e-04
3.623195709235726554e+03 4.325526736982385212e-01 6.592116674513379473e-04
3.626818904944963379e+03 4.300247940081987075e-01 6.989200483791401138e-04
3.630445723849909427e+03 4.281482049565880077e-01 6.738683239367557762e-04
3.634076169573760581e+03 4.269245562021714568e-01 5.998725655699089316e-04
3.637710245743335690e+03 4.266796097564308776e-01 5.184670158396552115e-04
3.641347955989080219e+03 4.274467429330079393e-01 4.663674025326181613e-04
3.644989303945070333e+03 4.295271097364852242e-01 4.632926189200022938e-04
3.648634293249016537e+03 4.328319425945422183e-01 4.336233393958321904e-04
3.652282927542266862e+03 4.370678670563619139e-01 4.354382284633459121e-04
3.655935210469810499e+03 4.421176319103882757e-01 4.153894985276109062e-04
3.659591145680281443e+03 4.477295546777763091e-01 4.133415429824466693e-04
3.663250736825963031e+03 4.536423589304543480e-01 4.506418807485483092e-04
3.666913987562790226e+03 4.591408728242865056e-01 5.073423973929919216e-04
3.670580901550354156e+03 4.638238781778752373e-01 5.059749557873478853e-04
3.674251482451905758e+03 4.678942362874655148e-01 5.834763645901835461e-04
3.677925733934358959e+03 4.709896818768760651e-01 9.200348682486158202e-04
3.681603659668294313e+03 4.721675138536814420e-01 9.091188474912503467e-04
3.685285263327964003e+03 4.705326075550623766e-01 7.405975380503264718e-04
3.688970548591293209e+03 4.661313805770141983e-01 7.586721007749742517e-04
3.692659519139885560e+03 4.590844415386969857e-01 8.160094972660586520e-04
3.696352178659026777e+03 4.498582240478455341e-01 8.233643536218512426e-04
3.700048530837686940e+03 4.386045301369620453e-01 8.156866586762250362e-04
3.703748579368525952e+03 4.255478333823132786e-01 8.425919039546726818e-04
3.707452327947895355e+03 4.114052659420625591e-01 1.045552530762192600e-03
3.711159780275844696e+03 3.967319879122425674e-01 1.327003706936267331e-03
3.714870940056121526e+03 3.830251549152159374e-01 1.172776137726890379e-03
3.718585810996179134e+03 3.707562283658783486e-01 1.091852867056550182e-03
3.722304396807176545e+03 3.601456171461085431e-01 1.211725267717480431e-03
3.726026701203984885e+03 3.510634909252124403e-01 1.304532996126540152e-03
3.729752727905190113e+03 3.435611063468965165e-01 1.260016506322962811e-03
3.733482480633096657e+03 3.376169475072483550e-01 1.308458783096332978e-03
3.737215963113731050e+03 3.333562639461813970e-01 1.475977985207072886e-03
3.740953179076846027e+03 3.309697893144247782e-01 1.430381993362345389e-03
3.744694132255923705e+03 3.312759796854543581e-01 1.513430999764145022e-03
3.748438826388181042e+03 3.337569648881650308e-01 1.765002690133528774e-03
3.752187265214570289e+03 3.369687796346347852e-01 1.885044001024840585e-03
3.755939452479786269e+03 3.400931561432301020e-01 1.954413892770476800e-03
3.759695391932267285e+03 3.432221100802158587e-01 2.030899065909877454e-03
3.763455087324201031e+03 3.459914509936870552e-01 1.980946215477445271e-03
3.767218542411526414e+03 3.479662488083637983e-01 1.822850983555977323e-03
3.770985760953939007e+03 3.488949317772710446e-01 2.065047994744710624e-03
3.774756746714894234e+03 3.489116887767136910e-01 2.628347160691812349e-03
3.778531503461610555e+03 3.485748824076655983e-01 2.678086933933392522e-03
3.782310034965073100e+03 3.486548231744610593e-01 2.071687128434889467e-03
3.786092345000039586e+03 3.501867214705098319e-01 2.311770574545347814e-03
3.789878437345040766e+03 3.524470997627787705e-01 2.791710696331569860e-03
3.793668315782387253e+03 3.551700653767816407e-01 2.897407318219576838e-03
3.797461984098170888e+03 3.579377996787366234e-01 2.523007826102154853e-03
3.801259446082270188e+03 3.599687175942695716e-01 2.164820215713087609e-03
3.805060705528353537e+03 3.610408532309264951e-01 2.508934015765157833e-03
3.808865766233883278e+03 3.620707032808067605e-01 2.842472746251910928e-03
3.812674632000118436e+03 3.641356826573531880e-01 2.763266419885360321e-03
3.816487306632119726e+03 3.682200146184628764e-01 2.591138271499700968e-03
3.820303793938753188e+03 3.743156652910178961e-01 2.359660532105858910e-03
3.824124097732693372e+03 3.831248554399597772e-01 2.016882423744543150e-03
3.827948221830427428e+03 3.958526786010228005e-01 1.815187735706416151e-03
3.831776170052258749e+03 4.133608167483299178e-01 1.810804841415400738e-03
3.835607946222312421e+03 4.355775707263392360e-01 1.644049131203789444e-03
3.839443554168536139e+03 4.612645718568981201e-01 1.363002888528872100e-03
3.843282997722705659e+03 4.891624366252251832e-01 1.314582465847717076e-03
3.847126280720429804e+03 5.186058617296296358e-01 1.569411522427815574e-03
3.850973407001151372e+03 5.488567219926562268e-01 2.030030715556452141e-03
3.854824380408153957e+03 5.793527825799914543e-01 2.346606077277587320e-03
3.858679204788563311e+03 6.089251390904575345e-01 2.137907198876957959e-03
3.862537883993353262e+03 6.363353510764556686e-01 1.868816730409219576e-03
3.866400421877347981e+03 6.614889550702295340e-01 1.803798819623360188e-03
3.870266822299226533e+03 6.841694924611985140e-01 1.970471626203664558e-03
3.874137089121526969e+03 7.039448307914409897e-01 2.146625957282640405e-03
3.878011226210649966e+03 7.211857684414304526e-01 1.827134555729048940e-03
3.881889237436861549e+03 7.371558788353193004e-01 1.232913641510490323e-03
3.885771126674299921e+03 7.526384665200313018e-01 9.899044344553497351e-04
3.889656897800975457e+03 7.678759497838625325e-01 9.906395720798652233e-04
3.893546554698777527e+03 7.825685853239674472e-01 9.887312372029550493e-04
3.897440101253477678e+03 7.970195928244830919e-01 9.729346049090025058e-04
3.901337541354732366e+03 8.113622143291936428e-01 9.036549089585145132e-04
3.905238878896088409e+03 8.250373004184833325e-01 8.476865640003774897e-04
3.909144117774985716e+03 8.378893623796636048e-01 8.069697493325760692e-04
3.913053261892762293e+03 8.494175175828606594e-01 9.334680877302720635e-04
3.916966315154656058e+03 8.594086814507692074e-01 1.238246730246665575e-03
3.920883281469812118e+03 8.679773651838568194e-01 1.494482556810554580e-03
3.924804164751283224e+03 8.743866139238193336e-01 1.334348058798605699e-03
3.928728968916035683e+03 8.786533306198477389e-01 1.047848600301927403e-03
3.932657697884953450e+03 8.803773686117907227e-01 1.295373645302154214e-03
3.936590355582839493e+03 8.801521554763330757e-01 1.642664451571525025e-03
3.940526945938423523e+03 8.790193641428917237e-01 1.697441298743300334e-03
3.944467472884363360e+03 8.774628549341652040e-01 1.582404945996405705e-03
3.948411940357249023e+03 8.762719403711392019e-01 1.247446403943414236e-03
3.952360352297607733e+03 8.762860854014437040e-01 1.054857613495076979e-03
3.956312712649906643e+03 8.780424101968858919e-01 1.124882306764699372e-03
3.960269025362557841e+03 8.815424558095619201e-01 1.122149584430822550e-03
3.964229294387921527e+03 8.869618025246853721e-01 1.082153058818890925e-03
3.968193523682310570e+03 8.943664089930368766e-01 1.196205101868345888e-03
3.972161717205994591e+03 9.041678740620580079e-01 1.256836451332651265e-03
3.976133878923201792e+03 9.161953931510287141e-01 1.313890698640808466e-03
3.980110012802126221e+03 9.300771217716178318e-01 1.216765463463875428e-03
3.984090122814929600e+03 9.460304356534712245e-01 1.027162186174313029e-03
3.988074212937745870e+03 9.640962299362013654e-01 1.373060083627073965e-03
3.992062287150684824e+03 9.834886299287850520e-01 1.735532509132268380e-03
3.996054349437837118e+03 1.003242290934709402e+00 1.757924732487019508e-03
4.000050403787276082e+03 1.021870228895791710e+00 1.520169732869348141e-03
4.004050454191064546e+03 1.038551941027820336e+00 1.003812270363456643e-03
4.008054504645257111e+03 1.052034455155717252e+00 8.173567185543486029e-04
4.012062559149903791e+03 1.062193147379329794e+00 8.181975659907269422e-04
4.016074621709055009e+03 1.068776316818143668e+00 8.531510212079955555e-04
4.020090696330765240e+03 1.071472987457169568e+00 7.213261133146763255e-04
4.024110787027097558e+03 1.070976485269875766e+00 5.780952601094994101e-04
4.028134897814125907e+03 1.067307299081535543e+00 5.507263271599838628e-04
4.032163032711941469e+03 1.060669062420018793e+00 9.756508412270334515e-04
4.036195195744654484e+03 1.051816232955822716e+00 1.543329654260622861e-03
4.040231390940400615e+03 1.041900915083903811e+00 1.657318251746213358e-03
4.044271622331342314e+03 1.031702875463906155e+00 1.526000344718238342e-03
4.048315893953675186e+03 1.021661746492599887e+00 1.690565476063877548e-03
4.052364209847629809e+03 1.010886272539065489e+00 1.899165246979674527e-03
4.056416574057479011e+03 9.993084399297940124e-01 2.083471302978907955e-03
4.060472990631537868e+03 9.870245926780396584e-01 2.103631422690823219e-03
4.064533463622170530e+03 9.739982628099428386e-01 1.952753785810291834e-03
4.068597997085794304e+03 9.601467119535896932e-01 1.794737350184341185e-03
4.072666595082881486e+03 9.453770215113238562e-01 1.751125874178109535e-03
4.076739261677965715e+03 9.297778059183360311e-01 1.828166452361599994e-03
4.080816000939644709e+03 9.135609581977365279e-01 1.861346975122971570e-03
4.084896816940585722e+03 8.970942980059180005e-01 1.686810814326142284e-03
4.088981713757527814e+03 8.814068654063562658e-01 1.399261043208627599e-03
4.093070695471286854e+03 8.670609930157680001e-01 1.195696406503566050e-03
4.097163766166759160e+03 8.547990561377668550e-01 1.243597840663084432e-03
4.101260929932927866e+03 8.449140009335844859e-01 1.039668542999309464e-03
4.105362190862862008e+03 8.368965909970532691e-01 1.008378511517452406e-03
4.109467553053726078e+03 8.305368502459330449e-01 1.266865603645198329e-03
4.113577020606780934e+03 8.261002563479420413e-01 1.143838041162355528e-03
4.117690597627389252e+03 8.241027203462398809e-01 9.719069785043527683e-04
4.121808288225018259e+03 8.245528277516682714e-01 1.408151283537413447e-03
4.125930096513244280e+03 8.266780953894202755e-01 1.722557496825092779e-03
4.130056026609759101e+03 8.294009421294425977e-01 1.782863543094323835e-03
4.134186082636369974e+03 8.322004307227346409e-01 1.607230486209857605e-03
4.138320268719007800e+03 8.342135704986867184e-01 1.368255406042058996e-03
4.142458588987728035e+03 8.349965627105554455e-01 1.227254615961034453e-03
4.146601047576717065e+03 8.345030091066305555e-01 1.148885419419742957e-03
4.150747648624294925e+03 8.321224371608054726e-01 1.203515594442385777e-03
4.154898396272920763e+03 8.280684272931057022e-01 1.295920625874525051e-03
4.159053294669195566e+03 8.227991817155151377e-01 1.249535286867724422e-03
4.163212347963865795e+03 8.169909807657738110e-01 9.766915305683381964e-04
4.167375560311830668e+03 8.117194313937979855e-01 7.356664108177150786e-04
