# starting wavelength: 3707.680
# ending wavelength: 7622.310
# wav flux eflux
3.711159780275844696e+03 4.692476235008654073e-01 3.848077168512396840e-03
3.714870940056121526e+03 4.640942747564115178e-01 2.892063832727729492e-03
3.718585810996179134e+03 4.598175997095934608e-01 2.169381392105944675e-03
3.722304396807176545e+03 4.566363231347480012e-01 1.700280892415091888e-03
3.726026701203984885e+03 4.541117874657953912e-01 1.351540476656066646e-03
3.729752727905190113e+03 4.525541711346546814e-01 1.243693493584673059e-03
3.733482480633096657e+03 4.524159721725949934e-01 1.079810132542353236e-03
3.737215963113731050e+03 4.536332393731445922e-01 8.826703501613406824e-04
3.740953179076846027e+03 4.560685394904703260e-01 7.775206522080332092e-04
3.744694132255923705e+03 4.596353945300389876e-01 6.773093523516470621e-04
3.748438826388181042e+03 4.642701259796438995e-01 6.162208102533573610e-04
3.752187265214570289e+03 4.701776594892873584e-01 5.574083958666769091e-04
3.755939452479786269e+03 4.772407015905131278e-01 5.141334247386609687e-04
3.759695391932267285e+03 4.856298679725086220e-01 4.818751039996557197e-04
3.763455087324201031e+03 4.951630151519211820e-01 4.599319936097211506e-04
3.767218542411526414e+03 5.059622197686279854e-01 4.498656231189440604e-04
3.770985760953939007e+03 5.179050643139353483e-01 5.187854048032300132e-04
3.774756746714894234e+03 5.315885368338046923e-01 5.254280855193409422e-04
3.778531503461610555e+03 5.460328855073839360e-01 9.179032712330569260e-04
3.782310034965073100e+03 5.620125199583002606e-01 1.265456319958190023e-03
3.786092345000039586e+03 5.798996713482973409e-01 1.445625580428340886e-03
3.789878437345040766e+03 5.996479712295993414e-01 1.558788767444461033e-03
3.793668315782387253e+03 6.212606531871474047e-01 1.459316873807480798e-03
3.797461984098170888e+03 6.453311681140874168e-01 1.348035398165576279e-03
3.801259446082270188e+03 6.717460936595596177e-01 1.268753061391101906e-03
3.805060705528353537e+03 7.002648887162773450e-01 1.294724140311543335e-03
3.808865766233883278e+03 7.309518220505925035e-01 1.433164341113462139e-03
3.812674632000118436e+03 7.631616467984118080e-01 1.475333488737941073e-03
3.816487306632119726e+03 7.965884367978919300e-01 1.521249039715281319e-03
3.820303793938753188e+03 8.317411804393251007e-01 1.528541151663079679e-03
3.824124097732693372e+03 8.685314516336098967e-01 1.529670023382434995e-03
3.827948221830427428e+03 9.065452891208004571e-01 1.519198174987683447e-03
3.831776170052258749e+03 9.460390648397867253e-01 1.495864477758778030e-03
3.835607946222312421e+03 9.858151270137623934e-01 1.388247103646620805e-03
3.839443554168536139e+03 1.025698722310641742e+00 1.326725087686164706e-03
3.843282997722705659e+03 1.065779118259767344e+00 1.266293309009107731e-03
3.847126280720429804e+03 1.105195715211849228e+00 1.280636596926924701e-03
3.850973407001151372e+03 1.144153173639224530e+00 1.457150777741288627e-03
3.854824380408153957e+03 1.181059865587206881e+00 1.474971193317770914e-03
3.858679204788563311e+03 1.217238621374825192e+00 1.602258411133721753e-03
3.862537883993353262e+03 1.251153850494486353e+00 1.549971534370500788e-03
3.866400421877347981e+03 1.282619173685659808e+00 1.527462341421225757e-03
3.870266822299226533e+03 1.311760413672775849e+00 1.571297454469137598e-03
3.874137089121526969e+03 1.338439802568134773e+00 1.572886985299974541e-03
3.878011226210649966e+03 1.362796897231342230e+00 1.575905637160810498e-03
3.881889237436861549e+03 1.384825911948935229e+00 1.572285577536830948e-03
3.885771126674299921e+03 1.404430269887114058e+00 1.573333470628497004e-03
3.889656897800975457e+03 1.421405555157490008e+00 1.665372193438261535e-03
3.893546554698777527e+03 1.436629765491581168e+00 1.719157072190800883e-03
3.897440101253477678e+03 1.448325527456009620e+00 2.033911644326335567e-03
3.901337541354732366e+03 1.457719998448502308e+00 1.987698395807111461e-03
3.905238878896088409e+03 1.465492078855414881e+00 1.773264508526868491e-03
3.909144117774985716e+03 1.470934699845971805e+00 1.220694010109366935e-03
3.913053261892762293e+03 1.476186684542271532e+00 1.118408718813580912e-03
3.916966315154656058e+03 1.480351525250019895e+00 1.101229462297560052e-03
3.920883281469812118e+03 1.484046133475249940e+00 1.168990320708542365e-03
3.924804164751283224e+03 1.486261685999312077e+00 1.139282382531056669e-03
3.928728968916035683e+03 1.487633432808879164e+00 1.091267705189420244e-03
3.932657697884953450e+03 1.488018479522725590e+00 1.093787498046221596e-03
3.936590355582839493e+03 1.487536279123513605e+00 1.139168997736748120e-03
3.940526945938423523e+03 1.486396457879997746e+00 1.142546341278681673e-03
3.944467472884363360e+03 1.484372012764608728e+00 1.243198185795154264e-03
3.948411940357249023e+03 1.481075554482440326e+00 1.383136768962445889e-03
3.952360352297607733e+03 1.476102758465536846e+00 1.428803157686008756e-03
3.956312712649906643e+03 1.470026795478748260e+00 1.494930503599183839e-03
3.960269025362557841e+03 1.462405932282836885e+00 1.492553888181543482e-03
3.964229294387921527e+03 1.453256019529588272e+00 1.299848170689667194e-03
3.968193523682310570e+03 1.442214531893315943e+00 1.313833899154808697e-03
3.972161717205994591e+03 1.429284498111693669e+00 1.358164946210128508e-03
3.976133878923201792e+03 1.415226637735331305e+00 1.396733523961449144e-03
3.980110012802126221e+03 1.400040990274729502e+00 1.396392240968880039e-03
3.984090122814929600e+03 1.383668323469241956e+00 1.398160354737376697e-03
3.988074212937745870e+03 1.366395833734030285e+00 1.444789006963964053e-03
3.992062287150684824e+03 1.348138514131259180e+00 1.453722213294072248e-03
3.996054349437837118e+03 1.328519598633085108e+00 1.423303067396166667e-03
4.000050403787276082e+03 1.307908638291374714e+00 1.250073611355642742e-03
4.004050454191064546e+03 1.287454099067651514e+00 1.252868008398439576e-03
4.008054504645257111e+03 1.267237464602990249e+00 1.334712785852614587e-03
4.012062559149903791e+03 1.247697627796123587e+00 1.451360494385038396e-03
4.016074621709055009e+03 1.229628964186837647e+00 1.524673514361659645e-03
4.020090696330765240e+03 1.212691491985289138e+00 1.524581007980376239e-03
4.024110787027097558e+03 1.196542964549147658e+00 1.431708481112724815e-03
4.028134897814125907e+03 1.181623212469792072e+00 1.281879352138510500e-03
4.032163032711941469e+03 1.168360898570887763e+00 1.230264679959215028e-03
4.036195195744654484e+03 1.157038251733294443e+00 1.252761686993223182e-03
4.040231390940400615e+03 1.147497626804790283e+00 1.242757137616018774e-03
4.044271622331342314e+03 1.139932309889297946e+00 1.232887087476317858e-03
4.048315893953675186e+03 1.134321452803621399e+00 1.217408293206493925e-03
4.052364209847629809e+03 1.130925318809571811e+00 1.156346941444212021e-03
4.056416574057479011e+03 1.128955328500251820e+00 1.112657247398753362e-03
4.060472990631537868e+03 1.127496167213015488e+00 1.096364118107562421e-03
4.064533463622170530e+03 1.127026347966258335e+00 1.357139177657202146e-03
4.068597997085794304e+03 1.127566806278273770e+00 1.520582921134179706e-03
4.072666595082881486e+03 1.128141570985695008e+00 1.586557330749828725e-03
4.076739261677965715e+03 1.128342643434390391e+00 1.524554852758198487e-03
4.080816000939644709e+03 1.128325367001290047e+00 1.423806800244853572e-03
4.084896816940585722e+03 1.127864592369939523e+00 1.467918297878709677e-03
4.088981713757527814e+03 1.126895009656252000e+00 1.562269001547171273e-03
4.093070695471286854e+03 1.125734467309723597e+00 1.638811993871157249e-03
4.097163766166759160e+03 1.123392401992830303e+00 1.457228351909047341e-03
4.101260929932927866e+03 1.120964329007443805e+00 1.064375078868502224e-03
4.105362190862862008e+03 1.119206090445332480e+00 1.016536329096571351e-03
4.109467553053726078e+03 1.117753589055773711e+00 1.000678979559466164e-03
4.113577020606780934e+03 1.116955575237337017e+00 9.961895662913625160e-04
4.117690597627389252e+03 1.116914422741262625e+00 9.857078979103180930e-04
4.121808288225018259e+03 1.116913373233177298e+00 7.973931720206101862e-04
4.125930096513244280e+03 1.116394190746745174e+00 7.664494557758549844e-04
4.130056026609759101e+03 1.115426132324533581e+00 7.399353563971790716e-04
4.134186082636369974e+03 1.113444075685950940e+00 8.147086283525327996e-04
4.138320268719007800e+03 1.111163443110146254e+00 8.339091574425210171e-04
4.142458588987728035e+03 1.108342059535779134e+00 6.529098504448918290e-04
4.146601047576717065e+03 1.106371673555134549e+00 7.509490653549453013e-04
4.150747648624294925e+03 1.104051706696677959e+00 8.376461737932533848e-04
4.154898396272920763e+03 1.101161912321275471e+00 8.059646567580641078e-04
4.159053294669195566e+03 1.097613768361516140e+00 1.070554883235918251e-03
4.163212347963865795e+03 1.094421732108900258e+00 1.044363337220912411e-03
4.167375560311830668e+03 1.092096557257391076e+00 1.024760108727398389e-03
4.171542935872143971e+03 1.090270409700453635e+00 1.007589656585116712e-03
4.175714478808017702e+03 1.089305921703138447e+00 1.047111060692603379e-03
4.179890193286827525e+03 1.088862590381554085e+00 1.037199831588312684e-03
4.184070083480115500e+03 1.089128424703176279e+00 1.036033946523334977e-03
4.188254153563597356e+03 1.089760744937480652e+00 1.063846578777121517e-03
4.192442407717161586e+03 1.091699154809955719e+00 1.057919765681634462e-03
4.196634850124880359e+03 1.094693175655826467e+00 1.069188829888975461e-03
4.200831484975006788e+03 1.098192876265179585e+00 1.063912650052874567e-03
4.205032316459983122e+03 1.102295483313628033e+00 1.027328326859714086e-03
4.209237348776444378e+03 1.106577084795477450e+00 1.072930766408642430e-03
4.213446586125221984e+03 1.110743733117778298e+00 1.020068533340155736e-03
4.217660032711349231e+03 1.115298610307438931e+00 9.820553667668357762e-04
4.221877692744061278e+03 1.119927334600870239e+00 1.134359094996398483e-03
4.226099570436806971e+03 1.124356846903330931e+00 1.041282638752150927e-03
4.230325670007245208e+03 1.128049641140952408e+00 8.712772811400588784e-04
4.234555995677254032e+03 1.129617783968347222e+00 8.323680177411255142e-04
4.238790551672932452e+03 1.128901812946612182e+00 8.285693491854235516e-04
4.243029342224606808e+03 1.126767226095308327e+00 8.850327185948569106e-04
4.247272371566832589e+03 1.122465461588042501e+00 8.777301544934182354e-04
4.251519643938400804e+03 1.115672317982337569e+00 8.298695597938115717e-04
4.255771163582340705e+03 1.106505077076867627e+00 7.343982427363385549e-04
4.260026934745924336e+03 1.094237410587339365e+00 8.899636260138755204e-04
4.264286961680671993e+03 1.080013079174463320e+00 9.982365564324227093e-04
4.268551248642354039e+03 1.063816009831464848e+00 1.073935911038022837e-03
4.272819799890998183e+03 1.047659202327758221e+00 1.066789864416686296e-03
4.277092619690890388e+03 1.031162088926881548e+00 1.096090801363658893e-03
4.281369712310583054e+03 1.015162077132321983e+00 1.043104301376759913e-03
4.285651082022895025e+03 9.999507624672677730e-01 1.038124767838586628e-03
4.289936733104918858e+03 9.854000960323118230e-01 1.161882517820395436e-03
4.294226669838025373e+03 9.717248606691688551e-01 1.395940850837268507e-03
4.298520896507864563e+03 9.588062410668092284e-01 1.376035649180953630e-03
4.302819417404373780e+03 9.462897406366311825e-01 1.120454902609089795e-03
4.307122236821779552e+03 9.338218679021037527e-01 1.113608838439536421e-03
4.311429359058603040e+03 9.221252229449201643e-01 1.095760561155052423e-03
4.315740788417662770e+03 9.105237689152423375e-01 1.154509581711609181e-03
4.320056529206081905e+03 8.994818677502823823e-01 9.711843027739402957e-04
4.324376585735290064e+03 8.899843757960982371e-01 9.438361793366371010e-04
4.328700962321026054e+03 8.814780481109040222e-01 9.288662070607172933e-04
4.333029663283348782e+03 8.744098100390802486e-01 1.012445287268983179e-03
4.337362692946633615e+03 8.687357358602132429e-01 9.535182606155992923e-04
4.341700055639581478e+03 8.640918932425054599e-01 9.389320059063787543e-04
4.346041755695222491e+03 8.610452509415897904e-01 9.128930054611394777e-04
4.350387797450919606e+03 8.592726219520487874e-01 9.522761400242436662e-04
4.354738185248371337e+03 8.593400780678235318e-01 9.600644454842331092e-04
4.359092923433621763e+03 8.606370488171408706e-01 8.387667661321502460e-04
4.363452016357056891e+03 8.637805926459563022e-01 7.746594398717372579e-04
4.367815468373414660e+03 8.688339624656546967e-01 8.368355800412993544e-04
4.372183283841789489e+03 8.757652921039965621e-01 8.541067196089708116e-04
4.376555467125633186e+03 8.847122007618243300e-01 7.439221051409858126e-04
4.380932022592760404e+03 8.953842750462098765e-01 6.344286635123712716e-04
4.385312954615354101e+03 9.075548894015732504e-01 7.411966959907940328e-04
4.389698267569970994e+03 9.215162894649465697e-01 7.696300386056821163e-04
4.394087965837542470e+03 9.373777929612958637e-01 7.874266843778459854e-04
4.398482053803381859e+03 9.551477674093815651e-01 6.411222121629931662e-04
4.402880535857186260e+03 9.749579107341048712e-01 5.423386068164904586e-04
4.407283416393044718e+03 9.970647339553118105e-01 6.227833760056959971e-04
4.411690699809440048e+03 1.020944665308893606e+00 6.265960968028260521e-04
4.416102390509250654e+03 1.046889822645195256e+00 5.191713716653930354e-04
4.420518492899761441e+03 1.074181108915420513e+00 3.859402261388258535e-04
4.424939011392662906e+03 1.102559874103915760e+00 3.681203049435732605e-04
4.429363950404056595e+03 1.131921628345561315e+00 4.361773237329563983e-04
4.433793314354462382e+03 1.162254564903420828e+00 4.349727338936254994e-04
4.438227107668818462e+03 1.193387153182045690e+00 3.642714576168944608e-04
4.442665334776488635e+03 1.225354906226069129e+00 2.700918341943892649e-04
4.447108000111265937e+03 1.258080928641226226e+00 2.616811368490303078e-04
4.451555108111379013e+03 1.291382824114602146e+00 2.829258480692111084e-04
4.456006663219492111e+03 1.324811404267668413e+00 2.786929961064444879e-04
4.460462669882713271e+03 1.358529157287669875e+00 3.960348458589630282e-04
4.464923132552597053e+03 1.391685508765944101e+00 4.118429997764050474e-04
4.469388055685150903e+03 1.423758431958312531e+00 3.968150941602678139e-04
4.473857443740837880e+03 1.454916797852051857e+00 3.857479580331701343e-04
4.478331301184580298e+03 1.484399207952993072e+00 3.816512994863952056e-04
4.482809632485766087e+03 1.512387348544428800e+00 3.527994339615688770e-04
4.487292442118253348e+03 1.538593256346536320e+00 3.487791526901686846e-04
4.491779734560373072e+03 1.562873063363605652e+00 3.687174578854786246e-04
4.496271514294934605e+03 1.584767610574246977e+00 3.845229595431019732e-04
4.500767785809231100e+03 1.604761247001809776e+00 4.388481474160769416e-04
4.505268553595042249e+03 1.622802822836993286e+00 4.928304455738318282e-04
4.509773822148638828e+03 1.639160586043085344e+00 5.136390242306230211e-04
4.514283595970789065e+03 1.654039743439576604e+00 4.578750264444296026e-04
4.518797879566761367e+03 1.667793901848412919e+00 4.337655378395486325e-04
4.523316677446328868e+03 1.680395990656904592e+00 4.436672290714582735e-04
4.527839994123776705e+03 1.692135364784530305e+00 5.410613539618616815e-04
4.532367834117902021e+03 1.703243471526271202e+00 5.760832785659217607e-04
4.536900201952022144e+03 1.714111454179805483e+00 5.187764054409543368e-04
4.541437102153975502e+03 1.724491295440541805e+00 4.114557370540511709e-04
4.545978539256130716e+03 1.735019358310653903e+00 5.863796918768849308e-04
4.550524517795388419e+03 1.744632253272563771e+00 6.775202819471979341e-04
4.555075042313184895e+03 1.753124426484560239e+00 8.464038481794065047e-04
4.559630117355500261e+03 1.760247205075385235e+00 9.355050219767186174e-04
4.564189747472856652e+03 1.764778927029676758e+00 8.666281355843065155e-04
4.568753937220330954e+03 1.766927114776970731e+00 7.933293649193580302e-04
4.573322691157552981e+03 1.766583509441186361e+00 7.140052847176407182e-04
4.577896013848711846e+03 1.763412339075469459e+00 7.343993018169836778e-04
4.582473909862562323e+03 1.757142996227590181e+00 8.240981953637588038e-04
4.587056383772426670e+03 1.748154747103710660e+00 7.935873810376114059e-04
4.591643440156200086e+03 1.736801642541694335e+00 6.238474209619132961e-04
4.596235083596357981e+03 1.723181407709545754e+00 4.872248936973856497e-04
4.600831318679955984e+03 1.707635965019431268e+00 5.144637606805533203e-04
4.605432149998637215e+03 1.690152239068243523e+00 4.968192307138088581e-04
4.610037582148637739e+03 1.670460115283893376e+00 5.509670231561434239e-04
4.614647619730787483e+03 1.648880579562665316e+00 6.245812472756199314e-04
4.619262267350520233e+03 1.625634813079730900e+00 6.298199933518157292e-04
4.623881529617872729e+03 1.600792620626873219e+00 6.330704235502011053e-04
4.628505411147491941e+03 1.574179564840080259e+00 7.466900504555422455e-04
4.633133916558640522e+03 1.545950893308032148e+00 9.843464895417056593e-04
4.637767050475200449e+03 1.515437134575174927e+00 1.092586474031313976e-03
4.642404817525677572e+03 1.482956973254073718e+00 1.027429740406646860e-03
4.647047222343205249e+03 1.448502025412056415e+00 8.198725436116798947e-04
4.651694269565549803e+03 1.411633350385213648e+00 8.602636823039624611e-04
4.656345963835116891e+03 1.373308649060075659e+00 9.187154773652359517e-04
4.661002309798953320e+03 1.333802084872593774e+00 1.052098578280305377e-03
4.665663312108753416e+03 1.293585077724443977e+00 1.115952231656203251e-03
4.670328975420864481e+03 1.253447769113599675e+00 1.026812705317688796e-03
4.674999304396286789e+03 1.214295402140527225e+00 8.817718482832721284e-04
4.679674303700684504e+03 1.177620924306125971e+00 6.191006032893754110e-04
4.684353978004386590e+03 1.143994581213954254e+00 4.311984382643336655e-04
4.689038331982392265e+03 1.113887638526531498e+00 5.043735674090068415e-04
4.693727370314376458e+03 1.087221489336943847e+00 5.325064860455798422e-04
4.698421097684692540e+03 1.063510882106756039e+00 5.224726129750527229e-04
4.703119518782378691e+03 1.043171260585924243e+00 5.131390839371854570e-04
4.707822638301162442e+03 1.025963010200654058e+00 5.331649561948115148e-04
4.712530460939465229e+03 1.011608209552475657e+00 6.424384076152556263e-04
4.717242991400406027e+03 9.997674598470407403e-01 7.495906150744985601e-04
4.721960234391808626e+03 9.897795476044028984e-01 7.587197083954478087e-04
4.726682194626201635e+03 9.807301091171848340e-01 6.965647769393608227e-04
4.731408876820829391e+03 9.724314536709917078e-01 6.861206582006347532e-04
4.736140285697651962e+03 9.643830056905898784e-01 6.781424076198516769e-04
4.740876425983350600e+03 9.560321232755788490e-01 6.801078460220553621e-04
4.745617302409335934e+03 9.474135955274980425e-01 5.922399988643437148e-04
4.750362919711747054e+03 9.382838461222731130e-01 6.637920851610238119e-04
4.755113282631459697e+03 9.289348979046893051e-01 8.951848124544954308e-04
4.759868395914093526e+03 9.195616824730239447e-01 1.163739017244710440e-03
4.764628264310008490e+03 9.107616107815398321e-01 1.082681908015589636e-03
4.769392892574320285e+03 9.038066245300925283e-01 8.466797243335304679e-04
4.774162285466896719e+03 8.990492971189618654e-01 6.512178368707783466e-04
4.778936447752364984e+03 8.970375453393825138e-01 5.466049864772006125e-04
4.783715384200118933e+03 8.978518595815500047e-01 5.303466910304917336e-04
4.788499099584319993e+03 9.011872677581114210e-01 4.864212864577792199e-04
4.793287598683906253e+03 9.074991541008387008e-01 4.855994172237526412e-04
4.798080886282591564e+03 9.166081814973374708e-01 5.789817643315632156e-04
4.802878967168876443e+03 9.279867463004435324e-01 6.547903120445449721e-04
4.807681846136046261e+03 9.408622559687884745e-01 6.285443232712294246e-04
4.812489527982183972e+03 9.544517939681289587e-01 6.368693840200603026e-04
4.817302017510168298e+03 9.678420408212212722e-01 7.194135696981086934e-04
4.822119319527679181e+03 9.807525117765878431e-01 8.063346702576816268e-04
4.826941438847208701e+03 9.923057805142695420e-01 7.674909392614848993e-04
4.831768380286057436e+03 1.002004048226406319e+00 6.490806565702919627e-04
