# starting wavelength: 3748.670
# ending wavelength: 7652.850
# wav flux eflux
3.752187265214570289e+03 3.947699124079154243e-01 2.092362057377023660e-02
3.755939452479786269e+03 4.053974638734221259e-01 1.778485127930629767e-02
3.759695391932267285e+03 4.125644720359374351e-01 1.364299713544637159e-02
3.763455087324201031e+03 4.185981934789269054e-01 1.066244075100078459e-02
3.767218542411526414e+03 4.259979006386450107e-01 9.978786051549143332e-03
3.770985760953939007e+03 4.302936037187852225e-01 8.611945740000452598e-03
3.774756746714894234e+03 4.327818382989894741e-01 7.040890180569985349e-03
3.778531503461610555e+03 4.357268647439320741e-01 6.036241019495473294e-03
3.782310034965073100e+03 4.398617682389238670e-01 5.354894133091442181e-03
3.786092345000039586e+03 4.472185819523015193e-01 5.933489322090128998e-03
3.789878437345040766e+03 4.557845031499399568e-01 5.887140857312450973e-03
3.793668315782387253e+03 4.645395040294706401e-01 5.593760203210341488e-03
3.797461984098170888e+03 4.734760467800107619e-01 5.327507600320098742e-03
3.801259446082270188e+03 4.808944694710082235e-01 5.050274318415142773e-03
3.805060705528353537e+03 4.865421371446657650e-01 5.205449564133359831e-03
3.808865766233883278e+03 4.919829784150855367e-01 5.636972684916924901e-03
3.812674632000118436e+03 5.011824926074571751e-01 5.765359597079370603e-03
3.816487306632119726e+03 5.095002643016162125e-01 5.830730177200468822e-03
3.820303793938753188e+03 5.195533944781896007e-01 5.845968162456915973e-03
3.824124097732693372e+03 5.315319397354584252e-01 5.824590272636921869e-03
3.827948221830427428e+03 5.445718128387370127e-01 5.843729709018963964e-03
3.831776170052258749e+03 5.600869384701153697e-01 5.974037822244964574e-03
3.835607946222312421e+03 5.765845534227596048e-01 5.954450015491290563e-03
3.839443554168536139e+03 5.953222375220875717e-01 5.971258201305234756e-03
3.843282997722705659e+03 6.144887051855147941e-01 5.981969762584643177e-03
3.847126280720429804e+03 6.343408915939025006e-01 6.076766445827256127e-03
3.850973407001151372e+03 6.527137797994052582e-01 6.180126479069616638e-03
3.854824380408153957e+03 6.750706988832125832e-01 6.822198760041215532e-03
3.858679204788563311e+03 6.960663176169709088e-01 7.010250629920620861e-03
3.862537883993353262e+03 7.152388485728290446e-01 6.950052029419261264e-03
3.866400421877347981e+03 7.326051898521104278e-01 6.934722450855049410e-03
3.870266822299226533e+03 7.528298257248629000e-01 6.669976283891397573e-03
3.874137089121526969e+03 7.702247390263102789e-01 6.496567638432471786e-03
3.878011226210649966e+03 7.863176688422277572e-01 6.061635683514125621e-03
3.881889237436861549e+03 7.987596142070397809e-01 5.835732740506055505e-03
3.885771126674299921e+03 8.079461317826114319e-01 5.732931440925371006e-03
3.889656897800975457e+03 8.136373055576731073e-01 5.787940429369890435e-03
3.893546554698777527e+03 8.175067255363954732e-01 5.963892817943317395e-03
3.897440101253477678e+03 8.160093051839398814e-01 5.882591226376196816e-03
3.901337541354732366e+03 8.101864913547545122e-01 4.886372544745533342e-03
3.905238878896088409e+03 8.024965462413472528e-01 4.499999758125036026e-03
3.909144117774985716e+03 7.925173499771427377e-01 4.632563961895020364e-03
3.913053261892762293e+03 7.825698411252760556e-01 4.292849773400352932e-03
3.916966315154656058e+03 7.694539371268066530e-01 4.249450270821442631e-03
3.920883281469812118e+03 7.539592880686055709e-01 4.863206920381992100e-03
3.924804164751283224e+03 7.377381963550300181e-01 5.655685505645430614e-03
3.928728968916035683e+03 7.206484542991072884e-01 6.116336688695389774e-03
3.932657697884953450e+03 7.051191046092530890e-01 5.971976335431008857e-03
3.936590355582839493e+03 6.884992073134141854e-01 5.982514276767533778e-03
3.940526945938423523e+03 6.758932833313728850e-01 5.893323953169410379e-03
3.944467472884363360e+03 6.636850792850307323e-01 5.616945283743323900e-03
3.948411940357249023e+03 6.554766239719823639e-01 5.384028768224120506e-03
3.952360352297607733e+03 6.517569907561144849e-01 6.067015970805100626e-03
3.956312712649906643e+03 6.491792785330421367e-01 6.383019760890219947e-03
3.960269025362557841e+03 6.496488435179587073e-01 6.562065306335152295e-03
3.964229294387921527e+03 6.523366899096647575e-01 6.475548004569265347e-03
3.968193523682310570e+03 6.574213872558009042e-01 5.907371845787940355e-03
3.972161717205994591e+03 6.656235116008991648e-01 5.262292640579694335e-03
3.976133878923201792e+03 6.727458008983404625e-01 5.342620842987498564e-03
3.980110012802126221e+03 6.798863905422466436e-01 5.661786745225057260e-03
3.984090122814929600e+03 6.899463563694883117e-01 5.900819189946214863e-03
3.988074212937745870e+03 7.011607440061651264e-01 5.899211967778491585e-03
3.992062287150684824e+03 7.128593082574358197e-01 5.876464144495088283e-03
3.996054349437837118e+03 7.232336398215830631e-01 5.562079997874459433e-03
4.000050403787276082e+03 7.329395438957874154e-01 5.050987207834493377e-03
4.004050454191064546e+03 7.445121832862168221e-01 5.426756042882605047e-03
4.008054504645257111e+03 7.560104481741465321e-01 5.872049813269200093e-03
4.012062559149903791e+03 7.665482399045164819e-01 5.903855819103060072e-03
4.016074621709055009e+03 7.780759237481015278e-01 5.378434454462946955e-03
4.020090696330765240e+03 7.873155929888112636e-01 4.918801943423846412e-03
4.024110787027097558e+03 7.964214062713476094e-01 4.696803373946425303e-03
4.028134897814125907e+03 8.001131480359372494e-01 5.174956299320014608e-03
4.032163032711941469e+03 8.031911909837942121e-01 5.106217709006190264e-03
4.036195195744654484e+03 8.034974236314875728e-01 4.938606025800539555e-03
4.040231390940400615e+03 8.015249158497972370e-01 4.214886319128864113e-03
4.044271622331342314e+03 7.996868672532130295e-01 3.907557959835322205e-03
4.048315893953675186e+03 7.977818524856363780e-01 4.156811051268374801e-03
4.052364209847629809e+03 7.937691883114171842e-01 4.360648645733993141e-03
4.056416574057479011e+03 7.926860709956032869e-01 4.812689869347117066e-03
4.060472990631537868e+03 7.897233569614857673e-01 4.243984433941122743e-03
4.064533463622170530e+03 7.845807250001822775e-01 3.669925582257948116e-03
4.068597997085794304e+03 7.757998317251467713e-01 3.490719562035273990e-03
4.072666595082881486e+03 7.630052181952503565e-01 4.026397265067945160e-03
4.076739261677965715e+03 7.479893719178668521e-01 4.274167375542432812e-03
4.080816000939644709e+03 7.321257611307550039e-01 4.477562356999060557e-03
4.084896816940585722e+03 7.166905292302439001e-01 4.260629240217589028e-03
4.088981713757527814e+03 7.014671931474818489e-01 4.186024423549297192e-03
4.093070695471286854e+03 6.864251262863827474e-01 3.446884598240036821e-03
4.097163766166759160e+03 6.734612794374226219e-01 3.036246023273259445e-03
4.101260929932927866e+03 6.657368612676604069e-01 3.238212918197487956e-03
4.105362190862862008e+03 6.611148405331686018e-01 3.232009360465906353e-03
4.109467553053726078e+03 6.604028710570118976e-01 3.671215126942440309e-03
4.113577020606780934e+03 6.624047720477865830e-01 3.929819999022836005e-03
4.117690597627389252e+03 6.657239761203845863e-01 3.973564847272353581e-03
4.121808288225018259e+03 6.704176395047912740e-01 3.372552044936800390e-03
4.125930096513244280e+03 6.731556509274686517e-01 3.410097110639267234e-03
4.130056026609759101e+03 6.755689669661200103e-01 3.610634707201161499e-03
4.134186082636369974e+03 6.776000079121704545e-01 3.618732826971502500e-03
4.138320268719007800e+03 6.787788436825822336e-01 3.562951270569670800e-03
4.142458588987728035e+03 6.795103482199001954e-01 3.520238718926694838e-03
4.146601047576717065e+03 6.763539924954130589e-01 3.383637781382284934e-03
4.150747648624294925e+03 6.730600796529870866e-01 3.187949986557686056e-03
4.154898396272920763e+03 6.659742200958913561e-01 3.351043502272874064e-03
4.159053294669195566e+03 6.566885533664229557e-01 3.387724770842884692e-03
4.163212347963865795e+03 6.487978727806260615e-01 3.322947877267116729e-03
4.167375560311830668e+03 6.406446926315345625e-01 3.312147068853387496e-03
4.171542935872143971e+03 6.356230463306619116e-01 3.174327509226274220e-03
4.175714478808017702e+03 6.302904002430244068e-01 3.454290136173037741e-03
4.179890193286827525e+03 6.246633903828769929e-01 4.534800503977701874e-03
4.184070083480115500e+03 6.229519444612277024e-01 3.591290515114392567e-03
4.188254153563597356e+03 6.289899145185590124e-01 4.571263598657953828e-03
4.192442407717161586e+03 6.385031743394067316e-01 4.772637877147587783e-03
4.196634850124880359e+03 6.508193138884391660e-01 4.937680824213671986e-03
4.200831484975006788e+03 6.649555788061328743e-01 4.787185777965974852e-03
4.205032316459983122e+03 6.781698178799431265e-01 4.714603695502585581e-03
4.209237348776444378e+03 6.913336435435333271e-01 4.911646465711317147e-03
4.213446586125221984e+03 7.058961126330116631e-01 4.878934334034425689e-03
4.217660032711349231e+03 7.191895055145537397e-01 4.768950958984728532e-03
4.221877692744061278e+03 7.329521905360991685e-01 4.792781783477551363e-03
4.226099570436806971e+03 7.448625769373420358e-01 4.778462820547516032e-03
4.230325670007245208e+03 7.542096534144311359e-01 4.748663961161611428e-03
4.234555995677254032e+03 7.605931035628270553e-01 4.640143502400402749e-03
4.238790551672932452e+03 7.646520795244242663e-01 4.575799333600191927e-03
4.243029342224606808e+03 7.694885683696633949e-01 4.549823795654412729e-03
4.247272371566832589e+03 7.708645345330692455e-01 4.403454901172676635e-03
4.251519643938400804e+03 7.719207869991198123e-01 3.716895901800719611e-03
4.255771163582340705e+03 7.670899360639701348e-01 4.278116030925629455e-03
4.260026934745924336e+03 7.586899474680437461e-01 3.893656873448092179e-03
4.264286961680671993e+03 7.527527738024334392e-01 3.299652155283323667e-03
4.268551248642354039e+03 7.514731138184208570e-01 3.294559543757138997e-03
4.272819799890998183e+03 7.517662364529854591e-01 2.858816887479680158e-03
4.277092619690890388e+03 7.566476493377958246e-01 2.877813105211707301e-03
4.281369712310583054e+03 7.646109302177396261e-01 2.900020093457817989e-03
4.285651082022895025e+03 7.740023561038437139e-01 3.750369581781712140e-03
4.289936733104918858e+03 7.846118710355723946e-01 5.351694761036492227e-03
4.294226669838025373e+03 7.940238648906339236e-01 5.756356852434941010e-03
4.298520896507864563e+03 7.983108253916965102e-01 4.878138535324265564e-03
4.302819417404373780e+03 7.969561498227110130e-01 4.413348681529043367e-03
4.307122236821779552e+03 7.905139519557570216e-01 4.719739186002213337e-03
4.311429359058603040e+03 7.791764528364538700e-01 4.993621961594888956e-03
4.315740788417662770e+03 7.643733860013962600e-01 4.772490019076768702e-03
4.320056529206081905e+03 7.456189307514752285e-01 4.228407396149058001e-03
4.324376585735290064e+03 7.282842519824861416e-01 4.041905045126585778e-03
4.328700962321026054e+03 7.129697682410507387e-01 3.349848998655063480e-03
4.333029663283348782e+03 7.033996358906955404e-01 3.320931403174671656e-03
4.337362692946633615e+03 6.972314061731667012e-01 3.205839040297347748e-03
4.341700055639581478e+03 6.967550947570088082e-01 3.353400091025777498e-03
4.346041755695222491e+03 7.041585141640490653e-01 3.398663088115862381e-03
4.350387797450919606e+03 7.189425130872091341e-01 3.478700929463935006e-03
4.354738185248371337e+03 7.382107851719089675e-01 3.727365926379288229e-03
4.359092923433621763e+03 7.607596279373244341e-01 4.802270950361331274e-03
4.363452016357056891e+03 7.846845839230548458e-01 7.156777148973953416e-03
4.367815468373414660e+03 8.071681069027702993e-01 8.311952255830857422e-03
4.372183283841789489e+03 8.230994527710847608e-01 6.782532932186060085e-03
4.376555467125633186e+03 8.309857067677576259e-01 5.315941134908594087e-03
4.380932022592760404e+03 8.283362113448172748e-01 6.463957063781495052e-03
4.385312954615354101e+03 8.173874697581205995e-01 7.499956391775150846e-03
4.389698267569970994e+03 8.019343186894933861e-01 7.389964768367841309e-03
4.394087965837542470e+03 7.839678436052022192e-01 6.739186848983425536e-03
4.398482053803381859e+03 7.640495740495479859e-01 6.233913959038606990e-03
4.402880535857186260e+03 7.429511866572262591e-01 5.368204336123883619e-03
4.407283416393044718e+03 7.270303506955463346e-01 4.683649526130276297e-03
4.411690699809440048e+03 7.193866244062830928e-01 4.800330601298221506e-03
4.416102390509250654e+03 7.195534588475773763e-01 5.428841402940486754e-03
4.420518492899761441e+03 7.239541092575073611e-01 5.574663621603699604e-03
4.424939011392662906e+03 7.295608493326249944e-01 5.165820939576546561e-03
4.429363950404056595e+03 7.362480124458561370e-01 4.844894935533094332e-03
4.433793314354462382e+03 7.439257266711336580e-01 4.742044006623392753e-03
4.438227107668818462e+03 7.507543491067504293e-01 4.679265180655340674e-03
4.442665334776488635e+03 7.582018609778506946e-01 4.654125935340551815e-03
4.447108000111265937e+03 7.672779978196199169e-01 4.503884970288825514e-03
4.451555108111379013e+03 7.772376040735667901e-01 4.708756329635367319e-03
4.456006663219492111e+03 7.868541043761810849e-01 5.142645019950593636e-03
4.460462669882713271e+03 7.994952455637339694e-01 4.865702363845027419e-03
4.464923132552597053e+03 8.142586508977525117e-01 3.822654289041491245e-03
4.469388055685150903e+03 8.345916239368753597e-01 3.171042858194284518e-03
4.473857443740837880e+03 8.614450093628723826e-01 3.467755801894953100e-03
4.478331301184580298e+03 8.939828942627792152e-01 3.138921038692569793e-03
4.482809632485766087e+03 9.269747896304346702e-01 2.703861990835294132e-03
4.487292442118253348e+03 9.598363662321305334e-01 2.688112420984671048e-03
4.491779734560373072e+03 9.934174587840582937e-01 2.916900070147816857e-03
4.496271514294934605e+03 1.027317957114597613e+00 3.273793390075516695e-03
4.500767785809231100e+03 1.059517893471922267e+00 3.070940340544120982e-03
4.505268553595042249e+03 1.086204509399758988e+00 2.322833753291645917e-03
4.509773822148638828e+03 1.105054905261576792e+00 3.228427226012644657e-03
4.514283595970789065e+03 1.119191795483730711e+00 3.797092224966872997e-03
4.518797879566761367e+03 1.131421099791232843e+00 3.734020804679791337e-03
4.523316677446328868e+03 1.141221871325933446e+00 3.674162301812273438e-03
4.527839994123776705e+03 1.149556218328885882e+00 3.604754853546388894e-03
4.532367834117902021e+03 1.156902634415416076e+00 3.473847427197002992e-03
4.536900201952022144e+03 1.163086555166694236e+00 3.320771872963275157e-03
4.541437102153975502e+03 1.169517960139383694e+00 3.182597185704071595e-03
4.545978539256130716e+03 1.177943615300093727e+00 3.220354073067513336e-03
4.550524517795388419e+03 1.186685864787168754e+00 3.227245181045270903e-03
4.555075042313184895e+03 1.197471220988450824e+00 3.130550707648134274e-03
4.559630117355500261e+03 1.207898811485571100e+00 3.118675477157605101e-03
4.564189747472856652e+03 1.219923377951207311e+00 2.966142240408141915e-03
4.568753937220330954e+03 1.230020747806845227e+00 2.825643663086356734e-03
4.573322691157552981e+03 1.240661449250398007e+00 2.407490832711360780e-03
4.577896013848711846e+03 1.252678568394990588e+00 2.383810845566460695e-03
4.582473909862562323e+03 1.266016011161768207e+00 2.666108356200727700e-03
4.587056383772426670e+03 1.279778587320216765e+00 2.227605930478311711e-03
4.591643440156200086e+03 1.290848424990944210e+00 1.882909673282001217e-03
4.596235083596357981e+03 1.298822313820077845e+00 1.847175282075806668e-03
4.600831318679955984e+03 1.305148006984808928e+00 1.995853182869099761e-03
4.605432149998637215e+03 1.309505559420393928e+00 2.161438997513658380e-03
4.610037582148637739e+03 1.309140317447226254e+00 2.081700415405098037e-03
4.614647619730787483e+03 1.305356571190100956e+00 1.994668974317766446e-03
4.619262267350520233e+03 1.297119777030363519e+00 2.558464752757362397e-03
4.623881529617872729e+03 1.285485178214248014e+00 3.044109611635229147e-03
4.628505411147491941e+03 1.272528592536992686e+00 3.226339986094618230e-03
4.633133916558640522e+03 1.261177891315557353e+00 3.029118267176195579e-03
4.637767050475200449e+03 1.250365791779036506e+00 2.876595094904758117e-03
4.642404817525677572e+03 1.241046056365709749e+00 2.852640417683485058e-03
4.647047222343205249e+03 1.231939931219550699e+00 2.653162783081350774e-03
4.651694269565549803e+03 1.227921087420076995e+00 2.907853401092163129e-03
4.656345963835116891e+03 1.224965248090857273e+00 3.098727731883676832e-03
4.661002309798953320e+03 1.224176106999098401e+00 3.423998724471978648e-03
4.665663312108753416e+03 1.224627091509901788e+00 3.398225293315936587e-03
4.670328975420864481e+03 1.223372141276933167e+00 2.829400091860423492e-03
4.674999304396286789e+03 1.220589682907079032e+00 2.754314203647501534e-03
4.679674303700684504e+03 1.215296178689127871e+00 2.791326930037239720e-03
4.684353978004386590e+03 1.209544216659848237e+00 2.779576724855562907e-03
4.689038331982392265e+03 1.202434796486511859e+00 2.843228428157563818e-03
4.693727370314376458e+03 1.193742904147985451e+00 2.809807981861928237e-03
4.698421097684692540e+03 1.183114877735341075e+00 2.945428111581947176e-03
4.703119518782378691e+03 1.172285124087705466e+00 3.284489492677763849e-03
4.707822638301162442e+03 1.160347801132965095e+00 3.479793450049951421e-03
4.712530460939465229e+03 1.150257230733882086e+00 3.174533457129465139e-03
4.717242991400406027e+03 1.142555224538374770e+00 3.161055277247489578e-03
4.721960234391808626e+03 1.137528482377258898e+00 3.304256571927116116e-03
4.726682194626201635e+03 1.132629867376109267e+00 3.263334014395882169e-03
4.731408876820829391e+03 1.127903315517317928e+00 3.368633152290935288e-03
4.736140285697651962e+03 1.121825946988594280e+00 3.362736439030099451e-03
4.740876425983350600e+03 1.116779782002470967e+00 3.150903479205591478e-03
4.745617302409335934e+03 1.110671883685210970e+00 3.071482353799951954e-03
4.750362919711747054e+03 1.103194816791366106e+00 2.805473994888918812e-03
4.755113282631459697e+03 1.094432291452597239e+00 2.782022207499573394e-03
4.759868395914093526e+03 1.082707886357201943e+00 2.743239579303956982e-03
4.764628264310008490e+03 1.070640100889511670e+00 2.169963319782074965e-03
4.769392892574320285e+03 1.058390169778192558e+00 1.511558982699205949e-03
4.774162285466896719e+03 1.048416537983710484e+00 1.608834451190444123e-03
4.778936447752364984e+03 1.039777290991157122e+00 1.614696582164040165e-03
4.783715384200118933e+03 1.031446639981445479e+00 1.919357168503294441e-03
4.788499099584319993e+03 1.024687965682460788e+00 2.552780978833605035e-03
4.793287598683906253e+03 1.020650803046766253e+00 2.540287066256246163e-03
4.798080886282591564e+03 1.019277730004805482e+00 2.151960418053595284e-03
4.802878967168876443e+03 1.020881400457299026e+00 2.022756557722847626e-03
4.807681846136046261e+03 1.026546985814214441e+00 2.106618989101798935e-03
4.812489527982183972e+03 1.034795076304972028e+00 2.467634841337486458e-03
4.817302017510168298e+03 1.044367805242228942e+00 2.963636750014991047e-03
4.822119319527679181e+03 1.054798461229504491e+00 3.157587494769099282e-03
4.826941438847208701e+03 1.063516279770049033e+00 3.035079497002352456e-03
4.831768380286057436e+03 1.070469925333992878e+00 2.529632200195029799e-03
4.836600148666345376e+03 1.074451874026252307e+00 1.749542159248925876e-03
4.841436748815013743e+03 1.073428940745801752e+00 2.124187943400719560e-03
4.846278185563829538e+03 1.069150988259546242e+00 2.297952070051819621e-03
4.851124463749395545e+03 1.061727750482614585e+00 2.119058314783431578e-03
4.855975588213146693e+03 1.053099322168132623e+00 1.906473872001365972e-03
4.860831563801360971e+03 1.043603848402552714e+00 1.441856899344326698e-03
4.865692395365163975e+03 1.035672083690583722e+00 1.372304969194976416e-03
4.870558087760530725e+03 1.029891027460804187e+00 1.363189702141215072e-03
4.875428645848292945e+03 1.024584231595340178e+00 1.499629724004894818e-03
4.880304074494142696e+03 1.023356511003883362e+00 1.315435253468572301e-03
4.885184378568638749e+03 1.026852932634674254e+00 1.311799516074095562e-03
