# starting wavelength: 3703.980
# ending wavelength: 7622.310
# wav flux eflux
3.707452327947895355e+03 4.081584988175301354e-01 2.925657746810104553e-03
3.711159780275844696e+03 4.093295615620929917e-01 2.175567847433289553e-03
3.714870940056121526e+03 4.089132334230773935e-01 1.975062366069142965e-03
3.718585810996179134e+03 4.077206101952431938e-01 1.719555592388802507e-03
3.722304396807176545e+03 4.061218056584198211e-01 1.780768016564165468e-03
3.726026701203984885e+03 4.051720571541525540e-01 1.450057942423625505e-03
3.729752727905190113e+03 4.047688200593099195e-01 1.177343889355534929e-03
3.733482480633096657e+03 4.050145011244191129e-01 9.592942034992140831e-04
3.737215963113731050e+03 4.059235153623019232e-01 7.846690473277687572e-04
3.740953179076846027e+03 4.075688683595485862e-01 6.685532256083386591e-04
3.744694132255923705e+03 4.102058737281097378e-01 6.257066055566952445e-04
3.748438826388181042e+03 4.138476966057124118e-01 5.730212775771748425e-04
3.752187265214570289e+03 4.185365736502169032e-01 5.269916194670710465e-04
3.755939452479786269e+03 4.241634362964929461e-01 4.935075354526071833e-04
3.759695391932267285e+03 4.309845430191563409e-01 4.669492125398370529e-04
3.763455087324201031e+03 4.388552072293778750e-01 5.143783124374558041e-04
3.767218542411526414e+03 4.480582659912806243e-01 5.858566162658292165e-04
3.770985760953939007e+03 4.586169646934785682e-01 7.414823130308015970e-04
3.774756746714894234e+03 4.714291573722082518e-01 7.607342251564013337e-04
3.778531503461610555e+03 4.855130424949386514e-01 8.734073887742785933e-04
3.782310034965073100e+03 5.013542066770189098e-01 9.916488149467831553e-04
3.786092345000039586e+03 5.191695987743103480e-01 1.028363380176487533e-03
3.789878437345040766e+03 5.391506417492089032e-01 9.814529061010013669e-04
3.793668315782387253e+03 5.610425887814813883e-01 8.882178521290012146e-04
3.797461984098170888e+03 5.851592291336734641e-01 8.254567562771545275e-04
3.801259446082270188e+03 6.114568916476939009e-01 7.696710241311686181e-04
3.805060705528353537e+03 6.398007683035679127e-01 7.390561113277183992e-04
3.808865766233883278e+03 6.704232878468291412e-01 8.662454029879854004e-04
3.812674632000118436e+03 7.026846049474033684e-01 8.899511625708078806e-04
3.816487306632119726e+03 7.365417313513855646e-01 9.145694564006594035e-04
3.820303793938753188e+03 7.722005338464211777e-01 9.037304057492730972e-04
3.824124097732693372e+03 8.093230347990171270e-01 8.748504551538274299e-04
3.827948221830427428e+03 8.477367433623234083e-01 8.091959236346920247e-04
3.831776170052258749e+03 8.874133090206175467e-01 7.381466922086111397e-04
3.835607946222312421e+03 9.277811498992450945e-01 8.129987169645403605e-04
3.839443554168536139e+03 9.687502503578379054e-01 1.075880067016340372e-03
3.843282997722705659e+03 1.009700398858954795e+00 1.283069109894380234e-03
3.847126280720429804e+03 1.050387514104182518e+00 1.480066257742616897e-03
3.850973407001151372e+03 1.090094152650179504e+00 1.533420759299639839e-03
3.854824380408153957e+03 1.128152747754250562e+00 1.468644639665172029e-03
3.858679204788563311e+03 1.164661827989028398e+00 1.423982324397739425e-03
3.862537883993353262e+03 1.199491239642034746e+00 1.396456174521362986e-03
3.866400421877347981e+03 1.232427030020960768e+00 1.384494360745315567e-03
3.870266822299226533e+03 1.263711768764730348e+00 1.369540785466673728e-03
3.874137089121526969e+03 1.292439201122936643e+00 1.353078490686591149e-03
3.878011226210649966e+03 1.318763374064686023e+00 1.362830185980055996e-03
3.881889237436861549e+03 1.342658538728173978e+00 1.382884780126809312e-03
3.885771126674299921e+03 1.364063421071232129e+00 1.422643234000497492e-03
3.889656897800975457e+03 1.382746841435735341e+00 1.469875768879379263e-03
3.893546554698777527e+03 1.399300822223427998e+00 1.492120396199216655e-03
3.897440101253477678e+03 1.412920112841733467e+00 1.452336231629747969e-03
3.901337541354732366e+03 1.424398937626358164e+00 1.396306875776237057e-03
3.905238878896088409e+03 1.433852817346852770e+00 1.224746181823231682e-03
3.909144117774985716e+03 1.441392540108069387e+00 1.089865153054578968e-03
3.913053261892762293e+03 1.447899566383699543e+00 1.064486587296382437e-03
3.916966315154656058e+03 1.453132697337691015e+00 1.071482283643924874e-03
3.920883281469812118e+03 1.457252402509796818e+00 1.064104090455136181e-03
3.924804164751283224e+03 1.459947296583928633e+00 1.007575757877505248e-03
3.928728968916035683e+03 1.461326424961269854e+00 9.715140042111651986e-04
3.932657697884953450e+03 1.461155631577462977e+00 1.021650926063384646e-03
3.936590355582839493e+03 1.459984274255677894e+00 1.050411736187705425e-03
3.940526945938423523e+03 1.457441213490085818e+00 9.941604051553318191e-04
3.944467472884363360e+03 1.453783692460665522e+00 9.416464998777923472e-04
3.948411940357249023e+03 1.449353400585318141e+00 1.141652481261003866e-03
3.952360352297607733e+03 1.444482416607866693e+00 1.335162721002248771e-03
3.956312712649906643e+03 1.438138086409388450e+00 1.294644826992343706e-03
3.960269025362557841e+03 1.430123899181178881e+00 1.040506934232572015e-03
3.964229294387921527e+03 1.419882094044879084e+00 1.236515962042768896e-03
3.968193523682310570e+03 1.408137854240226083e+00 1.289881098966588931e-03
3.972161717205994591e+03 1.395516437326569381e+00 1.329365682809005838e-03
3.976133878923201792e+03 1.382094307442535364e+00 1.387400882035315017e-03
3.980110012802126221e+03 1.367344984695813892e+00 1.427090357495192736e-03
3.984090122814929600e+03 1.351632625093381668e+00 1.418188125588576778e-03
3.988074212937745870e+03 1.335513962102292007e+00 1.474168936012209240e-03
3.992062287150684824e+03 1.319096371884870278e+00 1.560555828792924192e-03
3.996054349437837118e+03 1.301721610419172226e+00 1.573111410111569354e-03
4.000050403787276082e+03 1.283721485518910299e+00 1.578918760598752285e-03
4.004050454191064546e+03 1.265485226545268960e+00 1.614027121224150809e-03
4.008054504645257111e+03 1.246916500097601910e+00 1.607469196528219088e-03
4.012062559149903791e+03 1.228091696907726460e+00 1.569451709858364066e-03
4.016074621709055009e+03 1.209193113420926613e+00 1.571098665830127300e-03
4.020090696330765240e+03 1.190414118512777231e+00 1.392610030080589350e-03
4.024110787027097558e+03 1.171004478343711686e+00 1.492576723963139453e-03
4.028134897814125907e+03 1.150847654615026805e+00 1.460981544806245558e-03
4.032163032711941469e+03 1.131045723503744771e+00 1.222248879318011414e-03
4.036195195744654484e+03 1.111924939424948189e+00 1.003231126523868467e-03
4.040231390940400615e+03 1.093947241354618960e+00 8.576232008343297013e-04
4.044271622331342314e+03 1.078079666253262348e+00 8.404285522866153640e-04
4.048315893953675186e+03 1.064657349777938355e+00 8.365527866594052149e-04
4.052364209847629809e+03 1.052807879236110189e+00 8.409031383107668607e-04
4.056416574057479011e+03 1.042464431045001527e+00 8.412544735833005520e-04
4.060472990631537868e+03 1.033745940216050707e+00 8.652032693613376409e-04
4.064533463622170530e+03 1.027315518550711460e+00 9.306325937447746223e-04
4.068597997085794304e+03 1.021542923938686398e+00 9.365303101186247701e-04
4.072666595082881486e+03 1.017073698275375637e+00 9.617301534524226939e-04
4.076739261677965715e+03 1.014438315604734075e+00 8.210953623577334302e-04
4.080816000939644709e+03 1.012239468128958819e+00 6.499755701414862245e-04
4.084896816940585722e+03 1.009489544869108801e+00 7.228899249369968904e-04
4.088981713757527814e+03 1.006631234801459884e+00 1.054605205010818560e-03
4.093070695471286854e+03 1.004961677821165189e+00 1.119185382189167872e-03
4.097163766166759160e+03 1.003230881178747369e+00 1.115316453419113547e-03
4.101260929932927866e+03 1.002140941439332966e+00 1.075588118153194411e-03
4.105362190862862008e+03 1.001786495755157436e+00 1.041684073911480638e-03
4.109467553053726078e+03 1.002449684936552288e+00 9.381122988067144581e-04
4.113577020606780934e+03 1.004149085780934980e+00 9.616709796953009856e-04
4.117690597627389252e+03 1.006992480417266966e+00 1.112952072429939602e-03
4.121808288225018259e+03 1.009778386158018515e+00 1.185244109657445895e-03
4.125930096513244280e+03 1.012140492003863024e+00 1.179650533991109329e-03
4.130056026609759101e+03 1.014427913831897898e+00 1.102883095144724596e-03
4.134186082636369974e+03 1.015977146144647847e+00 9.208110275159956705e-04
4.138320268719007800e+03 1.016352295640708059e+00 9.062098483128923137e-04
4.142458588987728035e+03 1.015807172041870210e+00 8.708804482901339470e-04
4.146601047576717065e+03 1.013925100333797014e+00 8.856996744189664112e-04
4.150747648624294925e+03 1.010704028194815640e+00 7.177144069915530281e-04
4.154898396272920763e+03 1.006999639089262599e+00 6.902095418653667091e-04
4.159053294669195566e+03 1.003934380844603957e+00 7.005907453166595848e-04
4.163212347963865795e+03 1.001233157001603979e+00 7.032954266533619943e-04
4.167375560311830668e+03 9.984675767186379503e-01 7.290041194951182293e-04
4.171542935872143971e+03 9.964474036068711182e-01 5.971256363905577636e-04
4.175714478808017702e+03 9.962579613336423057e-01 7.334257518034947897e-04
4.179890193286827525e+03 9.966572058070594098e-01 7.585229902987116043e-04
4.184070083480115500e+03 9.976868723658046667e-01 7.514853982736771458e-04
4.188254153563597356e+03 9.999155545502430575e-01 7.534444633654853365e-04
4.192442407717161586e+03 1.002701637164792547e+00 7.534790169129270462e-04
4.196634850124880359e+03 1.006435637876549105e+00 6.273840697842943733e-04
4.200831484975006788e+03 1.010203373371948210e+00 5.898205843414114271e-04
4.205032316459983122e+03 1.013946792275200126e+00 6.149813773089902709e-04
4.209237348776444378e+03 1.017742638353870355e+00 7.554533934558207726e-04
4.213446586125221984e+03 1.021571764776840752e+00 6.847872411633824105e-04
4.217660032711349231e+03 1.026073212785205691e+00 7.013491883890835043e-04
4.221877692744061278e+03 1.030553645761098647e+00 8.093733127737143219e-04
4.226099570436806971e+03 1.034720032088631392e+00 9.018817482026406790e-04
4.230325670007245208e+03 1.037962224438289782e+00 9.001705747021741377e-04
4.234555995677254032e+03 1.039889216047574561e+00 8.926232408578691803e-04
4.238790551672932452e+03 1.041066475596292173e+00 8.002467255620635640e-04
4.243029342224606808e+03 1.040679160733033903e+00 7.763676627247971616e-04
4.247272371566832589e+03 1.037766002385265729e+00 7.817464008412878347e-04
4.251519643938400804e+03 1.032690735406558424e+00 7.770411774923022307e-04
4.255771163582340705e+03 1.025772367716651479e+00 7.365176887649937248e-04
4.260026934745924336e+03 1.016402639632637550e+00 8.410131265541241066e-04
4.264286961680671993e+03 1.005258135727800317e+00 8.072396353758559467e-04
4.268551248642354039e+03 9.929755656456540347e-01 7.615971591221864893e-04
4.272819799890998183e+03 9.797631804876401063e-01 7.000036410363295273e-04
4.277092619690890388e+03 9.662408144155848477e-01 6.937924168005459415e-04
4.281369712310583054e+03 9.523170989688485299e-01 6.872088123691466946e-04
4.285651082022895025e+03 9.382517497447488974e-01 6.822327842270379736e-04
4.289936733104918858e+03 9.239757352007450519e-01 6.171801380552327694e-04
4.294226669838025373e+03 9.101122708236661918e-01 6.651663018643783499e-04
4.298520896507864563e+03 8.968638369037642555e-01 6.457238491398912790e-04
4.302819417404373780e+03 8.838322629486644599e-01 5.237454890721996706e-04
4.307122236821779552e+03 8.711239768645123727e-01 4.941045944617924925e-04
4.311429359058603040e+03 8.586492671099917873e-01 5.306556486647756414e-04
4.315740788417662770e+03 8.465788226567586561e-01 3.280776727354186109e-04
4.320056529206081905e+03 8.356726430517590343e-01 4.005762206280358956e-04
4.324376585735290064e+03 8.257382473878718265e-01 4.638147542537547239e-04
4.328700962321026054e+03 8.164262368269342707e-01 4.600324672543455967e-04
4.333029663283348782e+03 8.079892501704974972e-01 4.383412002901719497e-04
4.337362692946633615e+03 8.004420167346357751e-01 4.635871368794153053e-04
4.341700055639581478e+03 7.939711881167463847e-01 4.778123967412847752e-04
4.346041755695222491e+03 7.887890541731615857e-01 4.888720432258197380e-04
4.350387797450919606e+03 7.850293346523479210e-01 4.856728594236118472e-04
4.354738185248371337e+03 7.825800999508418787e-01 4.847318465205095240e-04
4.359092923433621763e+03 7.818182420056511983e-01 4.772375944612824842e-04
4.363452016357056891e+03 7.827067219794983099e-01 4.975937171273021528e-04
4.367815468373414660e+03 7.852117492760597450e-01 5.135100462142267895e-04
4.372183283841789489e+03 7.894528303380328182e-01 5.154718885472455315e-04
4.376555467125633186e+03 7.956913444125662815e-01 4.297784794578016578e-04
4.380932022592760404e+03 8.035239367254096710e-01 4.601322763720366708e-04
4.385312954615354101e+03 8.129598190466288399e-01 6.031894269766580920e-04
4.389698267569970994e+03 8.244169170377561029e-01 5.600806165170303707e-04
4.394087965837542470e+03 8.379423644759330658e-01 5.245408702975551483e-04
4.398482053803381859e+03 8.535442456561440627e-01 6.939679337032037074e-04
4.402880535857186260e+03 8.710091445322383219e-01 7.341490004956423938e-04
4.407283416393044718e+03 8.899721507466672454e-01 7.158128083590646054e-04
4.411690699809440048e+03 9.107009241374569575e-01 7.134009899166656680e-04
4.416102390509250654e+03 9.331543231969757768e-01 7.162226907155408353e-04
4.420518492899761441e+03 9.571125256795085523e-01 7.560797552599186205e-04
4.424939011392662906e+03 9.828537297479695845e-01 7.546686877242804155e-04
4.429363950404056595e+03 1.010165117620534625e+00 7.378800418447279894e-04
4.433793314354462382e+03 1.038865053872179312e+00 7.303749397017090216e-04
4.438227107668818462e+03 1.069017329117297521e+00 6.613630281526888290e-04
4.442665334776488635e+03 1.100749676188474302e+00 7.294401596267262615e-04
4.447108000111265937e+03 1.133843628975557571e+00 8.504519933865090173e-04
4.451555108111379013e+03 1.167441940808126022e+00 7.907700426758942783e-04
4.456006663219492111e+03 1.201526276273666261e+00 8.376183559057882822e-04
4.460462669882713271e+03 1.236120399591017938e+00 9.018553145027414673e-04
4.464923132552597053e+03 1.270694836971204111e+00 8.766565929409169235e-04
4.469388055685150903e+03 1.305272449544017777e+00 8.293077331410330646e-04
4.473857443740837880e+03 1.339739214941290113e+00 1.096223192584560831e-03
4.478331301184580298e+03 1.373490160486114720e+00 1.286407363996266984e-03
4.482809632485766087e+03 1.405992799447766339e+00 1.192349604555031353e-03
4.487292442118253348e+03 1.436472858494444171e+00 1.103795197890609361e-03
4.491779734560373072e+03 1.464842084028966873e+00 1.185059339652390440e-03
4.496271514294934605e+03 1.491677456144294922e+00 1.207277273372056635e-03
4.500767785809231100e+03 1.516703029243029688e+00 1.215270391124489199e-03
4.505268553595042249e+03 1.539632981872525841e+00 1.221069383086397430e-03
4.509773822148638828e+03 1.560985172075027627e+00 1.206208094289795002e-03
4.514283595970789065e+03 1.580848140912263000e+00 1.120821134929045728e-03
4.518797879566761367e+03 1.599435211313392502e+00 8.932933717740339490e-04
4.523316677446328868e+03 1.617499027765355812e+00 8.741933467152416919e-04
4.527839994123776705e+03 1.635066287485110958e+00 8.771499059144478687e-04
4.532367834117902021e+03 1.651955665082159630e+00 6.360638285174021172e-04
4.536900201952022144e+03 1.667318170705470282e+00 6.611728586869684452e-04
4.541437102153975502e+03 1.681261875975159192e+00 7.381618848488547598e-04
4.545978539256130716e+03 1.694116019302302600e+00 6.846968358195945712e-04
4.550524517795388419e+03 1.705599576469281065e+00 7.595449684626910279e-04
4.555075042313184895e+03 1.715589341053002315e+00 9.533988119265939323e-04
4.559630117355500261e+03 1.723789131461088253e+00 9.683975415322459849e-04
4.564189747472856652e+03 1.729518465812549310e+00 7.860552806416928493e-04
4.568753937220330954e+03 1.732429757009652294e+00 6.321841162849549086e-04
4.573322691157552981e+03 1.732118427522721715e+00 6.354892744060111924e-04
4.577896013848711846e+03 1.728677952392026151e+00 6.940533478367850138e-04
4.582473909862562323e+03 1.722576886119711714e+00 7.352398681145859123e-04
4.587056383772426670e+03 1.713770767278273377e+00 7.777267138101242499e-04
4.591643440156200086e+03 1.702092425741035919e+00 8.192073330705407306e-04
4.596235083596357981e+03 1.688336366222295659e+00 6.916352645899033870e-04
4.600831318679955984e+03 1.672625045640287578e+00 5.069964430650626208e-04
4.605432149998637215e+03 1.655356941455247588e+00 4.350812934427586215e-04
4.610037582148637739e+03 1.636709303274630933e+00 4.369694884766163034e-04
4.614647619730787483e+03 1.616836901814406646e+00 5.010403478630893678e-04
4.619262267350520233e+03 1.595039467634147723e+00 4.113386465974528511e-04
4.623881529617872729e+03 1.571138048123955411e+00 4.114445286876794233e-04
4.628505411147491941e+03 1.545121028225265203e+00 4.480547422277152462e-04
4.633133916558640522e+03 1.517252675215135849e+00 4.509179910802509138e-04
4.637767050475200449e+03 1.487284997709661605e+00 4.164478144313868793e-04
4.642404817525677572e+03 1.455155127617227206e+00 3.547539016314508933e-04
4.647047222343205249e+03 1.420735094759764783e+00 2.944484333307687256e-04
4.651694269565549803e+03 1.384256855008894949e+00 2.927160103389679570e-04
4.656345963835116891e+03 1.346071387446063250e+00 2.905496986347628065e-04
4.661002309798953320e+03 1.306386601525137747e+00 4.182911992154225841e-04
4.665663312108753416e+03 1.265815116677429630e+00 5.721470834105282224e-04
4.670328975420864481e+03 1.225243257979406364e+00 7.322585363674516011e-04
4.674999304396286789e+03 1.185293731422968788e+00 8.282403135790711822e-04
4.679674303700684504e+03 1.146647234049857245e+00 6.977841330252294080e-04
4.684353978004386590e+03 1.110295950423766387e+00 6.425424334975547627e-04
4.689038331982392265e+03 1.076639678734595984e+00 5.146112835059686976e-04
4.693727370314376458e+03 1.046316404492256824e+00 3.710262666836215781e-04
4.698421097684692540e+03 1.019537689185549656e+00 2.864971560086486315e-04
4.703119518782378691e+03 9.967816896420631512e-01 3.044109688790501986e-04
4.707822638301162442e+03 9.773667733132690438e-01 3.079768318349945561e-04
4.712530460939465229e+03 9.614948492113510881e-01 3.865630132961891063e-04
4.717242991400406027e+03 9.487209740741444630e-01 5.785233255447197118e-04
4.721960234391808626e+03 9.383734296468356773e-01 7.758927146541155393e-04
4.726682194626201635e+03 9.296224525154890284e-01 8.126424563007765989e-04
4.731408876820829391e+03 9.218942365126988614e-01 7.901886402748735296e-04
4.736140285697651962e+03 9.145177478819928041e-01 7.554646291708987191e-04
4.740876425983350600e+03 9.073185022158846147e-01 6.304983786433421104e-04
4.745617302409335934e+03 8.995506977429983397e-01 4.266376742856811113e-04
4.750362919711747054e+03 8.910125110523566816e-01 4.893718893680342429e-04
4.755113282631459697e+03 8.819131498484860110e-01 6.568303525126356840e-04
4.759868395914093526e+03 8.725351070171579737e-01 8.131356309175547317e-04
4.764628264310008490e+03 8.634614231162780484e-01 8.532842671173649545e-04
4.769392892574320285e+03 8.553515168143495107e-01 8.479480146112542164e-04
4.774162285466896719e+03 8.488472358852087174e-01 7.002592396880733764e-04
4.778936447752364984e+03 8.445787834263740468e-01 5.244934391671133818e-04
4.783715384200118933e+03 8.432157205741446226e-01 4.181927651439096673e-04
4.788499099584319993e+03 8.449948057207105068e-01 3.381520569573137408e-04
4.793287598683906253e+03 8.499162111611090475e-01 3.290381128634559159e-04
4.798080886282591564e+03 8.577747548658737342e-01 3.529577218183081841e-04
4.802878967168876443e+03 8.686123901452614815e-01 4.918928947139118582e-04
4.807681846136046261e+03 8.819105100292506938e-01 5.548153999868282249e-04
4.812489527982183972e+03 8.969935269433870761e-01 5.351830733321171277e-04
4.817302017510168298e+03 9.130155332495555331e-01 5.931373887478976793e-04
4.822119319527679181e+03 9.293158038558413381e-01 6.267093685400319672e-04
4.826941438847208701e+03 9.451569323995726579e-01 6.172999514346455595e-04
