# starting wavelength: 3115.800
# ending wavelength: 9884.440
# wav flux eflux
3.118747188547145925e+03 3.758072545603741155e-01 2.518722730899338163e-03
3.121865935735694165e+03 3.772272551690552533e-01 1.796483161005501010e-03
3.124987801671431043e+03 3.787675275116344498e-01 1.359842355600946904e-03
3.128112789473103476e+03 3.807146625003577922e-01 1.043272359796352470e-03
3.131240902262577492e+03 3.828906601903690476e-01 8.231007905670668923e-04
3.134372143164840963e+03 3.851608111223594477e-01 6.453813600328048858e-04
3.137506515308006783e+03 3.874668385190181974e-01 5.526082899301979108e-04
3.140644021823316052e+03 3.900089938855701432e-01 4.964681581061064584e-04
3.143784665845140353e+03 3.928309668078890371e-01 4.122043173351329424e-04
3.146928450510986750e+03 3.957688032263536604e-01 3.483084554678444566e-04
3.150075378961498700e+03 3.987630924976953151e-01 3.290695518913604417e-04
3.153225454340461056e+03 4.018130017494598860e-01 2.975612526515792429e-04
3.156378679794802792e+03 4.049560272602645283e-01 2.670625426799701197e-04
3.159535058474598372e+03 4.081398783668219177e-01 2.457016721264802567e-04
3.162694593533074112e+03 4.115077538893541775e-01 2.480123759194554863e-04
3.165857288126608182e+03 4.147470067243004821e-01 2.384178014794888873e-04
3.169023145414736064e+03 4.180492310777765841e-01 2.318043318414231876e-04
3.172192168560151458e+03 4.213421637910875206e-01 2.230395835861804555e-04
3.175364360728712654e+03 4.246555520717297250e-01 2.227562583185365439e-04
3.178539725089442527e+03 4.279469085448480703e-01 2.385178511628180636e-04
3.181718264814533086e+03 4.311699474779687735e-01 2.789424613003241250e-04
3.184899983079348658e+03 4.342645403456337205e-01 3.253687945487005210e-04
3.188084883062429071e+03 4.372056449230137809e-01 3.735486238080861008e-04
3.191272967945492383e+03 4.399079312372917161e-01 3.908085774793333168e-04
3.194464240913438971e+03 4.423532432939986658e-01 3.734213267738446113e-04
3.197658705154353811e+03 4.444558230008550659e-01 3.387873236965690681e-04
3.200856363859509202e+03 4.462799762387638092e-01 3.284734800912957357e-04
3.204057220223369768e+03 4.476365671860989548e-01 3.507869953180303723e-04
3.207261277443593826e+03 4.488006200911841548e-01 3.516640718232093396e-04
3.210468538721038840e+03 4.497567138608153381e-01 3.438147882393607305e-04
3.213679007259760965e+03 4.503696306460442389e-01 3.433852116097907046e-04
3.216892686267021418e+03 4.506887586875313323e-01 3.433939664787548254e-04
3.220109578953289656e+03 4.507324869441172721e-01 3.443181038513707867e-04
3.223329688532243836e+03 4.504799167237769075e-01 3.465815016601601841e-04
3.226553018220777176e+03 4.499473009747547714e-01 3.537152682023474810e-04
3.229779571238999324e+03 4.491659442647480960e-01 3.581069237614988433e-04
3.233009350810239084e+03 4.483036319564812078e-01 3.492736221784421640e-04
3.236242360161050783e+03 4.473100599641994801e-01 3.429483593642323113e-04
3.239478602521212906e+03 4.462981487200608499e-01 3.420226262536382343e-04
3.242718081123734919e+03 4.452469339712056828e-01 3.390515495917022703e-04
3.245960799204859995e+03 4.441679710369009215e-01 3.132913377185474017e-04
3.249206760004065927e+03 4.432901584224017144e-01 2.965406167644224424e-04
3.252455966764071036e+03 4.426342017565305098e-01 2.959752533741429265e-04
3.255708422730835991e+03 4.422913619756257408e-01 2.950764687370489229e-04
3.258964131153567905e+03 4.421621224788821469e-01 3.274269812914706260e-04
3.262223095284722604e+03 4.422979419183205030e-01 3.752925577690156508e-04
3.265485318380008266e+03 4.429142573228610491e-01 4.015402489395816571e-04
3.268750803698389518e+03 4.438722508322606730e-01 4.172748487331222789e-04
3.272019554502088795e+03 4.454771882869182908e-01 4.291487874274821780e-04
3.275291574056592253e+03 4.477131296474189948e-01 4.112178218156787310e-04
3.278566865630649772e+03 4.506696751487915820e-01 4.005103240001710654e-04
3.281845432496281319e+03 4.541515082719165819e-01 3.185238732458305988e-04
3.285127277928778767e+03 4.584526435640073894e-01 3.124094879043278167e-04
3.288412405206708627e+03 4.635087279734517729e-01 3.273188532463275412e-04
3.291700817611916591e+03 4.693023098159546658e-01 3.350593751588629783e-04
3.294992518429529355e+03 4.759464960220550767e-01 3.415003645696291579e-04
3.298287510947960072e+03 4.833386028178986438e-01 3.226033202514941344e-04
3.301585798458909267e+03 4.914137001495289536e-01 2.769827793973148608e-04
3.304887384257369376e+03 5.001092410166336766e-01 2.594046617633401154e-04
3.308192271641627485e+03 5.094975232946443722e-01 2.608797501287600995e-04
3.311500463913270323e+03 5.194260460540027768e-01 2.615806572771957501e-04
3.314811964377184722e+03 5.300373223784476950e-01 2.680829552328243171e-04
3.318126776341563072e+03 5.411959092740874500e-01 2.799478637578319234e-04
3.321444903117905596e+03 5.530116726246308012e-01 2.837447854283925712e-04
3.324766348021024896e+03 5.652813465213767374e-01 2.975808159742091875e-04
3.328091114369046863e+03 5.779201377425080555e-01 3.119409684149717201e-04
3.331419205483417045e+03 5.908612855886118398e-01 3.155415821618943952e-04
3.334750624688901553e+03 6.041434508645348034e-01 3.334195372190042000e-04
3.338085375313591612e+03 6.175142369437512935e-01 3.376877187757965667e-04
3.341423460688906289e+03 6.310613685196598821e-01 3.372442005929614023e-04
3.344764884149596128e+03 6.448191716694817721e-01 3.244343055580909459e-04
3.348109649033746791e+03 6.586072034621466287e-01 3.249069155191867974e-04
3.351457758682781787e+03 6.724343828591974326e-01 3.436267935235264351e-04
3.354809216441465651e+03 6.863658014960702936e-01 3.628349921102871824e-04
3.358164025657908041e+03 7.003589118991727647e-01 4.044172133747773339e-04
3.361522189683567376e+03 7.143281200602135117e-01 4.707640888465427879e-04
3.364883711873251741e+03 7.283635679596356383e-01 5.023375351930214634e-04
3.368248595585126168e+03 7.423177354376867543e-01 5.072792133208386609e-04
3.371616844180712633e+03 7.563736506363876178e-01 4.670493514777201180e-04
3.374988461024894150e+03 7.705654995533378626e-01 4.314847540838087333e-04
3.378363449485920228e+03 7.847467917084895994e-01 3.526724246926749083e-04
3.381741812935407324e+03 7.989913423970155248e-01 3.091926359075428403e-04
3.385123554748343849e+03 8.133901209519749376e-01 3.939441998479738033e-04
3.388508678303093347e+03 8.277480190808433891e-01 4.756129703715272035e-04
3.391897186981397681e+03 8.419847083111788866e-01 5.508492076533793658e-04
3.395289084168380214e+03 8.559992030215459735e-01 5.676388328398750561e-04
3.398684373252549449e+03 8.697119213852188002e-01 5.659699902910376914e-04
3.402083057625803121e+03 8.832107641889478389e-01 4.168387716117299101e-04
3.405485140683430018e+03 8.958963786657530015e-01 3.384897309305220318e-04
3.408890625824114522e+03 9.077609686509735543e-01 3.185765621368779471e-04
3.412299516449939802e+03 9.189684723802021837e-01 3.086296688940669687e-04
3.415711815966390986e+03 9.294927083354371788e-01 2.951719096501792886e-04
3.419127527782358356e+03 9.392373353679202008e-01 2.875580443670035474e-04
3.422546655310141887e+03 9.480683386534329848e-01 3.017518528648644566e-04
3.425969201965453522e+03 9.560995437784554074e-01 3.101559346784425004e-04
3.429395171167419903e+03 9.633328129570848386e-01 3.072957819401706718e-04
3.432824566338588284e+03 9.697281332775874452e-01 3.060738332055169190e-04
3.436257390904928343e+03 9.754173821312832615e-01 2.845674259738059804e-04
3.439693648295834464e+03 9.805721319354141485e-01 2.612426513344561678e-04
3.443133341944131189e+03 9.851556815754485275e-01 2.310235769270936503e-04
3.446576475286076402e+03 9.892171183117266509e-01 2.268028173612761703e-04
3.450023051761363604e+03 9.929327850261133737e-01 2.320331509464963293e-04
3.453473074813126004e+03 9.963398392400999448e-01 2.312406139081915504e-04
3.456926547887940615e+03 9.994023298956621337e-01 2.380224042413756492e-04
3.460383474435829612e+03 1.002331486851363973e+00 2.362088497294416618e-04
3.463843857910266706e+03 1.004999629160754582e+00 2.358642576275617978e-04
3.467307701768178049e+03 1.007526593962768890e+00 2.436379497460527163e-04
3.470775009469947236e+03 1.009976971440837090e+00 2.467090013721218297e-04
3.474245784479418489e+03 1.012438503427088632e+00 2.690949663110765071e-04
3.477720030263898934e+03 1.014932437867760440e+00 2.774096261392328014e-04
3.481197750294164052e+03 1.017477194926883932e+00 2.779270818402090589e-04
3.484678948044459503e+03 1.020206129592023281e+00 2.487555057510012178e-04
3.488163626992504760e+03 1.022993614910932436e+00 2.747556304660558348e-04
3.491651790619498570e+03 1.026079593357583919e+00 3.076137671919927522e-04
3.495143442410119405e+03 1.029439283240299874e+00 3.775933303628503722e-04
3.498638585852530468e+03 1.033214607942316121e+00 4.746137187534983735e-04
3.502137224438384237e+03 1.037446362374732312e+00 5.184054970812113647e-04
3.505639361662823831e+03 1.042485294447008881e+00 5.000693527944951276e-04
3.509145001024487556e+03 1.048173409957839475e+00 4.030284011202429689e-04
3.512654146025513455e+03 1.054914934619693767e+00 3.670889173830488728e-04
3.516166800171540217e+03 1.062494030898661679e+00 3.413595793017562053e-04
3.519682966971712631e+03 1.071016737176372580e+00 3.322024512230101027e-04
3.523202649938685681e+03 1.080581620970912260e+00 2.857276752316452798e-04
3.526725852588625457e+03 1.091357831695654701e+00 2.538495808986995870e-04
3.530252578441215064e+03 1.103146077353822196e+00 2.386799809673859313e-04
3.533782831019657806e+03 1.115940062435838875e+00 2.989860402003247314e-04
3.537316613850678550e+03 1.129659149603520651e+00 3.535410462467248422e-04
3.540853930464530094e+03 1.143963904103570073e+00 4.669670579958305127e-04
3.544394784394995895e+03 1.158684474417382093e+00 5.706460646472151640e-04
3.547939179179392340e+03 1.173456377152714225e+00 6.347237320257866815e-04
3.551487118358572843e+03 1.187769584503247877e+00 6.607303438019328842e-04
3.555038605476932389e+03 1.201520391000910681e+00 6.423574373608151832e-04
3.558593644082410719e+03 1.214207638930958399e+00 6.101043958319156239e-04
3.562152237726494150e+03 1.225622896345434976e+00 5.342967606030130491e-04
3.565714389964221937e+03 1.235526884341707765e+00 4.431600399773338405e-04
3.569280104354187188e+03 1.243533046754316640e+00 4.448443446857331470e-04
3.572849384458542772e+03 1.249611428711518091e+00 5.049335051576446087e-04
3.576422233843002232e+03 1.253655874632495060e+00 5.772436461985839705e-04
3.579998656076846601e+03 1.255664218799698695e+00 5.889873004818587049e-04
3.583578654732924406e+03 1.255503208655060154e+00 5.611316284913162597e-04
3.587162233387658489e+03 1.253049724692812505e+00 5.185374481752796699e-04
3.590749395621047370e+03 1.248343549934973540e+00 4.268101775712677634e-04
3.594340145016669794e+03 1.241507437253009272e+00 4.103052265756331699e-04
3.597934485161687462e+03 1.232687476047505060e+00 6.734267732987992078e-04
3.601532419646850485e+03 1.221964600391625577e+00 7.840506306722944477e-04
3.605133952066498296e+03 1.208539482843021817e+00 7.890523298761193067e-04
3.608739086018566013e+03 1.192445252872345929e+00 7.280568756954657224e-04
3.612347825104585809e+03 1.173875988429075035e+00 6.252827604803752951e-04
3.615960172929691907e+03 1.152685494640883768e+00 5.048237854569173361e-04
3.619576133102622407e+03 1.128895777159512503e+00 6.027146246885089998e-04
3.623195709235726554e+03 1.102979927808486860e+00 7.879232968941425694e-04
3.626818904944963379e+03 1.075156941673454769e+00 1.000202566633037532e-03
3.630445723849909427e+03 1.046199776666418613e+00 1.088752161308611122e-03
3.634076169573760581e+03 1.016518130638188744e+00 1.136423570734850560e-03
3.637710245743335690e+03 9.868766395790211643e-01 1.041529848171225984e-03
3.641347955989080219e+03 9.577631456285075062e-01 8.589805866033575418e-04
3.644989303945070333e+03 9.300443816410343123e-01 6.704978943652900938e-04
3.648634293249016537e+03 9.041817871100077397e-01 4.747111058641789705e-04
3.652282927542266862e+03 8.807885780333689629e-01 3.453134227835844331e-04
3.655935210469810499e+03 8.599676972523501162e-01 3.496276523247732779e-04
3.659591145680281443e+03 8.420683509234053732e-01 3.593347763223406666e-04
3.663250736825963031e+03 8.275570749540044346e-01 3.505991847330905279e-04
3.666913987562790226e+03 8.164254594599531512e-01 3.813654350248661109e-04
3.670580901550354156e+03 8.084876398393286978e-01 5.098909564526648295e-04
3.674251482451905758e+03 8.034936274698130099e-01 7.461974962471841716e-04
3.677925733934358959e+03 8.011669916390860013e-01 9.737245644139897512e-04
3.681603659668294313e+03 8.011136115537570435e-01 1.105339922626248292e-03
3.685285263327964003e+03 8.024204629837443647e-01 1.188184376246520383e-03
3.688970548591293209e+03 8.045206732961804885e-01 1.172720013811106264e-03
3.692659519139885560e+03 8.067635818974775441e-01 1.050245233136317324e-03
3.696352178659026777e+03 8.087310874482617207e-01 7.536568699480256268e-04
3.700048530837686940e+03 8.095622549983785277e-01 5.453332218740587897e-04
3.703748579368525952e+03 8.089634989483169836e-01 6.237688187132709198e-04
3.707452327947895355e+03 8.070503257960123245e-01 7.355852822423922981e-04
3.711159780275844696e+03 8.037008861924584968e-01 7.694296757487028389e-04
3.714870940056121526e+03 7.993169665009375313e-01 7.106674772341873940e-04
3.718585810996179134e+03 7.939214613517169283e-01 5.422460806911248146e-04
3.722304396807176545e+03 7.878990116359881890e-01 4.136135367126303518e-04
3.726026701203984885e+03 7.815017304612045246e-01 2.893428514229917300e-04
3.729752727905190113e+03 7.753710824609659769e-01 2.872918506268046820e-04
3.733482480633096657e+03 7.695293238429806726e-01 3.897064953801379237e-04
3.737215963113731050e+03 7.642977382979985190e-01 5.141272398893593186e-04
3.740953179076846027e+03 7.603978047223969305e-01 5.688503309743038212e-04
3.744694132255923705e+03 7.581403858802121531e-01 5.687648645454391767e-04
3.748438826388181042e+03 7.578684651441853770e-01 5.536643245070187397e-04
3.752187265214570289e+03 7.599061079825912834e-01 5.107644033138384124e-04
3.755939452479786269e+03 7.645867649546310707e-01 4.352658393431236509e-04
3.759695391932267285e+03 7.724097156518716645e-01 4.037038271310969522e-04
3.763455087324201031e+03 7.834361736953823208e-01 4.587048430824722071e-04
3.767218542411526414e+03 7.976954202466050026e-01 5.158573164253216995e-04
3.770985760953939007e+03 8.151398318484910366e-01 5.131595889221104165e-04
3.774756746714894234e+03 8.355231269903335978e-01 3.396577431117887825e-04
3.778531503461610555e+03 8.584374106717395092e-01 2.404615914196911615e-04
3.782310034965073100e+03 8.835029464247466935e-01 2.657558107792375906e-04
3.786092345000039586e+03 9.109712095777957597e-01 2.808230259475494252e-04
3.789878437345040766e+03 9.404648401863834328e-01 2.881889912071713944e-04
3.793668315782387253e+03 9.719008331943599366e-01 2.992410432301618041e-04
3.797461984098170888e+03 1.004934087383953178e+00 3.061054899811475991e-04
3.801259446082270188e+03 1.039267677798157319e+00 3.107678587311991469e-04
3.805060705528353537e+03 1.074821057299905958e+00 2.926276118940947485e-04
3.808865766233883278e+03 1.111017199080164941e+00 2.951132490251876287e-04
3.812674632000118436e+03 1.147922764965843001e+00 2.904096755476813160e-04
3.816487306632119726e+03 1.185508307752545010e+00 2.821756052973468736e-04
3.820303793938753188e+03 1.223451417577473110e+00 3.150812884982681227e-04
3.824124097732693372e+03 1.261508013717739018e+00 5.075805242689023682e-04
3.827948221830427428e+03 1.299852022785841443e+00 5.042250957052985764e-04
3.831776170052258749e+03 1.338285124537308413e+00 3.999171515697421764e-04
3.835607946222312421e+03 1.376954286599698429e+00 3.641674910743710391e-04
3.839443554168536139e+03 1.415422177445507801e+00 3.606151630636978008e-04
3.843282997722705659e+03 1.453561296479776388e+00 4.516259155409774900e-04
3.847126280720429804e+03 1.491037298539652944e+00 5.863831470510552516e-04
3.850973407001151372e+03 1.527157618171133047e+00 6.398297122877778754e-04
3.854824380408153957e+03 1.561440885404194123e+00 6.383242601705563322e-04
3.858679204788563311e+03 1.592962537311866766e+00 5.844705395709407902e-04
3.862537883993353262e+03 1.622051577456828486e+00 4.736302819350203639e-04
3.866400421877347981e+03 1.648061224461885077e+00 5.584980489386791097e-04
3.870266822299226533e+03 1.671187513713957795e+00 5.825527466780590791e-04
3.874137089121526969e+03 1.691277381059319573e+00 5.776659872491324808e-04
3.878011226210649966e+03 1.708560525021991516e+00 5.275225909451370038e-04
3.881889237436861549e+03 1.723065028644253704e+00 4.007915578600577955e-04
3.885771126674299921e+03 1.735224436175653251e+00 3.701304189225614982e-04
3.889656897800975457e+03 1.745060948895890807e+00 3.697644950666062187e-04
3.893546554698777527e+03 1.752447888633090978e+00 4.206359687234533830e-04
3.897440101253477678e+03 1.757646379486086374e+00 4.174699286085111144e-04
3.901337541354732366e+03 1.761135744438740547e+00 4.296986246305904743e-04
3.905238878896088409e+03 1.762588394282289750e+00 4.841953752502963122e-04
3.909144117774985716e+03 1.762022757728983979e+00 5.508911843857181414e-04
3.913053261892762293e+03 1.759157094563392532e+00 6.402620012054057331e-04
3.916966315154656058e+03 1.754261574137688351e+00 7.168018200842701153e-04
3.920883281469812118e+03 1.747328481045692161e+00 6.703435241015036263e-04
3.924804164751283224e+03 1.738435211717179740e+00 6.164732723624250172e-04
3.928728968916035683e+03 1.727976994040426373e+00 7.330548704140205010e-04
3.932657697884953450e+03 1.715924102265160345e+00 1.147101657025475672e-03
3.936590355582839493e+03 1.703643586171655233e+00 1.331089016356070288e-03
3.940526945938423523e+03 1.691571089072598788e+00 1.198252801158407321e-03
3.944467472884363360e+03 1.680717745848054667e+00 9.891807614146542939e-04
3.948411940357249023e+03 1.671236598476293134e+00 7.274721558927152443e-04
3.952360352297607733e+03 1.663646461489735273e+00 6.424512479430111124e-04
3.956312712649906643e+03 1.658083234175799170e+00 7.238228701576355584e-04
3.960269025362557841e+03 1.654436472763188615e+00 7.603997091704498305e-04
3.964229294387921527e+03 1.652026140418379141e+00 6.597268315782725155e-04
3.968193523682310570e+03 1.650134580702360187e+00 6.187930391682830607e-04
3.972161717205994591e+03 1.648333687046559914e+00 6.636856464394096100e-04
3.976133878923201792e+03 1.645863722100029847e+00 7.214208948851877226e-04
3.980110012802126221e+03 1.641797577872194047e+00 8.036333923008159592e-04
3.984090122814929600e+03 1.635547933336692461e+00 8.616279596485321981e-04
3.988074212937745870e+03 1.626650972885206325e+00 8.206431367885918702e-04
3.992062287150684824e+03 1.614932310707768215e+00 7.018758903793811434e-04
3.996054349437837118e+03 1.600380610577128548e+00 7.292772549278337974e-04
4.000050403787276082e+03 1.583228811327051400e+00 9.300027335035677576e-04
4.004050454191064546e+03 1.563866073923869227e+00 1.214976512057378043e-03
4.008054504645257111e+03 1.542914515409128162e+00 1.203765034525452462e-03
4.012062559149903791e+03 1.521659677437994240e+00 1.060808407437848540e-03
4.016074621709055009e+03 1.501132861615677161e+00 7.630139519817440803e-04
4.020090696330765240e+03 1.482278229650817680e+00 5.173256160567785188e-04
4.024110787027097558e+03 1.465496921048134782e+00 3.348102163636914501e-04
4.028134897814125907e+03 1.451325846091189309e+00 3.039511084493486267e-04
4.032163032711941469e+03 1.440119797560401649e+00 2.930420962321799707e-04
4.036195195744654484e+03 1.432019334540191258e+00 2.217615482856820266e-04
4.040231390940400615e+03 1.426798999171348115e+00 1.998767612379971799e-04
4.044271622331342314e+03 1.424455593068727044e+00 2.357374290691274191e-04
4.048315893953675186e+03 1.424812361785212422e+00 2.991994301078736802e-04
4.052364209847629809e+03 1.427510759739994084e+00 4.055535505009773343e-04
4.056416574057479011e+03 1.432140542540885964e+00 5.293084100604321515e-04
4.060472990631537868e+03 1.438267656178917830e+00 6.295070740426173764e-04
