# starting wavelength: 3464.040
# ending wavelength: 7397.140
# wav flux eflux
3.467307701768178049e+03 2.656652184386995574e-01 1.578357830034675391e-03
3.470775009469947236e+03 2.660959926571481726e-01 1.834678580575251246e-03
3.474245784479418489e+03 2.665973965069125540e-01 1.341300479209613745e-03
3.477720030263898934e+03 2.669751638438477848e-01 1.034803678909880075e-03
3.481197750294164052e+03 2.672246269452626666e-01 8.892213022900814648e-04
3.484678948044459503e+03 2.671970367936676305e-01 7.914273949824328662e-04
3.488163626992504760e+03 2.668147512793442866e-01 6.787962026735609418e-04
3.491651790619498570e+03 2.661386323503288631e-01 5.599821710104278165e-04
3.495143442410119405e+03 2.653193844241863442e-01 4.565371273382395315e-04
3.498638585852530468e+03 2.645143026277712028e-01 4.051264245882927034e-04
3.502137224438384237e+03 2.637660609394995581e-01 3.513706208806335733e-04
3.505639361662823831e+03 2.630965088080337022e-01 3.110196221957955889e-04
3.509145001024487556e+03 2.626266663687896741e-01 2.913696304770041902e-04
3.512654146025513455e+03 2.623079883620120789e-01 2.722143491609505385e-04
3.516166800171540217e+03 2.622200338311435619e-01 2.690809787358641562e-04
3.519682966971712631e+03 2.622512966281354552e-01 2.558896419491263731e-04
3.523202649938685681e+03 2.625093855979276358e-01 2.517621538138354676e-04
3.526725852588625457e+03 2.629537468089793162e-01 2.512187765396899108e-04
3.530252578441215064e+03 2.635971732962462122e-01 2.710981028701904463e-04
3.533782831019657806e+03 2.643740364472647042e-01 2.859673565183616889e-04
3.537316613850678550e+03 2.652228500692844770e-01 2.910982742692228356e-04
3.540853930464530094e+03 2.663122731622241668e-01 2.947137763773067859e-04
3.544394784394995895e+03 2.675343011289667006e-01 2.909110032636052405e-04
3.547939179179392340e+03 2.689023693564533413e-01 3.049271985052953477e-04
3.551487118358572843e+03 2.702723513346494411e-01 2.855017745680011178e-04
3.555038605476932389e+03 2.718089997010216807e-01 2.950184297723417110e-04
3.558593644082410719e+03 2.730711729670112220e-01 3.130885344648699797e-04
3.562152237726494150e+03 2.741702526118283689e-01 3.289149755162430635e-04
3.565714389964221937e+03 2.752259892982409362e-01 4.283974625801612534e-04
3.569280104354187188e+03 2.759794341648617033e-01 4.945263083582273136e-04
3.572849384458542772e+03 2.763687448716234951e-01 5.139726961927806349e-04
3.576422233843002232e+03 2.763145547887185804e-01 4.987415310278067162e-04
3.579998656076846601e+03 2.761187072772373630e-01 5.071515214049275447e-04
3.583578654732924406e+03 2.756040135099335209e-01 4.801860197675208585e-04
3.587162233387658489e+03 2.747699428588656900e-01 4.366851170418330100e-04
3.590749395621047370e+03 2.738533106917654392e-01 3.663246475318619093e-04
3.594340145016669794e+03 2.723855597224343339e-01 3.960338109522692661e-04
3.597934485161687462e+03 2.709046615033484096e-01 4.473487797555656992e-04
3.601532419646850485e+03 2.692155828959328367e-01 6.641287352672438403e-04
3.605133952066498296e+03 2.677566997832930284e-01 7.768784611259893329e-04
3.608739086018566013e+03 2.664868434747624248e-01 9.892562898912511844e-04
3.612347825104585809e+03 2.657742110597549057e-01 1.224723048677430403e-03
3.615960172929691907e+03 2.667305174547611735e-01 1.181560322617788723e-03
3.619576133102622407e+03 2.681707815307982634e-01 1.458300982421713039e-03
3.623195709235726554e+03 2.710218650552307373e-01 1.630412629965812292e-03
3.626818904944963379e+03 2.758282432454940425e-01 1.701638697695138534e-03
3.630445723849909427e+03 2.819349509516768659e-01 1.567350663855202487e-03
3.634076169573760581e+03 2.915618660015812935e-01 1.429203883950386613e-03
3.637710245743335690e+03 3.039296256641538796e-01 1.181505938388118307e-03
3.641347955989080219e+03 3.192828588921211574e-01 9.903848470488802250e-04
3.644989303945070333e+03 3.374724802476213870e-01 9.450614472102880853e-04
3.648634293249016537e+03 3.584762144434409659e-01 1.201100744129981676e-03
3.652282927542266862e+03 3.819037588415110651e-01 1.674610873526482472e-03
3.655935210469810499e+03 4.060946321559720240e-01 1.727313717521869246e-03
3.659591145680281443e+03 4.325819140628293091e-01 2.100625322811099094e-03
3.663250736825963031e+03 4.598347593243476972e-01 2.431390124049287622e-03
3.666913987562790226e+03 4.868836691182806820e-01 2.689353217146039660e-03
3.670580901550354156e+03 5.142237918372267735e-01 2.447092997171715096e-03
3.674251482451905758e+03 5.384910121696792062e-01 2.344316312057924141e-03
3.677925733934358959e+03 5.599993845720933061e-01 2.002885453322729437e-03
3.681603659668294313e+03 5.774495113598142604e-01 1.586092600404557986e-03
3.685285263327964003e+03 5.903750791987336655e-01 1.189862561115870862e-03
3.688970548591293209e+03 5.985293333927569348e-01 8.181979107961803374e-04
3.692659519139885560e+03 6.012397852808484267e-01 5.709604825316675313e-04
3.696352178659026777e+03 5.985511934791525324e-01 4.808749413197931674e-04
3.700048530837686940e+03 5.901850226514738784e-01 5.708167023076073923e-04
3.703748579368525952e+03 5.763169574005361229e-01 7.158134644025734026e-04
3.707452327947895355e+03 5.570263796863532679e-01 8.930257432849435587e-04
3.711159780275844696e+03 5.337336961194290019e-01 1.365414376599605141e-03
3.714870940056121526e+03 5.064756257953615393e-01 1.838874070314331288e-03
3.718585810996179134e+03 4.765009813411452688e-01 2.249810389818826615e-03
3.722304396807176545e+03 4.448219740305746628e-01 2.486165297591286065e-03
3.726026701203984885e+03 4.126771102270883063e-01 2.528122298187563018e-03
3.729752727905190113e+03 3.812012062568764237e-01 2.376977078817413269e-03
3.733482480633096657e+03 3.512227775527671514e-01 2.023720928637968292e-03
3.737215963113731050e+03 3.240920118091052959e-01 1.754548903976095456e-03
3.740953179076846027e+03 2.997838235083704617e-01 1.423154155905157099e-03
3.744694132255923705e+03 2.792736015562417573e-01 1.263566368220457418e-03
3.748438826388181042e+03 2.628796940424980577e-01 1.489082182226694534e-03
3.752187265214570289e+03 2.511971315085206324e-01 1.718473099636910143e-03
3.755939452479786269e+03 2.433449536118323375e-01 1.893155855389015143e-03
3.759695391932267285e+03 2.393519427437234559e-01 1.902507327544016545e-03
3.763455087324201031e+03 2.383221916688962883e-01 1.726339610342319348e-03
3.767218542411526414e+03 2.394705286590992910e-01 1.481086290740692753e-03
3.770985760953939007e+03 2.425017391398316124e-01 8.926914208885212282e-04
3.774756746714894234e+03 2.465008686598735288e-01 3.881021496148612227e-04
3.778531503461610555e+03 2.508541419584077170e-01 3.310481726436718388e-04
3.782310034965073100e+03 2.556240003112902892e-01 3.641227625011572472e-04
3.786092345000039586e+03 2.605952096592196177e-01 3.883397335097206514e-04
3.789878437345040766e+03 2.660185074443565667e-01 3.027618271300906261e-04
3.793668315782387253e+03 2.719529117539987162e-01 3.030103057078985989e-04
3.797461984098170888e+03 2.782753955147765357e-01 3.114086280351069901e-04
3.801259446082270188e+03 2.848546358361287445e-01 3.185068960997326413e-04
3.805060705528353537e+03 2.917707905886078312e-01 3.243651114449462233e-04
3.808865766233883278e+03 2.990472918879628628e-01 3.474218762164130040e-04
3.812674632000118436e+03 3.069542369304369411e-01 4.045511098807313142e-04
3.816487306632119726e+03 3.160232943988492416e-01 4.283295558489300602e-04
3.820303793938753188e+03 3.261285974751342853e-01 4.877191324694924173e-04
3.824124097732693372e+03 3.375572983673104099e-01 5.577474963989017317e-04
3.827948221830427428e+03 3.507678505650992928e-01 6.596845752578609943e-04
3.831776170052258749e+03 3.662215511208307683e-01 7.542680110252835465e-04
3.835607946222312421e+03 3.843463581781098037e-01 5.799335608867925559e-04
3.839443554168536139e+03 4.055297190215750303e-01 4.353257863451401224e-04
3.843282997722705659e+03 4.306302670179336656e-01 3.387071604807166550e-04
3.847126280720429804e+03 4.597048808815488719e-01 3.534577525321663566e-04
3.850973407001151372e+03 4.923933300418056325e-01 3.644668351367284114e-04
3.854824380408153957e+03 5.289590631935465748e-01 3.880716623116749913e-04
3.858679204788563311e+03 5.689916251777230594e-01 4.220520059062696856e-04
3.862537883993353262e+03 6.122430639916298656e-01 5.211624066209891940e-04
3.866400421877347981e+03 6.583810709398006944e-01 5.025204176021653112e-04
3.870266822299226533e+03 7.072605425180242822e-01 5.686968194263409540e-04
3.874137089121526969e+03 7.578657802791139986e-01 9.603966736474888908e-04
3.878011226210649966e+03 8.091582219129109799e-01 1.501037533811010790e-03
3.881889237436861549e+03 8.595924410740364285e-01 1.774707211177350931e-03
3.885771126674299921e+03 9.078180348339233152e-01 1.810184716243624795e-03
3.889656897800975457e+03 9.521488759820232461e-01 1.633796181956382546e-03
3.893546554698777527e+03 9.919196528346474473e-01 1.379508148464477901e-03
3.897440101253477678e+03 1.026493333976759015e+00 1.181886763691829224e-03
3.901337541354732366e+03 1.055249312479923374e+00 1.296332357428945032e-03
3.905238878896088409e+03 1.078176381133953976e+00 1.454094943651946040e-03
3.909144117774985716e+03 1.095838261533134128e+00 1.368845206384915279e-03
3.913053261892762293e+03 1.108780712871055174e+00 1.178774659942448400e-03
3.916966315154656058e+03 1.117526004065488410e+00 7.202442118902766845e-04
3.920883281469812118e+03 1.123560533193213029e+00 5.889024024569116354e-04
3.924804164751283224e+03 1.127872641429700895e+00 5.878541252893584911e-04
3.928728968916035683e+03 1.130540802089731178e+00 8.550433567737437870e-04
3.932657697884953450e+03 1.132760891150919491e+00 1.459205373876948592e-03
3.936590355582839493e+03 1.135682832445942925e+00 1.706197871561116906e-03
3.940526945938423523e+03 1.140437417257522235e+00 1.594570352445300173e-03
3.944467472884363360e+03 1.148147650398539277e+00 1.257128966315176032e-03
3.948411940357249023e+03 1.159799839660684340e+00 1.181122419802384639e-03
3.952360352297607733e+03 1.175560613249374109e+00 1.466252939881538837e-03
3.956312712649906643e+03 1.194956137663382822e+00 1.536533205122761307e-03
3.960269025362557841e+03 1.218094925075621227e+00 1.417486158231473200e-03
3.964229294387921527e+03 1.244346405829007685e+00 1.317336569384077762e-03
3.968193523682310570e+03 1.273378486754213057e+00 1.385492783819950889e-03
3.972161717205994591e+03 1.304900681148779773e+00 1.481270950743361235e-03
3.976133878923201792e+03 1.338135050801384951e+00 1.439209622273182956e-03
3.980110012802126221e+03 1.372506457429736315e+00 1.434553331576989476e-03
3.984090122814929600e+03 1.407180661812253541e+00 1.695402728637419431e-03
3.988074212937745870e+03 1.440729131303967181e+00 2.053962508766620301e-03
3.992062287150684824e+03 1.472000052247314894e+00 2.365434829507811424e-03
3.996054349437837118e+03 1.499523145077330311e+00 2.417857027303334759e-03
4.000050403787276082e+03 1.521492545542492802e+00 1.772066652829669539e-03
4.004050454191064546e+03 1.535826769499512912e+00 1.101293466822392091e-03
4.008054504645257111e+03 1.541506064334421389e+00 9.108725901805471903e-04
4.012062559149903791e+03 1.538334176324359648e+00 8.823991232374245710e-04
4.016074621709055009e+03 1.525492727364906376e+00 8.620311434150634356e-04
4.020090696330765240e+03 1.503659013450461046e+00 6.404506737348816684e-04
4.024110787027097558e+03 1.473928244969153756e+00 5.869033372775820040e-04
4.028134897814125907e+03 1.436998670317882087e+00 6.932371728235599100e-04
4.032163032711941469e+03 1.393645917215942553e+00 9.923231439895620603e-04
4.036195195744654484e+03 1.345674169895901384e+00 1.315961606816203446e-03
4.040231390940400615e+03 1.294272667515351749e+00 1.684033167691987177e-03
4.044271622331342314e+03 1.240961962710141142e+00 1.789596267085902075e-03
4.048315893953675186e+03 1.187911579536563123e+00 1.622725674686872552e-03
4.052364209847629809e+03 1.136805604433915429e+00 1.298348544121677569e-03
4.056416574057479011e+03 1.088824946855306175e+00 9.470019332918486925e-04
4.060472990631537868e+03 1.045046216679408335e+00 7.794482545927190536e-04
4.064533463622170530e+03 1.005909782579045508e+00 9.540902273010070040e-04
4.068597997085794304e+03 9.717399717618612209e-01 1.284378249208998572e-03
4.072666595082881486e+03 9.420277546434100424e-01 1.375600914700095441e-03
4.076739261677965715e+03 9.153990586065549051e-01 1.439120659395028926e-03
4.080816000939644709e+03 8.908554376814016296e-01 1.398883820085778436e-03
4.084896816940585722e+03 8.678638121769083336e-01 1.169567965007962474e-03
4.088981713757527814e+03 8.457872018714445161e-01 6.414095290863958002e-04
4.093070695471286854e+03 8.235827403209050601e-01 6.027814346212629574e-04
4.097163766166759160e+03 8.015418842312881376e-01 7.874268563785874345e-04
4.101260929932927866e+03 7.797371830825600147e-01 1.022869423275407814e-03
4.105362190862862008e+03 7.586837828502472902e-01 1.013973615983291762e-03
4.109467553053726078e+03 7.384356148553660182e-01 8.956754471476854884e-04
4.113577020606780934e+03 7.197591422294786767e-01 7.924061925919738923e-04
4.117690597627389252e+03 7.028797883638491228e-01 5.424308083525872281e-04
4.121808288225018259e+03 6.882573755738972121e-01 2.978780315054739124e-04
4.125930096513244280e+03 6.760835423208211292e-01 3.219619734629889860e-04
4.130056026609759101e+03 6.661994216601203611e-01 4.132582433430406570e-04
4.134186082636369974e+03 6.581088271188743066e-01 5.997975784797006686e-04
4.138320268719007800e+03 6.512885573810542894e-01 6.663675571918319107e-04
4.142458588987728035e+03 6.450919580897179761e-01 7.335619107766431016e-04
4.146601047576717065e+03 6.392663468569536045e-01 7.927572011260410056e-04
4.150747648624294925e+03 6.333101441370068141e-01 8.280620397499690102e-04
4.154898396272920763e+03 6.266226073256686568e-01 6.798167542330453474e-04
4.159053294669195566e+03 6.188342223057603508e-01 5.758148011615969297e-04
4.163212347963865795e+03 6.101479041716104668e-01 8.546511550165922276e-04
4.167375560311830668e+03 6.009920541814963713e-01 1.232053936042736908e-03
4.171542935872143971e+03 5.920503321086609816e-01 1.412603537859541316e-03
4.175714478808017702e+03 5.842015710546422103e-01 1.349722854758163369e-03
4.179890193286827525e+03 5.782164524212455303e-01 1.090961573303882116e-03
4.184070083480115500e+03 5.751291188017558786e-01 9.585233740955514904e-04
4.188254153563597356e+03 5.752530407167987248e-01 6.851750047677242998e-04
4.192442407717161586e+03 5.791866910576026761e-01 5.703991731371380611e-04
4.196634850124880359e+03 5.867970723845389314e-01 7.518986617909736688e-04
4.200831484975006788e+03 5.976750865671827118e-01 9.386147092583542462e-04
4.205032316459983122e+03 6.111185399419190034e-01 1.109370418079488928e-03
4.209237348776444378e+03 6.261265856094300197e-01 1.038106111181463353e-03
4.213446586125221984e+03 6.417914887321309880e-01 8.505445527255541894e-04
4.217660032711349231e+03 6.568084784885739325e-01 7.081437687627739792e-04
4.221877692744061278e+03 6.704429479291187377e-01 6.602445568920657084e-04
4.226099570436806971e+03 6.821985633655193171e-01 5.789242170123159699e-04
4.230325670007245208e+03 6.917405530776971068e-01 4.215550452075305342e-04
4.234555995677254032e+03 6.983782926123884849e-01 3.059851946938667603e-04
4.238790551672932452e+03 7.018981331025088144e-01 3.989417047191633832e-04
4.243029342224606808e+03 7.024500651523881700e-01 4.601186250082860943e-04
4.247272371566832589e+03 7.005281459206734729e-01 4.853939950505668788e-04
4.251519643938400804e+03 6.967892782010819408e-01 4.993027606551564542e-04
4.255771163582340705e+03 6.916940515926398581e-01 6.986703183142710773e-04
4.260026934745924336e+03 6.858364854923527654e-01 9.441546759247248285e-04
4.264286961680671993e+03 6.800964978256728299e-01 9.029320326762198647e-04
4.268551248642354039e+03 6.752056443135342478e-01 7.492374766940474448e-04
4.272819799890998183e+03 6.720162852031574818e-01 5.832419620641985649e-04
4.277092619690890388e+03 6.707933619407250303e-01 4.411278504641412564e-04
4.281369712310583054e+03 6.717635947349206438e-01 4.704428266100258772e-04
4.285651082022895025e+03 6.751216105622882546e-01 7.175880416314103566e-04
4.289936733104918858e+03 6.801386415068541025e-01 8.238927254155783064e-04
4.294226669838025373e+03 6.866546568735377720e-01 8.136999096700492243e-04
4.298520896507864563e+03 6.939472078910705610e-01 7.603475888121702213e-04
4.302819417404373780e+03 7.014268433928170232e-01 5.928495030218096460e-04
4.307122236821779552e+03 7.085498684994835372e-01 4.700939455155445893e-04
4.311429359058603040e+03 7.152337668500290402e-01 3.894664429292365158e-04
4.315740788417662770e+03 7.208992993325652465e-01 4.281332342210340358e-04
4.320056529206081905e+03 7.255347968690816218e-01 3.840724912103348908e-04
4.324376585735290064e+03 7.290624884735504851e-01 3.069915087935033162e-04
4.328700962321026054e+03 7.314623253725629493e-01 2.695043311188368850e-04
4.333029663283348782e+03 7.327757180539448134e-01 2.662710174983450029e-04
4.337362692946633615e+03 7.326175350807186959e-01 2.678771581400818912e-04
4.341700055639581478e+03 7.310058151338398869e-01 2.606573201604328550e-04
4.346041755695222491e+03 7.281517673809293489e-01 2.667601648849163764e-04
4.350387797450919606e+03 7.235890075275258626e-01 2.661625912973228088e-04
4.354738185248371337e+03 7.174304548265518777e-01 2.787898651239768409e-04
4.359092923433621763e+03 7.094683746706585969e-01 2.974139290698643969e-04
4.363452016357056891e+03 6.997776706556275705e-01 3.351699981359457107e-04
4.367815468373414660e+03 6.885523975950590403e-01 3.104868077034563727e-04
4.372183283841789489e+03 6.756009912102047821e-01 3.189011249265350065e-04
4.376555467125633186e+03 6.615057085658267999e-01 3.510413571132741891e-04
4.380932022592760404e+03 6.465624457392744606e-01 4.557235493262329394e-04
4.385312954615354101e+03 6.310495068701946764e-01 5.955870765512651793e-04
4.389698267569970994e+03 6.154717182057696245e-01 6.503045625095967225e-04
4.394087965837542470e+03 6.007987183021874511e-01 5.911061056887096168e-04
4.398482053803381859e+03 5.874975608995793852e-01 3.991633051610153399e-04
4.402880535857186260e+03 5.762196529346778062e-01 3.309776879373471561e-04
4.407283416393044718e+03 5.672260214478226370e-01 4.004059278663453882e-04
4.411690699809440048e+03 5.607273720345573587e-01 4.751519212185353652e-04
4.416102390509250654e+03 5.568928705453669581e-01 4.902077494977723215e-04
4.420518492899761441e+03 5.556484949156604847e-01 4.356221108948752979e-04
4.424939011392662906e+03 5.571883477489782965e-01 3.649853826470299636e-04
4.429363950404056595e+03 5.617005668454007061e-01 3.340383203381415813e-04
4.433793314354462382e+03 5.691120108986013060e-01 4.766116763270758267e-04
4.438227107668818462e+03 5.798199231982913426e-01 6.533782435906011722e-04
4.442665334776488635e+03 5.941959197179857988e-01 6.453260407909125257e-04
4.447108000111265937e+03 6.125765143444905636e-01 5.834033260847965594e-04
4.451555108111379013e+03 6.352121830673161940e-01 4.334012276300060239e-04
4.456006663219492111e+03 6.621305748449696216e-01 3.776653803905116345e-04
4.460462669882713271e+03 6.929987300465169087e-01 4.482572473395812990e-04
4.464923132552597053e+03 7.274636605005301293e-01 5.615374942878389314e-04
4.469388055685150903e+03 7.647842399233480970e-01 6.308187410650628341e-04
4.473857443740837880e+03 8.041389511014230829e-01 7.435102221551825570e-04
4.478331301184580298e+03 8.447607272368050646e-01 8.501704980417088128e-04
4.482809632485766087e+03 8.855836448393018534e-01 9.558099279433125315e-04
4.487292442118253348e+03 9.254942528004369562e-01 9.197882230137333992e-04
4.491779734560373072e+03 9.636303062896164340e-01 8.137656650840123171e-04
4.496271514294934605e+03 9.992019152030178208e-01 6.249645034307299259e-04
4.500767785809231100e+03 1.031956511660932385e+00 6.162379376908495030e-04
4.505268553595042249e+03 1.061875763018276020e+00 9.273853138456224221e-04
4.509773822148638828e+03 1.089761771617554276e+00 1.021360949809517948e-03
4.514283595970789065e+03 1.115556930631137256e+00 1.486953249211678480e-03
