# starting wavelength: 3491.860
# ending wavelength: 9766.590
# wav flux eflux
3.495143442410119405e+03 3.463863416028740705e-01 3.209508480323568919e-03
3.498638585852530468e+03 3.384200575204797667e-01 4.261014477833154589e-03
3.502137224438384237e+03 3.289231857253467339e-01 4.243833930762628236e-03
3.505639361662823831e+03 3.194667835591587512e-01 3.818096279752188852e-03
3.509145001024487556e+03 3.105790725862818680e-01 3.653076390207753588e-03
3.512654146025513455e+03 3.035000958377908065e-01 2.922495125661166582e-03
3.516166800171540217e+03 2.976999064246179660e-01 2.379165536634655475e-03
3.519682966971712631e+03 2.924150283036775488e-01 2.071656534246811131e-03
3.523202649938685681e+03 2.872877513659112259e-01 1.836697183151229191e-03
3.526725852588625457e+03 2.822664626395676168e-01 1.671359324393782318e-03
3.530252578441215064e+03 2.774485594767147623e-01 1.493744656862217588e-03
3.533782831019657806e+03 2.728750271498343039e-01 1.365898783099709149e-03
3.537316613850678550e+03 2.686163468782266084e-01 1.268419648779634847e-03
3.540853930464530094e+03 2.649992628754043178e-01 1.171430326982594644e-03
3.544394784394995895e+03 2.617100543318471861e-01 1.103408268588990842e-03
3.547939179179392340e+03 2.590799993670926393e-01 1.052088793872358978e-03
3.551487118358572843e+03 2.570449701813925514e-01 1.044328509533991138e-03
3.555038605476932389e+03 2.553587454341378904e-01 1.055119679989274068e-03
3.558593644082410719e+03 2.538345908644634163e-01 1.056595767659197294e-03
3.562152237726494150e+03 2.525939988968203265e-01 1.095070689276505301e-03
3.565714389964221937e+03 2.514593155408666458e-01 1.136524014575797251e-03
3.569280104354187188e+03 2.503669006723924229e-01 1.174623800863229756e-03
3.572849384458542772e+03 2.493597190876639669e-01 1.225415975658146819e-03
3.576422233843002232e+03 2.481610008370691012e-01 1.235672905824234356e-03
3.579998656076846601e+03 2.468829877932134376e-01 1.249082527263190674e-03
3.583578654732924406e+03 2.453833151252276523e-01 1.253049427946118866e-03
3.587162233387658489e+03 2.437847793111560524e-01 1.254628491241235010e-03
3.590749395621047370e+03 2.421277098577502562e-01 1.244208405861132365e-03
3.594340145016669794e+03 2.402356490543861578e-01 1.228564821247354541e-03
3.597934485161687462e+03 2.381811606844327633e-01 1.223284833271763268e-03
3.601532419646850485e+03 2.360645710742934889e-01 1.233756403697804701e-03
3.605133952066498296e+03 2.342122253703050327e-01 1.241061886908666851e-03
3.608739086018566013e+03 2.318009168380372742e-01 1.424589241499560127e-03
3.612347825104585809e+03 2.291394946019394141e-01 1.665318213811914187e-03
3.615960172929691907e+03 2.264813809570767611e-01 1.795795114013615593e-03
3.619576133102622407e+03 2.239953968614564195e-01 1.778087796127475820e-03
3.623195709235726554e+03 2.219772617595938691e-01 1.485964840894671594e-03
3.626818904944963379e+03 2.209311169223895088e-01 1.127818149480089164e-03
3.630445723849909427e+03 2.210731815049428173e-01 8.899627634796707619e-04
3.634076169573760581e+03 2.220298153842817646e-01 7.321171602505426642e-04
3.637710245743335690e+03 2.248053992803320522e-01 7.307090990540138654e-04
3.641347955989080219e+03 2.283617206467978833e-01 7.351243611013219981e-04
3.644989303945070333e+03 2.328152260619180680e-01 7.382673564037109306e-04
3.648634293249016537e+03 2.383713285414937599e-01 7.497185984010203792e-04
3.652282927542266862e+03 2.450255281646274430e-01 8.086806439282824294e-04
3.655935210469810499e+03 2.525531257072863855e-01 9.574500457530533536e-04
3.659591145680281443e+03 2.607186652407865735e-01 1.085526099163843438e-03
3.663250736825963031e+03 2.692096334831218241e-01 1.271811553248006080e-03
3.666913987562790226e+03 2.778595326429920132e-01 1.433366024197168078e-03
3.670580901550354156e+03 2.860671168057169478e-01 1.404630958233020520e-03
3.674251482451905758e+03 2.945965045636630419e-01 1.391220361238290236e-03
3.677925733934358959e+03 3.025975090120641697e-01 1.295515405641420965e-03
3.681603659668294313e+03 3.096450496017889575e-01 1.211279383515526846e-03
3.685285263327964003e+03 3.154983898060583769e-01 1.146917014112341406e-03
3.688970548591293209e+03 3.201355916652260936e-01 1.040986891072596824e-03
3.692659519139885560e+03 3.231409129460932061e-01 9.444233204511264705e-04
3.696352178659026777e+03 3.245696319999712975e-01 9.078095376840247810e-04
3.700048530837686940e+03 3.239543050145399228e-01 9.137952461098729478e-04
3.703748579368525952e+03 3.217127109724550738e-01 9.181019023043651738e-04
3.707452327947895355e+03 3.176560836711798674e-01 9.386490114761730438e-04
3.711159780275844696e+03 3.120561911562734769e-01 9.831470149556035664e-04
3.714870940056121526e+03 3.048946143072368553e-01 1.078529988647618362e-03
3.718585810996179134e+03 2.961284124623601577e-01 1.231629068443312793e-03
3.722304396807176545e+03 2.860029706450071818e-01 1.438062395493680274e-03
3.726026701203984885e+03 2.747849276514594541e-01 1.578632567477389033e-03
3.729752727905190113e+03 2.626250063389149458e-01 1.468755170828568279e-03
3.733482480633096657e+03 2.503435242185001464e-01 1.222859931795816039e-03
3.737215963113731050e+03 2.376568108011627434e-01 9.770360997844913537e-04
3.740953179076846027e+03 2.252543421152564396e-01 7.183734699599499856e-04
3.744694132255923705e+03 2.136985994638366804e-01 6.625733336927219601e-04
3.748438826388181042e+03 2.030411663335734695e-01 6.643899665557086642e-04
3.752187265214570289e+03 1.932040307070761742e-01 6.695121998828830684e-04
3.755939452479786269e+03 1.839851740415589798e-01 6.815786502480407003e-04
3.759695391932267285e+03 1.758252640890561880e-01 6.946583099648003705e-04
3.763455087324201031e+03 1.686715777110565917e-01 7.320010827891326732e-04
3.767218542411526414e+03 1.627546552969949545e-01 7.832796400216919010e-04
3.770985760953939007e+03 1.581381057891592112e-01 7.860683298686751367e-04
3.774756746714894234e+03 1.547914153401696302e-01 7.455779956714194247e-04
3.778531503461610555e+03 1.524598759894136291e-01 7.149232369552407061e-04
3.782310034965073100e+03 1.512274891054723458e-01 5.979094107111743639e-04
3.786092345000039586e+03 1.508319646457892405e-01 4.946621488988845296e-04
3.789878437345040766e+03 1.511455095364860335e-01 4.337202705246610097e-04
3.793668315782387253e+03 1.522739949134035709e-01 3.888721702215018920e-04
3.797461984098170888e+03 1.541553400096356552e-01 3.740061085309143683e-04
3.801259446082270188e+03 1.568148343025744240e-01 3.674405049041099686e-04
3.805060705528353537e+03 1.602294997602180249e-01 3.705546585672386557e-04
3.808865766233883278e+03 1.642407724621068876e-01 3.411860196963184110e-04
3.812674632000118436e+03 1.691529355132643520e-01 3.105807706326877337e-04
3.816487306632119726e+03 1.752334583385831979e-01 3.100923085836869084e-04
3.820303793938753188e+03 1.825007957346967968e-01 3.081878717375732086e-04
3.824124097732693372e+03 1.905554936407393984e-01 5.250989620599918854e-04
3.827948221830427428e+03 1.997535987660315204e-01 7.743956598709368514e-04
3.831776170052258749e+03 2.101187712097472571e-01 1.041750334098186107e-03
3.835607946222312421e+03 2.220780164395365075e-01 1.103054698070150092e-03
3.839443554168536139e+03 2.360442435318524934e-01 1.074987415722359870e-03
3.843282997722705659e+03 2.522923589556149149e-01 9.970698494283153964e-04
3.847126280720429804e+03 2.707235525202015269e-01 8.913043347671035675e-04
3.850973407001151372e+03 2.913160232498678837e-01 7.880334493183334572e-04
3.854824380408153957e+03 3.141536602482452034e-01 7.823048143195782903e-04
3.858679204788563311e+03 3.387977341654598296e-01 7.975823642510879727e-04
3.862537883993353262e+03 3.656511292054243079e-01 9.014014164109428618e-04
3.866400421877347981e+03 3.942298201034088456e-01 9.588429061073874783e-04
3.870266822299226533e+03 4.241956373384422330e-01 9.497779312123228119e-04
3.874137089121526969e+03 4.552697150155590733e-01 9.337645256817227743e-04
3.878011226210649966e+03 4.869018333214982230e-01 9.046831319428501848e-04
3.881889237436861549e+03 5.192571350254611140e-01 7.348077631911437190e-04
3.885771126674299921e+03 5.510181665768923986e-01 6.550073164186366115e-04
3.889656897800975457e+03 5.822486983042605146e-01 7.827581809103982503e-04
3.893546554698777527e+03 6.121370527591526445e-01 9.744170270697267685e-04
3.897440101253477678e+03 6.400490023137588302e-01 1.145884660159051565e-03
3.901337541354732366e+03 6.656025697409708730e-01 1.269174924549259500e-03
3.905238878896088409e+03 6.883820635205391003e-01 1.358669806553110607e-03
3.909144117774985716e+03 7.081603182264604168e-01 1.467198062061584674e-03
3.913053261892762293e+03 7.242101078107187062e-01 1.418647125272929060e-03
3.916966315154656058e+03 7.365530448540352770e-01 1.261230545967202774e-03
3.920883281469812118e+03 7.451052242005019588e-01 1.082832005370180798e-03
3.924804164751283224e+03 7.502041822527519832e-01 9.499429440421731626e-04
3.928728968916035683e+03 7.509293900405676903e-01 1.141624894036464156e-03
3.932657697884953450e+03 7.480297431487508142e-01 1.413486841120957212e-03
3.936590355582839493e+03 7.419881209553557122e-01 1.471479356836782057e-03
3.940526945938423523e+03 7.337091450825725669e-01 1.387372568517660680e-03
3.944467472884363360e+03 7.231057895300156968e-01 9.726959453392987950e-04
3.948411940357249023e+03 7.123101555539688157e-01 7.865219334707120643e-04
3.952360352297607733e+03 7.016856311188591766e-01 6.054951960215930028e-04
3.956312712649906643e+03 6.919944705677992802e-01 6.143095180425881593e-04
3.960269025362557841e+03 6.838238013766414491e-01 8.066929569476898390e-04
3.964229294387921527e+03 6.776872155433103506e-01 1.216399448887803183e-03
3.968193523682310570e+03 6.743658655038586858e-01 1.760909460250134617e-03
3.972161717205994591e+03 6.751272314687939424e-01 2.042363602274368563e-03
3.976133878923201792e+03 6.803820302061265313e-01 2.037745905621027049e-03
3.980110012802126221e+03 6.907748929726901244e-01 1.772444948608561466e-03
3.984090122814929600e+03 7.068559918486367888e-01 1.473032410171940020e-03
3.988074212937745870e+03 7.283048645434818669e-01 1.405780674285410630e-03
3.992062287150684824e+03 7.552141327449335417e-01 1.526253199383802205e-03
3.996054349437837118e+03 7.867813347910619370e-01 1.896947979043517437e-03
4.000050403787276082e+03 8.222679238584130745e-01 2.406992832792639262e-03
4.004050454191064546e+03 8.620345573884599100e-01 2.511586868241494873e-03
4.008054504645257111e+03 9.017744648793886153e-01 2.509312058462071209e-03
4.012062559149903791e+03 9.407778759877424291e-01 2.307470988041581978e-03
4.016074621709055009e+03 9.768695909101401398e-01 1.819011275600128374e-03
4.020090696330765240e+03 1.008229393361981030e+00 1.337152799446790323e-03
4.024110787027097558e+03 1.033441164161570835e+00 1.017860896481270067e-03
4.028134897814125907e+03 1.051450378548908660e+00 7.316585870676039962e-04
4.032163032711941469e+03 1.061115690382113286e+00 5.250875996210693048e-04
4.036195195744654484e+03 1.062111685445197740e+00 4.949518074830890589e-04
4.040231390940400615e+03 1.053877318314145217e+00 6.205360079641999201e-04
4.044271622331342314e+03 1.037145397728172824e+00 1.090195968496472656e-03
4.048315893953675186e+03 1.012400386255498219e+00 1.730248701028845853e-03
4.052364209847629809e+03 9.819302084937746589e-01 1.772892741582912136e-03
4.056416574057479011e+03 9.442575873245988571e-01 2.236899503313053220e-03
4.060472990631537868e+03 9.020684867898940418e-01 2.289491471650522726e-03
4.064533463622170530e+03 8.575767867123660348e-01 2.171980070846857031e-03
4.068597997085794304e+03 8.109075091042877714e-01 1.364020955892760421e-03
4.072666595082881486e+03 7.663018988316263602e-01 1.000896009752604574e-03
4.076739261677965715e+03 7.236096891712571200e-01 9.291564939610517417e-04
4.080816000939644709e+03 6.835300828465429301e-01 1.106560702964589672e-03
4.084896816940585722e+03 6.466189756176736747e-01 1.302268968695069343e-03
4.088981713757527814e+03 6.129556967342615348e-01 1.310122420612496374e-03
4.093070695471286854e+03 5.824574288106662001e-01 1.107234148699927281e-03
4.097163766166759160e+03 5.549744039669571860e-01 6.334225123916051867e-04
4.101260929932927866e+03 5.299520538735024155e-01 4.826583000845254923e-04
4.105362190862862008e+03 5.075009596927433364e-01 5.577173973104161209e-04
4.109467553053726078e+03 4.878650717956806715e-01 5.623222577646130134e-04
4.113577020606780934e+03 4.709594864509629719e-01 5.156286857166282990e-04
4.117690597627389252e+03 4.566435145651680516e-01 2.757084651377591437e-04
4.121808288225018259e+03 4.454040598081520086e-01 2.821919150476139568e-04
4.125930096513244280e+03 4.367734002983411079e-01 2.824793838881353952e-04
4.130056026609759101e+03 4.306151601499764725e-01 2.873159889888422195e-04
4.134186082636369974e+03 4.265955001021012882e-01 3.558794848507406371e-04
4.138320268719007800e+03 4.242896530602989769e-01 4.940877682520243216e-04
4.142458588987728035e+03 4.232149612292273044e-01 6.078716848872376972e-04
4.146601047576717065e+03 4.227394764845453512e-01 6.109844284708458974e-04
4.150747648624294925e+03 4.222883109481010977e-01 4.992493726536465512e-04
4.154898396272920763e+03 4.213515697244509250e-01 4.376028951457477706e-04
4.159053294669195566e+03 4.197867699107695749e-01 4.186362508373799008e-04
4.163212347963865795e+03 4.175491417096021118e-01 4.061400085343463365e-04
4.167375560311830668e+03 4.145162030598639746e-01 4.152932747203517830e-04
4.171542935872143971e+03 4.107055045825184214e-01 4.582230184234528745e-04
4.175714478808017702e+03 4.063031220041120606e-01 5.414536261588526406e-04
4.179890193286827525e+03 4.015768572291250060e-01 5.935297413550918739e-04
4.184070083480115500e+03 3.969812115534609998e-01 5.272483236034499355e-04
4.188254153563597356e+03 3.930885679676350275e-01 3.715240605862087683e-04
4.192442407717161586e+03 3.904815492696989687e-01 3.812446181780419427e-04
4.196634850124880359e+03 3.893395784154088379e-01 4.967215233699133698e-04
4.200831484975006788e+03 3.898563344955164323e-01 5.489594426656296431e-04
4.205032316459983122e+03 3.922916655953166964e-01 4.400181814400850439e-04
4.209237348776444378e+03 3.968776111455024624e-01 4.192393117804439260e-04
4.213446586125221984e+03 4.034345811629787559e-01 6.268803873779016898e-04
4.217660032711349231e+03 4.116023052581281871e-01 7.966620364371513208e-04
4.221877692744061278e+03 4.208883188328862990e-01 8.113425254587733337e-04
4.226099570436806971e+03 4.306574633131331487e-01 7.170889510517350351e-04
4.230325670007245208e+03 4.402112345077689448e-01 5.913952418329259568e-04
4.234555995677254032e+03 4.490325562130959569e-01 4.924006677374276764e-04
4.238790551672932452e+03 4.567205662042751468e-01 4.125103806178526036e-04
4.243029342224606808e+03 4.628622043656346330e-01 3.407337460132118362e-04
4.247272371566832589e+03 4.672136927331455580e-01 3.180982637273835215e-04
4.251519643938400804e+03 4.696784342517748012e-01 3.420098150918523009e-04
4.255771163582340705e+03 4.703212669532448320e-01 3.430607594039130834e-04
4.260026934745924336e+03 4.694131058745907303e-01 3.254881707744961320e-04
4.264286961680671993e+03 4.673719988784419965e-01 3.766771237148139589e-04
4.268551248642354039e+03 4.646474252115643244e-01 4.732057121688543048e-04
4.272819799890998183e+03 4.614368208874886634e-01 6.504674349695899194e-04
4.277092619690890388e+03 4.581434711560893325e-01 7.115398246027372945e-04
4.281369712310583054e+03 4.553845771286017530e-01 5.647572292438198232e-04
4.285651082022895025e+03 4.536529646370450752e-01 3.358271012304032597e-04
4.289936733104918858e+03 4.533505268354542928e-01 2.622475087075510844e-04
4.294226669838025373e+03 4.545186140938164421e-01 3.512503264069457968e-04
4.298520896507864563e+03 4.570370808245643457e-01 4.846335416244078060e-04
4.302819417404373780e+03 4.606228453348397145e-01 5.561229077796045646e-04
4.307122236821779552e+03 4.649727451057047434e-01 5.425035646155948986e-04
4.311429359058603040e+03 4.697225666864410787e-01 4.938376433467713727e-04
4.315740788417662770e+03 4.745672033853297056e-01 3.944643641481326238e-04
4.320056529206081905e+03 4.791473199246186754e-01 2.307557259256646273e-04
4.324376585735290064e+03 4.830973844664884775e-01 1.663184321571301927e-04
4.328700962321026054e+03 4.863093177815622226e-01 2.105746835051700992e-04
4.333029663283348782e+03 4.888019839207766171e-01 2.382428664930858061e-04
4.337362692946633615e+03 4.905998807237529902e-01 2.478007896661772345e-04
4.341700055639581478e+03 4.918267494549030672e-01 2.585719031657249625e-04
4.346041755695222491e+03 4.926406320068090205e-01 2.630750293919097344e-04
4.350387797450919606e+03 4.931722603204925504e-01 2.579517549220125680e-04
4.354738185248371337e+03 4.932561882492066396e-01 1.863021450514673984e-04
4.359092923433621763e+03 4.930484219871552054e-01 1.913682218802519118e-04
4.363452016357056891e+03 4.925254519524084329e-01 3.210709540299717902e-04
4.367815468373414660e+03 4.914027842395870538e-01 4.044423732923164657e-04
4.372183283841789489e+03 4.894740472438846579e-01 4.134857068688831995e-04
4.376555467125633186e+03 4.866235375009147490e-01 3.828036068701114831e-04
4.380932022592760404e+03 4.826801982602494934e-01 2.825359553121943048e-04
4.385312954615354101e+03 4.774200429535377377e-01 1.926571706075798167e-04
4.389698267569970994e+03 4.708878507764898136e-01 2.041513897575401436e-04
4.394087965837542470e+03 4.632848884124045052e-01 2.314801221164134977e-04
4.398482053803381859e+03 4.548396597799839736e-01 2.359631285694051262e-04
4.402880535857186260e+03 4.457635554738753059e-01 2.152129053883352662e-04
4.407283416393044718e+03 4.363735423440269212e-01 1.690662641698629837e-04
4.411690699809440048e+03 4.271609408247511452e-01 2.114813935524423609e-04
4.416102390509250654e+03 4.186069566319579605e-01 3.240372969323309922e-04
4.420518492899761441e+03 4.111929017177541890e-01 4.266805901485888250e-04
4.424939011392662906e+03 4.054314184178119396e-01 4.692685881743681583e-04
4.429363950404056595e+03 4.018470054451789286e-01 4.307748702583517973e-04
4.433793314354462382e+03 4.008351812590570384e-01 3.660459050775557717e-04
4.438227107668818462e+03 4.026436187951758505e-01 3.305945405319039312e-04
4.442665334776488635e+03 4.075868279460018173e-01 4.408057752741436621e-04
4.447108000111265937e+03 4.156167218078528625e-01 4.777821736722907961e-04
4.451555108111379013e+03 4.267308342307962743e-01 4.639629193254959385e-04
4.456006663219492111e+03 4.408723809904486757e-01 4.163613712084219859e-04
4.460462669882713271e+03 4.580693249001421274e-01 3.463215034159987404e-04
4.464923132552597053e+03 4.781474079361646146e-01 4.217936433561593132e-04
4.469388055685150903e+03 5.010191587072165831e-01 5.692370080681420728e-04
4.473857443740837880e+03 5.268092342505040770e-01 6.050142711179784007e-04
4.478331301184580298e+03 5.556431050153705087e-01 5.074340862727583267e-04
4.482809632485766087e+03 5.875758544275276885e-01 3.489296646321583839e-04
4.487292442118253348e+03 6.223801937217489089e-01 3.978900255768417246e-04
4.491779734560373072e+03 6.596152423248369256e-01 7.079176123136893001e-04
4.496271514294934605e+03 6.985205533722333993e-01 1.006511504619156221e-03
4.500767785809231100e+03 7.381241916412673021e-01 1.132760863463740412e-03
4.505268553595042249e+03 7.773596168181700072e-01 1.048670576134842552e-03
4.509773822148638828e+03 8.152774477585557067e-01 8.208052384290735488e-04
4.514283595970789065e+03 8.511964524096607976e-01 6.258390100744503845e-04
4.518797879566761367e+03 8.846278026377129011e-01 6.601267871417456929e-04
4.523316677446328868e+03 9.154304548109102324e-01 7.385359098216011040e-04
4.527839994123776705e+03 9.435394397951328838e-01 7.515800475733964590e-04
4.532367834117902021e+03 9.689142069801118806e-01 6.316881302095170379e-04
4.536900201952022144e+03 9.918437380681449644e-01 5.843066366205428887e-04
4.541437102153975502e+03 1.012394994106552426e+00 6.164959027339614751e-04
4.545978539256130716e+03 1.030746159325358402e+00 6.132093073416182774e-04
4.550524517795388419e+03 1.047216458337447031e+00 6.358566377233995518e-04
