# starting wavelength: 3457.130
# ending wavelength: 7345.560
# wav flux eflux
3.460383474435829612e+03 6.691492724854191110e-01 1.331036273520836040e-02
3.463843857910266706e+03 6.719827098596765635e-01 1.000497748752403847e-02
3.467307701768178049e+03 6.744279259169118079e-01 7.676666760517530420e-03
3.470775009469947236e+03 6.796245280125307042e-01 7.790996246439702531e-03
3.474245784479418489e+03 6.826392464293741247e-01 7.025878421474841297e-03
3.477720030263898934e+03 6.831010496533276299e-01 5.708263002161206856e-03
3.481197750294164052e+03 6.838521957583658661e-01 4.656660695953127559e-03
3.484678948044459503e+03 6.854075824750117674e-01 4.279469477532052250e-03
3.488163626992504760e+03 6.887601068507861468e-01 4.266804538792453270e-03
3.491651790619498570e+03 6.943773725206967562e-01 4.754344846093205672e-03
3.495143442410119405e+03 7.001255935239130146e-01 4.456165295071494795e-03
3.498638585852530468e+03 7.069878965225451228e-01 4.504646731565719632e-03
3.502137224438384237e+03 7.128197556672275503e-01 4.300260342381911211e-03
3.505639361662823831e+03 7.174414491217375733e-01 4.081021665549469483e-03
3.509145001024487556e+03 7.217084619853961769e-01 4.006293517416844793e-03
3.512654146025513455e+03 7.249211744106301980e-01 4.015274831527530092e-03
3.516166800171540217e+03 7.256401426616231332e-01 3.757314133925914509e-03
3.519682966971712631e+03 7.247501705273264871e-01 3.642837253065569700e-03
3.523202649938685681e+03 7.227385604185525558e-01 3.695840605334823215e-03
3.526725852588625457e+03 7.181054783551785725e-01 3.799614408760406369e-03
3.530252578441215064e+03 7.125406965589765607e-01 3.817169466526810270e-03
3.533782831019657806e+03 7.051103416765488463e-01 4.013733202585667223e-03
3.537316613850678550e+03 6.955728629197092117e-01 4.504377541748988065e-03
3.540853930464530094e+03 6.858857928136159465e-01 4.450648615929585737e-03
3.544394784394995895e+03 6.749879026543016414e-01 4.488277207467010303e-03
3.547939179179392340e+03 6.633968590233892959e-01 4.547240178667157594e-03
3.551487118358572843e+03 6.516951720713904939e-01 4.523995701835231698e-03
3.555038605476932389e+03 6.385742606129236609e-01 4.381460846030232198e-03
3.558593644082410719e+03 6.267118247754733806e-01 3.841734513843663226e-03
3.562152237726494150e+03 6.157082551046678676e-01 3.515919593411828952e-03
3.565714389964221937e+03 6.065874843229697166e-01 3.357499237952877354e-03
3.569280104354187188e+03 5.994627251323034756e-01 3.681006967389270374e-03
3.572849384458542772e+03 5.942628124062880879e-01 3.975723190183820532e-03
3.576422233843002232e+03 5.908973276571336530e-01 3.849650183773592298e-03
3.579998656076846601e+03 5.879757230927867839e-01 3.696366391780385018e-03
3.583578654732924406e+03 5.854738895724712622e-01 3.606621729919350181e-03
3.587162233387658489e+03 5.856505227807307090e-01 3.146898322500716640e-03
3.590749395621047370e+03 5.858053114143862983e-01 3.150722162420647576e-03
3.594340145016669794e+03 5.852509110031739459e-01 3.058608891144134166e-03
3.597934485161687462e+03 5.862779416625224505e-01 2.924894851309673728e-03
3.601532419646850485e+03 5.888778861021626287e-01 3.003244873976570768e-03
3.605133952066498296e+03 5.923674857147090966e-01 2.985667354820882753e-03
3.608739086018566013e+03 5.965886973972581719e-01 2.992935570401037120e-03
3.612347825104585809e+03 6.025832670426745086e-01 3.042004286605457745e-03
3.615960172929691907e+03 6.088864828311650879e-01 3.285065572955321415e-03
3.619576133102622407e+03 6.165703975614832411e-01 3.996226915574002322e-03
3.623195709235726554e+03 6.235660197634242952e-01 4.181925231628786863e-03
3.626818904944963379e+03 6.315972394052193906e-01 4.233524620160912869e-03
3.630445723849909427e+03 6.381651619815680299e-01 3.986561381567564448e-03
3.634076169573760581e+03 6.417505593163902455e-01 3.968536016074690996e-03
3.637710245743335690e+03 6.439700678284704383e-01 4.125155680009449932e-03
3.641347955989080219e+03 6.464858241168632835e-01 4.247626642119038502e-03
3.644989303945070333e+03 6.475998250709620319e-01 4.266690947132085500e-03
3.648634293249016537e+03 6.463773681848724584e-01 4.606990923052463500e-03
3.652282927542266862e+03 6.452897187941980528e-01 4.881150187397436876e-03
3.655935210469810499e+03 6.421640808340476347e-01 4.981820647547078977e-03
3.659591145680281443e+03 6.386047905482021836e-01 4.768805283873637363e-03
3.663250736825963031e+03 6.356487419160783414e-01 4.216383848581939722e-03
3.666913987562790226e+03 6.325702576445559888e-01 3.266898323472965278e-03
3.670580901550354156e+03 6.316738121403635553e-01 3.384087988419428369e-03
3.674251482451905758e+03 6.327025235063766795e-01 3.909539165489046147e-03
3.677925733934358959e+03 6.347206141785968203e-01 4.074778337702845109e-03
3.681603659668294313e+03 6.355257350534556648e-01 4.087065797457210478e-03
3.685285263327964003e+03 6.368350654383028164e-01 4.015821411649660687e-03
3.688970548591293209e+03 6.380485915333142799e-01 3.773428862271548979e-03
3.692659519139885560e+03 6.411564900136885736e-01 3.192065668650498692e-03
3.696352178659026777e+03 6.415686131643278944e-01 3.076153062622061490e-03
3.700048530837686940e+03 6.400094448310021944e-01 3.476095643222884470e-03
3.703748579368525952e+03 6.369191272882593902e-01 4.228024210112950841e-03
3.707452327947895355e+03 6.334807879470730763e-01 4.095609259598886713e-03
3.711159780275844696e+03 6.304998876370796479e-01 3.293281405248829619e-03
3.714870940056121526e+03 6.300062592678521423e-01 3.953211578106360403e-03
3.718585810996179134e+03 6.272299101841664060e-01 4.089087606816356642e-03
3.722304396807176545e+03 6.269062430509745321e-01 4.605157261133254257e-03
3.726026701203984885e+03 6.254041583697874662e-01 4.900012348601650615e-03
3.729752727905190113e+03 6.254379431670114009e-01 4.440302638447089605e-03
3.733482480633096657e+03 6.210829869653271551e-01 4.663203892317441604e-03
3.737215963113731050e+03 6.165719416220146742e-01 4.869816124164252566e-03
3.740953179076846027e+03 6.128353657385915421e-01 4.996847443267190755e-03
3.744694132255923705e+03 6.076551766276757638e-01 5.431476029013828852e-03
3.748438826388181042e+03 6.052580646167429190e-01 5.412597956274935868e-03
3.752187265214570289e+03 6.024542935364682883e-01 5.218316675722953907e-03
3.755939452479786269e+03 5.992173283980768428e-01 5.004543577680225890e-03
3.759695391932267285e+03 5.971785991538265392e-01 5.152490570981223261e-03
3.763455087324201031e+03 5.956565715715238518e-01 5.019349085938860401e-03
3.767218542411526414e+03 5.972231546086196330e-01 5.180375871159235111e-03
3.770985760953939007e+03 6.025784410836803051e-01 5.362259168674652667e-03
3.774756746714894234e+03 6.085322689871729418e-01 5.387616968239457814e-03
3.778531503461610555e+03 6.160753520857559229e-01 5.293539790486298698e-03
3.782310034965073100e+03 6.255902895621658910e-01 4.497309913996910824e-03
3.786092345000039586e+03 6.318625346026481848e-01 4.241814181044072096e-03
3.789878437345040766e+03 6.353169845486490441e-01 4.348502994119495674e-03
3.793668315782387253e+03 6.365656684720463199e-01 3.917471655056447948e-03
3.797461984098170888e+03 6.370622209276001202e-01 3.832604334664595821e-03
3.801259446082270188e+03 6.383364412264469490e-01 3.910958677408218030e-03
3.805060705528353537e+03 6.398149847516125810e-01 3.859619214085384300e-03
3.808865766233883278e+03 6.409573356692962465e-01 4.480163509639837824e-03
3.812674632000118436e+03 6.420859172416496508e-01 4.809512060790588871e-03
3.816487306632119726e+03 6.446224666275462978e-01 4.393503129253674595e-03
3.820303793938753188e+03 6.505987833561123201e-01 4.374569854034943486e-03
3.824124097732693372e+03 6.582597238416546537e-01 4.574098875373308094e-03
3.827948221830427428e+03 6.660980260753266435e-01 4.488764729516756154e-03
3.831776170052258749e+03 6.791427640488343354e-01 3.859369341029140772e-03
3.835607946222312421e+03 6.933477452605700808e-01 3.373665103750597607e-03
3.839443554168536139e+03 7.064970074425791502e-01 3.389397472069202895e-03
3.843282997722705659e+03 7.184840352953112408e-01 3.466263169731826927e-03
3.847126280720429804e+03 7.312514684163321510e-01 3.462104382476815113e-03
3.850973407001151372e+03 7.447633495844709905e-01 4.068298449242490136e-03
3.854824380408153957e+03 7.543814510590509670e-01 4.427172857478753852e-03
3.858679204788563311e+03 7.613515926581652105e-01 4.549973024023510303e-03
3.862537883993353262e+03 7.647773936717198184e-01 4.246129268142592728e-03
3.866400421877347981e+03 7.611793151309245165e-01 4.901135684375126922e-03
3.870266822299226533e+03 7.549340687216109513e-01 6.381131451819475019e-03
3.874137089121526969e+03 7.507974248235453896e-01 6.642772280042406711e-03
3.878011226210649966e+03 7.485913157374537441e-01 6.673666270316206024e-03
3.881889237436861549e+03 7.459182434476989698e-01 6.204978239014039346e-03
3.885771126674299921e+03 7.459879947044042448e-01 5.979284754225837675e-03
3.889656897800975457e+03 7.483198307721139475e-01 6.264048943484792388e-03
3.893546554698777527e+03 7.533501091190788479e-01 6.438335696949136315e-03
3.897440101253477678e+03 7.613289506822079611e-01 5.959432158524612458e-03
3.901337541354732366e+03 7.711389045831521516e-01 5.776984763177496658e-03
3.905238878896088409e+03 7.826013521995769384e-01 5.929951022672024126e-03
3.909144117774985716e+03 7.962460967583409044e-01 6.174862723802781311e-03
3.913053261892762293e+03 8.108872599933325542e-01 5.944476054043347675e-03
3.916966315154656058e+03 8.257586231632928486e-01 5.561531291356494253e-03
3.920883281469812118e+03 8.417660277841197969e-01 6.340533504646294130e-03
3.924804164751283224e+03 8.580069049162336592e-01 7.229539364458510350e-03
3.928728968916035683e+03 8.714583896521946871e-01 7.233606829921271526e-03
3.932657697884953450e+03 8.816012795605459029e-01 5.996895953190232824e-03
3.936590355582839493e+03 8.870492318548349742e-01 5.091493262962843228e-03
3.940526945938423523e+03 8.852653935323877565e-01 6.358226177522323906e-03
3.944467472884363360e+03 8.795817527487848064e-01 6.212467112089419506e-03
3.948411940357249023e+03 8.726128512886220934e-01 5.814786960730144484e-03
3.952360352297607733e+03 8.634808688421026224e-01 4.878175700923218124e-03
3.956312712649906643e+03 8.551103663688230938e-01 3.732719776446928681e-03
3.960269025362557841e+03 8.512893040311179105e-01 4.050183498441786711e-03
3.964229294387921527e+03 8.498782657161172427e-01 3.979376908936731183e-03
3.968193523682310570e+03 8.526828331088868174e-01 3.903535858667921132e-03
3.972161717205994591e+03 8.596968306233239154e-01 3.946806674870693803e-03
3.976133878923201792e+03 8.702592319775711571e-01 4.119930679259362245e-03
3.980110012802126221e+03 8.855360857191647561e-01 4.119577892703798171e-03
3.984090122814929600e+03 9.040671919678713309e-01 3.680695951199719571e-03
3.988074212937745870e+03 9.267784163325428759e-01 3.844990807797845928e-03
3.992062287150684824e+03 9.527360282114046841e-01 4.918777699330115563e-03
3.996054349437837118e+03 9.809395654511808837e-01 5.804352904300162999e-03
4.000050403787276082e+03 1.007488063819208746e+00 5.061873092872972053e-03
4.004050454191064546e+03 1.029712240080503882e+00 3.848865992370083169e-03
4.008054504645257111e+03 1.046451010030766238e+00 4.017826631097592971e-03
4.012062559149903791e+03 1.057577490173439161e+00 4.485720022364357226e-03
4.016074621709055009e+03 1.063755959189416567e+00 4.074822206650175783e-03
4.020090696330765240e+03 1.066027089325793487e+00 3.859097417159955152e-03
4.024110787027097558e+03 1.063775590969546325e+00 3.585084217166175768e-03
4.028134897814125907e+03 1.059120809985715450e+00 3.088940283377900227e-03
4.032163032711941469e+03 1.053518296041171531e+00 3.491439714877235360e-03
4.036195195744654484e+03 1.046017309351053859e+00 3.200667279305486213e-03
4.040231390940400615e+03 1.034293781549796343e+00 3.298890830599007177e-03
4.044271622331342314e+03 1.021929083978208475e+00 3.190333955587245675e-03
4.048315893953675186e+03 1.007801348470152014e+00 3.255554682726554024e-03
4.052364209847629809e+03 9.916024177349539448e-01 3.496347957013958008e-03
4.056416574057479011e+03 9.748488712349744345e-01 3.295004191253279088e-03
4.060472990631537868e+03 9.582308850805751899e-01 2.846462359729426059e-03
4.064533463622170530e+03 9.424446193580923170e-01 2.695706496247780685e-03
4.068597997085794304e+03 9.293601190493042674e-01 3.662738667189525867e-03
4.072666595082881486e+03 9.168789994659942710e-01 3.320808238759887909e-03
4.076739261677965715e+03 9.024044534691633146e-01 2.819075142642521372e-03
4.080816000939644709e+03 8.860415421453518015e-01 3.320255418586886328e-03
4.084896816940585722e+03 8.699216272057245236e-01 3.517764166141225390e-03
4.088981713757527814e+03 8.553189639077148909e-01 3.482911587082004098e-03
4.093070695471286854e+03 8.420020508265101400e-01 3.477328150641578654e-03
4.097163766166759160e+03 8.282691588078824330e-01 3.336994397141739878e-03
4.101260929932927866e+03 8.149059856929018464e-01 2.854927409775300223e-03
4.105362190862862008e+03 8.054260053930250018e-01 2.858111771319697333e-03
4.109467553053726078e+03 7.986665516930092634e-01 2.846733809970831454e-03
4.113577020606780934e+03 7.943717099649070246e-01 2.980563939955640541e-03
4.117690597627389252e+03 7.934899824659474854e-01 2.960866365789634625e-03
4.121808288225018259e+03 7.961638873979870468e-01 3.054312575862947170e-03
4.125930096513244280e+03 8.014423756254842601e-01 3.071038317968596658e-03
4.130056026609759101e+03 8.099768079888887140e-01 3.316076071257978517e-03
4.134186082636369974e+03 8.202614629292512838e-01 4.169526135619388771e-03
4.138320268719007800e+03 8.305208536236995398e-01 4.977167677444022977e-03
4.142458588987728035e+03 8.399551848203671289e-01 5.243664156748787872e-03
4.146601047576717065e+03 8.466997875252889605e-01 3.966998658867683727e-03
4.150747648624294925e+03 8.492882925894978952e-01 3.068597309573631218e-03
4.154898396272920763e+03 8.459110257635203967e-01 3.717959782015282672e-03
4.159053294669195566e+03 8.376453118827665856e-01 4.302718715481952845e-03
4.163212347963865795e+03 8.270011932523587683e-01 4.486335555808070724e-03
4.167375560311830668e+03 8.170316542607742871e-01 4.019900745414344695e-03
4.171542935872143971e+03 8.078819329256452519e-01 3.460404825302678018e-03
4.175714478808017702e+03 8.000071582760667210e-01 3.132263413953172235e-03
4.179890193286827525e+03 7.941597464971753562e-01 3.123440288694899047e-03
4.184070083480115500e+03 7.917118025302134487e-01 3.059023623294775725e-03
4.188254153563597356e+03 7.912182207353208874e-01 2.901875692626940985e-03
4.192442407717161586e+03 7.924905458624251775e-01 2.410917476416089573e-03
4.196634850124880359e+03 7.944956250324063385e-01 1.761030577634817382e-03
4.200831484975006788e+03 7.949444125440610076e-01 1.956130841502158255e-03
4.205032316459983122e+03 7.956574212868507967e-01 1.683209837048062771e-03
4.209237348776444378e+03 7.969459734976722665e-01 1.931965840816314691e-03
4.213446586125221984e+03 7.981129979633267979e-01 2.662313695287207502e-03
4.217660032711349231e+03 7.974246934417472676e-01 2.571549920248283622e-03
4.221877692744061278e+03 7.958047852991688709e-01 2.327365347210601926e-03
4.226099570436806971e+03 7.923729809160485749e-01 2.424043015953760306e-03
4.230325670007245208e+03 7.886439427274934966e-01 2.595509161916963962e-03
4.234555995677254032e+03 7.836418434968377422e-01 3.249420164069127467e-03
4.238790551672932452e+03 7.782649080539034703e-01 3.931491607061086795e-03
4.243029342224606808e+03 7.755159768445631929e-01 3.045442540386424177e-03
4.247272371566832589e+03 7.778400933296992781e-01 3.714276370267131488e-03
4.251519643938400804e+03 7.824682021651080399e-01 4.739765799751223530e-03
4.255771163582340705e+03 7.872474075342210664e-01 4.811581062494910827e-03
4.260026934745924336e+03 7.921332843585435768e-01 4.642059584717067762e-03
4.264286961680671993e+03 7.973474120831326450e-01 4.301957326218096289e-03
4.268551248642354039e+03 8.018868381711768967e-01 3.997793963929729792e-03
4.272819799890998183e+03 8.052079319494508391e-01 3.949043940751931388e-03
4.277092619690890388e+03 8.062966376055551443e-01 4.031443381375830227e-03
4.281369712310583054e+03 8.051742943874888869e-01 3.711492743874202950e-03
4.285651082022895025e+03 8.040562684019272321e-01 3.457454139019458268e-03
4.289936733104918858e+03 8.033405871382152119e-01 3.789292287501447223e-03
4.294226669838025373e+03 8.021860087127551386e-01 3.910682541874432004e-03
4.298520896507864563e+03 7.989980329384038793e-01 3.886615139084916709e-03
4.302819417404373780e+03 7.962142111055769966e-01 3.710136607088312943e-03
4.307122236821779552e+03 7.933037958043176463e-01 3.428597872882113620e-03
4.311429359058603040e+03 7.895176521813600523e-01 3.846059141247073262e-03
4.315740788417662770e+03 7.847913683270627550e-01 4.284117147373566956e-03
4.320056529206081905e+03 7.800072794662391562e-01 3.148795785042346040e-03
4.324376585735290064e+03 7.800523210281121722e-01 2.555523660716087393e-03
4.328700962321026054e+03 7.847612837232520455e-01 3.478967714624246407e-03
4.333029663283348782e+03 7.907592968945538203e-01 3.488465379012003695e-03
4.337362692946633615e+03 7.972753714016582727e-01 3.438645350898512226e-03
4.341700055639581478e+03 8.055686747989392327e-01 3.308761388289024104e-03
4.346041755695222491e+03 8.149403609902239332e-01 3.064856254703211998e-03
4.350387797450919606e+03 8.239691142954622682e-01 2.933570366743987103e-03
4.354738185248371337e+03 8.322468277621465349e-01 2.867247604644563002e-03
4.359092923433621763e+03 8.385825363354291184e-01 2.941295650043378954e-03
4.363452016357056891e+03 8.418725215319584620e-01 2.923220541062957704e-03
4.367815468373414660e+03 8.428019454623152384e-01 2.964823395819436800e-03
4.372183283841789489e+03 8.423072017827045732e-01 2.894500596867728356e-03
4.376555467125633186e+03 8.379280222681503298e-01 2.882076321056844213e-03
4.380932022592760404e+03 8.310769574534375703e-01 2.963145574875581095e-03
4.385312954615354101e+03 8.225828914322433905e-01 3.459139212277914394e-03
4.389698267569970994e+03 8.134472974896895803e-01 3.722388047127257477e-03
4.394087965837542470e+03 8.032787087583673769e-01 3.600998987314476055e-03
4.398482053803381859e+03 7.941526349395451323e-01 2.739297622190743717e-03
4.402880535857186260e+03 7.865784712508335774e-01 1.530577750625058834e-03
4.407283416393044718e+03 7.844408086339210717e-01 2.043406444951267453e-03
4.411690699809440048e+03 7.853601331443356148e-01 1.868106279763689231e-03
4.416102390509250654e+03 7.879444332079320601e-01 1.747147575949461193e-03
4.420518492899761441e+03 7.921424015196425472e-01 1.619987156333549221e-03
4.424939011392662906e+03 7.984559418134007380e-01 1.431764734917107505e-03
4.429363950404056595e+03 8.060069950733951272e-01 1.404114303297716729e-03
4.433793314354462382e+03 8.144434680438245033e-01 1.391941610175534720e-03
4.438227107668818462e+03 8.240395852237126784e-01 1.715026975181365267e-03
4.442665334776488635e+03 8.336674349133664785e-01 1.878129160278169075e-03
4.447108000111265937e+03 8.422738112806659183e-01 1.871121257585267247e-03
4.451555108111379013e+03 8.509025681954786036e-01 1.877861382450054899e-03
4.456006663219492111e+03 8.602466048095576134e-01 1.722180439767267111e-03
4.460462669882713271e+03 8.687893211170821806e-01 1.708223373301618166e-03
4.464923132552597053e+03 8.771662693681051559e-01 1.687217207352556753e-03
4.469388055685150903e+03 8.840611132660486371e-01 1.803774343248978245e-03
4.473857443740837880e+03 8.919836143928323580e-01 1.764759006494216048e-03
4.478331301184580298e+03 9.002962967544075878e-01 1.557610498848532648e-03
4.482809632485766087e+03 9.100317235381667480e-01 1.595058701161272382e-03
4.487292442118253348e+03 9.199264098112048815e-01 1.495604501536602383e-03
4.491779734560373072e+03 9.322244141709081777e-01 1.414445884542232931e-03
4.496271514294934605e+03 9.461174066591756526e-01 1.369291113096906534e-03
4.500767785809231100e+03 9.613096226101005559e-01 1.329942881958499261e-03
4.505268553595042249e+03 9.770018062887432242e-01 1.467780687117368772e-03
