# starting wavelength: 3464.040
# ending wavelength: 7345.560
# wav flux eflux
3.467307701768178049e+03 3.108945141905186116e-01 1.014135959995739883e-02
3.470775009469947236e+03 3.171280648225314192e-01 8.070552292350690465e-03
3.474245784479418489e+03 3.232891701194093859e-01 6.177427709600315231e-03
3.477720030263898934e+03 3.285955830681030476e-01 4.865775822024970797e-03
3.481197750294164052e+03 3.320639063709236449e-01 3.953527652599049536e-03
3.484678948044459503e+03 3.349128653801043964e-01 3.219149268006628317e-03
3.488163626992504760e+03 3.368765171472766218e-01 2.631224114446609891e-03
3.491651790619498570e+03 3.379268008839060866e-01 2.243468025729424432e-03
3.495143442410119405e+03 3.380942320416694402e-01 1.948252739251403725e-03
3.498638585852530468e+03 3.373581511084022266e-01 1.726808138094163740e-03
3.502137224438384237e+03 3.356778724186804119e-01 1.560992557617612219e-03
3.505639361662823831e+03 3.326487783776730933e-01 1.527433459998950955e-03
3.509145001024487556e+03 3.288574060735043880e-01 1.503654953610117839e-03
3.512654146025513455e+03 3.247775148208031371e-01 1.438749141321686575e-03
3.516166800171540217e+03 3.201419951238384520e-01 1.420910706011705533e-03
3.519682966971712631e+03 3.152269257802477465e-01 1.433493376507145867e-03
3.523202649938685681e+03 3.099120539604848790e-01 1.603530637545902502e-03
3.526725852588625457e+03 3.056641715676872706e-01 1.645306661001729939e-03
3.530252578441215064e+03 3.006691471646135705e-01 1.874371033109227926e-03
3.533782831019657806e+03 2.965529572529517766e-01 1.887595468922526618e-03
3.537316613850678550e+03 2.927830267685648802e-01 1.890720034937403262e-03
3.540853930464530094e+03 2.900671208915860944e-01 1.699298177843786917e-03
3.544394784394995895e+03 2.879409001874993490e-01 1.497109169881116275e-03
3.547939179179392340e+03 2.874079131454344571e-01 1.538738916650993173e-03
3.551487118358572843e+03 2.880392139015640618e-01 1.702596121260644118e-03
3.555038605476932389e+03 2.895557091283955109e-01 1.813098201304277034e-03
3.558593644082410719e+03 2.921489069902852842e-01 1.828108522642095781e-03
3.562152237726494150e+03 2.956533134289973108e-01 1.748972883906496287e-03
3.565714389964221937e+03 2.997279935245403815e-01 1.612518991514181590e-03
3.569280104354187188e+03 3.044499861171244826e-01 1.551687389694662335e-03
3.572849384458542772e+03 3.094885095735570024e-01 1.497308050128640751e-03
3.576422233843002232e+03 3.146627277590696714e-01 1.515197876952754149e-03
3.579998656076846601e+03 3.210348408561349287e-01 1.536417654172178441e-03
3.583578654732924406e+03 3.274639498519897884e-01 1.647208164656363679e-03
3.587162233387658489e+03 3.342978207124000511e-01 1.567686018271725922e-03
3.590749395621047370e+03 3.406817958949983627e-01 1.532747349946970376e-03
3.594340145016669794e+03 3.459246399243875447e-01 1.532029085460565130e-03
3.597934485161687462e+03 3.506003969298965850e-01 1.511658834611617590e-03
3.601532419646850485e+03 3.548823698790457559e-01 1.507569078072213244e-03
3.605133952066498296e+03 3.586030297941765754e-01 1.506518859242326905e-03
3.608739086018566013e+03 3.617455576839646580e-01 1.555495434332760567e-03
3.612347825104585809e+03 3.643375136750025556e-01 1.566974492384748049e-03
3.615960172929691907e+03 3.662338441129746047e-01 1.651325137908319024e-03
3.619576133102622407e+03 3.676699511111816143e-01 1.804704145528988890e-03
3.623195709235726554e+03 3.684080686947016070e-01 1.959849798495788206e-03
3.626818904944963379e+03 3.700209675015312394e-01 1.955670078245614913e-03
3.630445723849909427e+03 3.719670474869425925e-01 1.976479436457176560e-03
3.634076169573760581e+03 3.735232265364042958e-01 2.009987561069827722e-03
3.637710245743335690e+03 3.747965539648838162e-01 2.073167709669983694e-03
3.641347955989080219e+03 3.756356646482158501e-01 2.180215967746702323e-03
3.644989303945070333e+03 3.764615930690112244e-01 2.476558735447121837e-03
3.648634293249016537e+03 3.760782934925654408e-01 2.560667434162198792e-03
3.652282927542266862e+03 3.755115545511973352e-01 2.573488428271159499e-03
3.655935210469810499e+03 3.750877743735819836e-01 2.477861330081052374e-03
3.659591145680281443e+03 3.747936266508898329e-01 2.568984592014457707e-03
3.663250736825963031e+03 3.736847076160835224e-01 2.957958705311796929e-03
3.666913987562790226e+03 3.726594958540699887e-01 3.437992343105810648e-03
3.670580901550354156e+03 3.720866333376706137e-01 3.847453156873608098e-03
3.674251482451905758e+03 3.727199528278656859e-01 3.874961062940801993e-03
3.677925733934358959e+03 3.744741381333437924e-01 3.559162428647301944e-03
3.681603659668294313e+03 3.780680566153051259e-01 3.104376721936666101e-03
3.685285263327964003e+03 3.825388588127754397e-01 2.861438021978864911e-03
3.688970548591293209e+03 3.900439072402383522e-01 3.043850358452334075e-03
3.692659519139885560e+03 3.990447930207214888e-01 3.368957620769079484e-03
3.696352178659026777e+03 4.093110933518583905e-01 3.652309609270231339e-03
3.700048530837686940e+03 4.212328592771976132e-01 3.926921870490962183e-03
3.703748579368525952e+03 4.335040727002210659e-01 3.654724279245095617e-03
3.707452327947895355e+03 4.455277646091319599e-01 3.069385599706178809e-03
3.711159780275844696e+03 4.558630612922504044e-01 2.506897375920704839e-03
3.714870940056121526e+03 4.643266686875557325e-01 2.175979494318112679e-03
3.718585810996179134e+03 4.703857249246410355e-01 2.255102051961657781e-03
3.722304396807176545e+03 4.744970361174912221e-01 2.242835505604350802e-03
3.726026701203984885e+03 4.755714623234456040e-01 2.250702081223160834e-03
3.729752727905190113e+03 4.746985413318499103e-01 2.331607307057155607e-03
3.733482480633096657e+03 4.707038529695121709e-01 2.325056622076391525e-03
3.737215963113731050e+03 4.638068997946347416e-01 2.424848069790212085e-03
3.740953179076846027e+03 4.561574387553458676e-01 2.547258392945593326e-03
3.744694132255923705e+03 4.460462364783929767e-01 2.214193466648345984e-03
3.748438826388181042e+03 4.327442021962922269e-01 2.774124564825160375e-03
3.752187265214570289e+03 4.179585683396283002e-01 3.896965538971479924e-03
3.755939452479786269e+03 4.025316801984319404e-01 4.941489486419879500e-03
3.759695391932267285e+03 3.885347190181949739e-01 5.205226773418476262e-03
3.763455087324201031e+03 3.776865046719609653e-01 5.053411032279278917e-03
3.767218542411526414e+03 3.679220932038786973e-01 4.490047499928337058e-03
3.770985760953939007e+03 3.624940032161019787e-01 3.958731288739159374e-03
3.774756746714894234e+03 3.610295461155766938e-01 4.216829925605277384e-03
3.778531503461610555e+03 3.655986242395635188e-01 5.063549962987950320e-03
3.782310034965073100e+03 3.736091916363857846e-01 5.533699752251625137e-03
3.786092345000039586e+03 3.840001142232999376e-01 5.502011835479452342e-03
3.789878437345040766e+03 3.959029220502970903e-01 4.812953829245403270e-03
3.793668315782387253e+03 4.076594070690920391e-01 3.801407075253679293e-03
3.797461984098170888e+03 4.181908761291098231e-01 3.203652225753582904e-03
3.801259446082270188e+03 4.263249945800241525e-01 3.566675531412498261e-03
3.805060705528353537e+03 4.336709604444265453e-01 3.698177250081417788e-03
3.808865766233883278e+03 4.380630730770588288e-01 3.484289773074004341e-03
3.812674632000118436e+03 4.405594574086841853e-01 2.713994681233957221e-03
3.816487306632119726e+03 4.440967141355081638e-01 2.018848043488704561e-03
3.820303793938753188e+03 4.490839600249367236e-01 1.954002075804785014e-03
3.824124097732693372e+03 4.566996762471930427e-01 1.751651191249269579e-03
3.827948221830427428e+03 4.651186165448486509e-01 1.763591342389109369e-03
3.831776170052258749e+03 4.754278798647439963e-01 1.957701401725052588e-03
3.835607946222312421e+03 4.874131402280599268e-01 2.256877255355783842e-03
3.839443554168536139e+03 5.021582504393904411e-01 2.110441530777541069e-03
3.843282997722705659e+03 5.195621558018941322e-01 2.108717875853276160e-03
3.847126280720429804e+03 5.397177047758756618e-01 2.305307536121054598e-03
3.850973407001151372e+03 5.617934593548975508e-01 2.562347038087983263e-03
3.854824380408153957e+03 5.862668652408755676e-01 2.985834181468552135e-03
3.858679204788563311e+03 6.113688134033615773e-01 3.055217172444541548e-03
3.862537883993353262e+03 6.356081938939333043e-01 2.717525241490572913e-03
3.866400421877347981e+03 6.586940911359564499e-01 2.608482509779115263e-03
3.870266822299226533e+03 6.809972832497143136e-01 2.672243978498214240e-03
3.874137089121526969e+03 7.016080239706681265e-01 2.871590128485900558e-03
3.878011226210649966e+03 7.208720670315741375e-01 2.675073435015222229e-03
3.881889237436861549e+03 7.393131606141707390e-01 2.127021121588106110e-03
3.885771126674299921e+03 7.579480741011486167e-01 1.979838260193820306e-03
3.889656897800975457e+03 7.767726363835694148e-01 2.051562719093906213e-03
3.893546554698777527e+03 7.953165900208968297e-01 2.094016255152702111e-03
3.897440101253477678e+03 8.135932825439523564e-01 1.994507514849541870e-03
3.901337541354732366e+03 8.318326973524322598e-01 1.893352693760931788e-03
3.905238878896088409e+03 8.489589047123271559e-01 2.125832724492742517e-03
3.909144117774985716e+03 8.662792953298139587e-01 2.125372162140085584e-03
3.913053261892762293e+03 8.819469582977350619e-01 2.009098814892070015e-03
3.916966315154656058e+03 8.969739110002400428e-01 2.453717654599661159e-03
3.920883281469812118e+03 9.105463046890143186e-01 2.751783651602703051e-03
3.924804164751283224e+03 9.213993330822450867e-01 2.953430808642002695e-03
3.928728968916035683e+03 9.298397095711287141e-01 2.536758138001244615e-03
3.932657697884953450e+03 9.351243147965617730e-01 2.273890943921854074e-03
3.936590355582839493e+03 9.369666214754474032e-01 2.914411605706275499e-03
3.940526945938423523e+03 9.364620293593323153e-01 3.367767216984532148e-03
3.944467472884363360e+03 9.356666158589148630e-01 3.306781584356201405e-03
3.948411940357249023e+03 9.349325400673624831e-01 2.742171254383809868e-03
3.952360352297607733e+03 9.356677634688098655e-01 2.323421289545406741e-03
3.956312712649906643e+03 9.383345952109045651e-01 2.359812214363929146e-03
3.960269025362557841e+03 9.430702924444009927e-01 2.413485721663291995e-03
3.964229294387921527e+03 9.502083076516812943e-01 2.245719992761710266e-03
3.968193523682310570e+03 9.594595679745866468e-01 1.940575053846471274e-03
3.972161717205994591e+03 9.702531584843329115e-01 1.864213804486374634e-03
3.976133878923201792e+03 9.818942459486027508e-01 1.893075731225849758e-03
3.980110012802126221e+03 9.942233176992788524e-01 1.796854305868275008e-03
3.984090122814929600e+03 1.007600341322068438e+00 2.066113278807733041e-03
3.988074212937745870e+03 1.019849371471235555e+00 2.186192834180434360e-03
3.992062287150684824e+03 1.031696839993526016e+00 2.408645573647369247e-03
3.996054349437837118e+03 1.041759169400046980e+00 2.416576479884107419e-03
4.000050403787276082e+03 1.049805557577246251e+00 1.987356348652548257e-03
4.004050454191064546e+03 1.053429948871262400e+00 1.748708871702676264e-03
4.008054504645257111e+03 1.053258523662501167e+00 1.839301150564411633e-03
4.012062559149903791e+03 1.048455155828485585e+00 2.222706515854920920e-03
4.016074621709055009e+03 1.040110804075132567e+00 2.058350261063517182e-03
4.020090696330765240e+03 1.029414696972350551e+00 1.594723956746835983e-03
4.024110787027097558e+03 1.016440960781443970e+00 1.240815506412554399e-03
4.028134897814125907e+03 1.001995299077802493e+00 1.287985258731587975e-03
4.032163032711941469e+03 9.861428664786644482e-01 1.368822083139912063e-03
4.036195195744654484e+03 9.679763787144329834e-01 1.292501520859375532e-03
4.040231390940400615e+03 9.481517555140208664e-01 1.215788709738464595e-03
4.044271622331342314e+03 9.266450231425420458e-01 1.204798370709319992e-03
4.048315893953675186e+03 9.034876605399869698e-01 1.217774485989090143e-03
4.052364209847629809e+03 8.779642372397366001e-01 1.229349755320066498e-03
4.056416574057479011e+03 8.507933462044715567e-01 1.253530812898064279e-03
4.060472990631537868e+03 8.221642866482937739e-01 1.236255366883945439e-03
4.064533463622170530e+03 7.915789258002422502e-01 1.250755482788405487e-03
4.068597997085794304e+03 7.606408374100750436e-01 1.331433721397129672e-03
4.072666595082881486e+03 7.297411491022529617e-01 1.666694479309420527e-03
4.076739261677965715e+03 7.005070330384290944e-01 1.787933514047960245e-03
4.080816000939644709e+03 6.721296363014906960e-01 1.674440177541443482e-03
4.084896816940585722e+03 6.469585167619831267e-01 1.609063460457053549e-03
4.088981713757527814e+03 6.244510794532407427e-01 1.189465389282813894e-03
4.093070695471286854e+03 6.060807607220733972e-01 1.198577806375224339e-03
4.097163766166759160e+03 5.919566348732577810e-01 1.376922036098015027e-03
4.101260929932927866e+03 5.813457431163078226e-01 1.342398948062801514e-03
4.105362190862862008e+03 5.742317451887920532e-01 1.155279057277148460e-03
4.109467553053726078e+03 5.706749281057150736e-01 9.137625765627423570e-04
4.113577020606780934e+03 5.691786515504120292e-01 1.016485375718505484e-03
4.117690597627389252e+03 5.705456731609240828e-01 9.739742470546245432e-04
4.121808288225018259e+03 5.744315257339920322e-01 1.184071297873021686e-03
4.125930096513244280e+03 5.797073758311980241e-01 1.465526833426805849e-03
4.130056026609759101e+03 5.855909171119754175e-01 1.795805113964567528e-03
4.134186082636369974e+03 5.915949317330621016e-01 1.931674660950130542e-03
4.138320268719007800e+03 5.965543878759275165e-01 1.668039531294983769e-03
4.142458588987728035e+03 5.993042786239158870e-01 1.434353634888132709e-03
4.146601047576717065e+03 6.001762735089077871e-01 1.351224753637116083e-03
4.150747648624294925e+03 5.984249041831800620e-01 1.618613640385782463e-03
4.154898396272920763e+03 5.953135871474469765e-01 1.716330257489551668e-03
4.159053294669195566e+03 5.904014101069492426e-01 1.618325783572475019e-03
4.163212347963865795e+03 5.849393712815914581e-01 1.350420591295173160e-03
4.167375560311830668e+03 5.801598918699633067e-01 7.770822648269969319e-04
4.171542935872143971e+03 5.769967089890299938e-01 6.118817972747783067e-04
4.175714478808017702e+03 5.754375114423707638e-01 6.391581485028453510e-04
4.179890193286827525e+03 5.761126991241236617e-01 6.620281570623329183e-04
4.184070083480115500e+03 5.782852091534712580e-01 7.063451316296631569e-04
4.188254153563597356e+03 5.827332609121385065e-01 6.771161126527648969e-04
4.192442407717161586e+03 5.886493696588890323e-01 6.401585860203577207e-04
4.196634850124880359e+03 5.963597616571988391e-01 7.563808747234318898e-04
4.200831484975006788e+03 6.053420671503613182e-01 9.986191415197517157e-04
4.205032316459983122e+03 6.146085845217096333e-01 1.142227621732174641e-03
4.209237348776444378e+03 6.241221016911762121e-01 1.379852939878137546e-03
4.213446586125221984e+03 6.328291457312223978e-01 1.375677375581396342e-03
4.217660032711349231e+03 6.394120257722706313e-01 1.126183687752006172e-03
4.221877692744061278e+03 6.428762465162370932e-01 1.111776602213786517e-03
4.226099570436806971e+03 6.443253788102596413e-01 1.089946479988978308e-03
4.230325670007245208e+03 6.428648255519938681e-01 1.526809169842046959e-03
4.234555995677254032e+03 6.398450621724244280e-01 1.898270886037112032e-03
4.238790551672932452e+03 6.355854519063197650e-01 1.891370423179442950e-03
4.243029342224606808e+03 6.314183150942239697e-01 1.444369502894771867e-03
4.247272371566832589e+03 6.279959537302667316e-01 1.193056587743874034e-03
4.251519643938400804e+03 6.258352688901148708e-01 1.242519058543336717e-03
4.255771163582340705e+03 6.245662574680921342e-01 1.324454513331097547e-03
4.260026934745924336e+03 6.246772204372940118e-01 1.194727332523841824e-03
4.264286961680671993e+03 6.257380781280945659e-01 1.179655062959399569e-03
4.268551248642354039e+03 6.275100089343366161e-01 1.048871856048395846e-03
4.272819799890998183e+03 6.299252024465269439e-01 9.783349838367585635e-04
4.277092619690890388e+03 6.327275216622266774e-01 9.675188693154059038e-04
4.281369712310583054e+03 6.352194217722680891e-01 9.597061832984865809e-04
4.285651082022895025e+03 6.373011043834250211e-01 8.606086287690038880e-04
4.289936733104918858e+03 6.400237867794162927e-01 1.336817380547768120e-03
4.294226669838025373e+03 6.420077398591143014e-01 1.388794380978562119e-03
4.298520896507864563e+03 6.427224310310509781e-01 1.306851901222006026e-03
4.302819417404373780e+03 6.423745165964503956e-01 1.408500970529183742e-03
4.307122236821779552e+03 6.419987061109808657e-01 1.425032438480434809e-03
4.311429359058603040e+03 6.406025442758873645e-01 1.547782702904687080e-03
4.315740788417662770e+03 6.390662258914957539e-01 1.495837120777290807e-03
4.320056529206081905e+03 6.379135960487086754e-01 1.244508931005674102e-03
4.324376585735290064e+03 6.376739410727659818e-01 1.121529744805042526e-03
4.328700962321026054e+03 6.382891809516215709e-01 9.963454504559794180e-04
4.333029663283348782e+03 6.405242580691140608e-01 9.912970677164857723e-04
4.337362692946633615e+03 6.440501216526290928e-01 1.024431199077637748e-03
4.341700055639581478e+03 6.484819950068652084e-01 1.110628133660796196e-03
4.346041755695222491e+03 6.542182218291093809e-01 1.431060802820653330e-03
4.350387797450919606e+03 6.587523387867781910e-01 1.365874739026882220e-03
4.354738185248371337e+03 6.626926657620160199e-01 1.226761935167501203e-03
4.359092923433621763e+03 6.653770659180560099e-01 1.274371448793472491e-03
4.363452016357056891e+03 6.667873615416211042e-01 1.330148867351054007e-03
4.367815468373414660e+03 6.677093573254498926e-01 1.267501856803201609e-03
4.372183283841789489e+03 6.690047137730361637e-01 1.251024775973733722e-03
4.376555467125633186e+03 6.690450323557030066e-01 1.247138467770059732e-03
4.380932022592760404e+03 6.681572079112900742e-01 1.192509238194389360e-03
4.385312954615354101e+03 6.670740669872329276e-01 1.149507448705087325e-03
4.389698267569970994e+03 6.658952739297984147e-01 1.165040285885202012e-03
4.394087965837542470e+03 6.649863704250602581e-01 1.183218922623372220e-03
4.398482053803381859e+03 6.650350189080348473e-01 1.186886956306043529e-03
4.402880535857186260e+03 6.663758931585171963e-01 1.156645811643713375e-03
4.407283416393044718e+03 6.684652511909688899e-01 1.155886676916561715e-03
4.411690699809440048e+03 6.714690165909175112e-01 1.131062942311260007e-03
4.416102390509250654e+03 6.755699931550076531e-01 1.021511912051281190e-03
4.420518492899761441e+03 6.816300733210380880e-01 1.088105900266581353e-03
4.424939011392662906e+03 6.894862120884382994e-01 1.230045679623847574e-03
4.429363950404056595e+03 6.995986307303794227e-01 9.005264286028486507e-04
4.433793314354462382e+03 7.101705369081977581e-01 9.154565662118274629e-04
4.438227107668818462e+03 7.223591843087645570e-01 1.061510977188451135e-03
4.442665334776488635e+03 7.357160861699452159e-01 1.323309292927536771e-03
4.447108000111265937e+03 7.514044256946097455e-01 1.191364421210676025e-03
4.451555108111379013e+03 7.696685126407820654e-01 1.047474818326383280e-03
4.456006663219492111e+03 7.907735842213495792e-01 1.029483438649127312e-03
4.460462669882713271e+03 8.140472855376810202e-01 1.001670349924966034e-03
4.464923132552597053e+03 8.397825549862085737e-01 1.111859665578752033e-03
4.469388055685150903e+03 8.674912818097988421e-01 1.129716121158446567e-03
4.473857443740837880e+03 8.961201067256205910e-01 1.113839344117545588e-03
4.478331301184580298e+03 9.255493964644834204e-01 1.066875213102112894e-03
4.482809632485766087e+03 9.553345360557925492e-01 1.002458688880033437e-03
4.487292442118253348e+03 9.845332089230377504e-01 7.771699498245610970e-04
4.491779734560373072e+03 1.011821027998602629e+00 7.227531727752600516e-04
4.496271514294934605e+03 1.037399012645526586e+00 7.255360070058918930e-04
4.500767785809231100e+03 1.061017030635849956e+00 6.473005339116672235e-04
4.505268553595042249e+03 1.083295004058744126e+00 7.851305525704692931e-04
4.509773822148638828e+03 1.104435112155902621e+00 8.718576779122506112e-04
4.514283595970789065e+03 1.124724401391468342e+00 9.454987212043153635e-04
