# starting wavelength: 3175.540
# ending wavelength: 9061.200
# wav flux eflux
3.178539725089442527e+03 1.545509299071616383e+00 5.587094655791537134e-02
3.181718264814533086e+03 1.475038449045659839e+00 4.113834888489698721e-02
3.184899983079348658e+03 1.423540961927758142e+00 3.018479419916382175e-02
3.188084883062429071e+03 1.387729279893320511e+00 2.293544104206391571e-02
3.191272967945492383e+03 1.359830598750825459e+00 1.805908550086408534e-02
3.194464240913438971e+03 1.344878751368880021e+00 1.422697509184668412e-02
3.197658705154353811e+03 1.337762483185526818e+00 1.162839277488434721e-02
3.200856363859509202e+03 1.335886197043822277e+00 9.893329172581089362e-03
3.204057220223369768e+03 1.337355783684801125e+00 9.273262543105649860e-03
3.207261277443593826e+03 1.339963919357639588e+00 9.365548084738399906e-03
3.210468538721038840e+03 1.343575702396329508e+00 8.567207465562958271e-03
3.213679007259760965e+03 1.348920279585289483e+00 7.746048537506433629e-03
3.216892686267021418e+03 1.356166375072654695e+00 7.047402209207162364e-03
3.220109578953289656e+03 1.366319655112508302e+00 6.450230206852951807e-03
3.223329688532243836e+03 1.377836129045136637e+00 6.070358040247322493e-03
3.226553018220777176e+03 1.390425594195659587e+00 5.737164827341084856e-03
3.229779571238999324e+03 1.403284600585032793e+00 5.511345135063106492e-03
3.233009350810239084e+03 1.418028048801812657e+00 5.322994220906084387e-03
3.236242360161050783e+03 1.433197166197358374e+00 5.200721036565363747e-03
3.239478602521212906e+03 1.448172169426843903e+00 5.236541381632602195e-03
3.242718081123734919e+03 1.461878819340360014e+00 5.208466106914192914e-03
3.245960799204859995e+03 1.476004883310116034e+00 5.620060369983232926e-03
3.249206760004065927e+03 1.487817763943175331e+00 5.980729982810534077e-03
3.252455966764071036e+03 1.497180184516333057e+00 6.008780788713280474e-03
3.255708422730835991e+03 1.506615068928248480e+00 6.200876918147357753e-03
3.258964131153567905e+03 1.514194067866926119e+00 6.117423078030367195e-03
3.262223095284722604e+03 1.519304026003612584e+00 5.672087311246330060e-03
3.265485318380008266e+03 1.521579910702534510e+00 5.138834233074950943e-03
3.268750803698389518e+03 1.520393781304320902e+00 5.303409732230225486e-03
3.272019554502088795e+03 1.516681611538776009e+00 6.059164765606464206e-03
3.275291574056592253e+03 1.508530943490832277e+00 7.233040466474056907e-03
3.278566865630649772e+03 1.499871560747755073e+00 7.531289685525906046e-03
3.281845432496281319e+03 1.492540532265632658e+00 7.490176946617628333e-03
3.285127277928778767e+03 1.482207091428824119e+00 7.789811775974752120e-03
3.288412405206708627e+03 1.472280803385674686e+00 7.559180806233870877e-03
3.291700817611916591e+03 1.462873797109266683e+00 7.193164152577560984e-03
3.294992518429529355e+03 1.454774861373739681e+00 6.600134007444970544e-03
3.298287510947960072e+03 1.447954608896900197e+00 5.753339852154391865e-03
3.301585798458909267e+03 1.443425577129515247e+00 4.981417211343121959e-03
3.304887384257369376e+03 1.442443024288792452e+00 5.213249009328091779e-03
3.308192271641627485e+03 1.446361420785698293e+00 6.040670036399481239e-03
3.311500463913270323e+03 1.452269545283448648e+00 6.619333381726621481e-03
3.314811964377184722e+03 1.459306887039727219e+00 6.455799119463888347e-03
3.318126776341563072e+03 1.466315422183164463e+00 6.043423571845070452e-03
3.321444903117905596e+03 1.472918676703671492e+00 6.000476879299912643e-03
3.324766348021024896e+03 1.481174855550321467e+00 5.937643331476801997e-03
3.328091114369046863e+03 1.491060823592800899e+00 5.730199475959905225e-03
3.331419205483417045e+03 1.501714674829852658e+00 5.635902327250497459e-03
3.334750624688901553e+03 1.513596513751386485e+00 5.538198980508190518e-03
3.338085375313591612e+03 1.526086750271704595e+00 5.457208006791828235e-03
3.341423460688906289e+03 1.537075817980841475e+00 5.607803574225660691e-03
3.344764884149596128e+03 1.547006950836891770e+00 5.471011536373023704e-03
3.348109649033746791e+03 1.557308469132923978e+00 5.420905230662336621e-03
3.351457758682781787e+03 1.566818317723975840e+00 5.266621339888564318e-03
3.354809216441465651e+03 1.576123206815529088e+00 5.189653414251377793e-03
3.358164025657908041e+03 1.584665674945470393e+00 5.102609434308853775e-03
3.361522189683567376e+03 1.594263397073776289e+00 5.130083920437675422e-03
3.364883711873251741e+03 1.602069086172201562e+00 5.268232291254445337e-03
3.368248595585126168e+03 1.611771119125313900e+00 4.791440190465169786e-03
3.371616844180712633e+03 1.620446695039617246e+00 4.501133232793398317e-03
3.374988461024894150e+03 1.628121729559845576e+00 4.478511102524480349e-03
3.378363449485920228e+03 1.635102151217602495e+00 4.561778479805935274e-03
3.381741812935407324e+03 1.641397179101305559e+00 4.592177077313280148e-03
3.385123554748343849e+03 1.646812570335744130e+00 4.552494188748679692e-03
3.388508678303093347e+03 1.651195122440562546e+00 4.498591192394917407e-03
3.391897186981397681e+03 1.655441844877176161e+00 4.505798311700615066e-03
3.395289084168380214e+03 1.657504381132858473e+00 4.323558446904862858e-03
3.398684373252549449e+03 1.660627176605034672e+00 4.248935822292901864e-03
3.402083057625803121e+03 1.661684355165116811e+00 4.044237681956991751e-03
3.405485140683430018e+03 1.663697527328733994e+00 4.146221060081228468e-03
3.408890625824114522e+03 1.665785184339732661e+00 4.496386001549211066e-03
3.412299516449939802e+03 1.668224293559828597e+00 4.647816860190097030e-03
3.415711815966390986e+03 1.670548035111744545e+00 4.444581960168558776e-03
3.419127527782358356e+03 1.673524513743249065e+00 3.485591476326751603e-03
3.422546655310141887e+03 1.675105321247814416e+00 2.172509870445413650e-03
3.425969201965453522e+03 1.671284939689132720e+00 2.839241360341633862e-03
3.429395171167419903e+03 1.665716119764555136e+00 3.498597494972338282e-03
3.432824566338588284e+03 1.660344345397077648e+00 3.917026308812876847e-03
3.436257390904928343e+03 1.654072200740342780e+00 3.948807027267179325e-03
3.439693648295834464e+03 1.648027704668389992e+00 3.892028322550063982e-03
3.443133341944131189e+03 1.643386271352595074e+00 3.789848993628570223e-03
3.446576475286076402e+03 1.639323759508945599e+00 3.498166619639502938e-03
3.450023051761363604e+03 1.636280980953481734e+00 2.921422854627202248e-03
3.453473074813126004e+03 1.635296091659238948e+00 2.711381071028918111e-03
3.456926547887940615e+03 1.637040933870910431e+00 3.129291593335892761e-03
3.460383474435829612e+03 1.639038967629980359e+00 3.245060429242955114e-03
3.463843857910266706e+03 1.644080290527021537e+00 3.870394565185169590e-03
3.467307701768178049e+03 1.648870651876312099e+00 3.793831998491513542e-03
3.470775009469947236e+03 1.654157617670467983e+00 3.690958131378911482e-03
3.474245784479418489e+03 1.660166397651567038e+00 3.562123018904182412e-03
3.477720030263898934e+03 1.666588457004981150e+00 3.704806908520292576e-03
3.481197750294164052e+03 1.674434253136403816e+00 3.712517855895295423e-03
3.484678948044459503e+03 1.680508388970051614e+00 3.600374832112119162e-03
3.488163626992504760e+03 1.683165276225103035e+00 3.201909775977669018e-03
3.491651790619498570e+03 1.681622364018761084e+00 3.211891754588282622e-03
3.495143442410119405e+03 1.675930911349668095e+00 3.808081277055020471e-03
3.498638585852530468e+03 1.666651562952415455e+00 4.667173931114837297e-03
3.502137224438384237e+03 1.657695337261055002e+00 5.075668115451288480e-03
3.505639361662823831e+03 1.648037787648870545e+00 5.104424837418202257e-03
3.509145001024487556e+03 1.638355146388163819e+00 4.982179760060106641e-03
3.512654146025513455e+03 1.629825474639186922e+00 4.778058895866927475e-03
3.516166800171540217e+03 1.623253203399852573e+00 5.045089855290233599e-03
3.519682966971712631e+03 1.616841786750346177e+00 5.111645336035037200e-03
3.523202649938685681e+03 1.609154381097018804e+00 5.264741604863643412e-03
3.526725852588625457e+03 1.602585163288857917e+00 5.240958361214342713e-03
3.530252578441215064e+03 1.597227355809073712e+00 5.241409522853900625e-03
3.533782831019657806e+03 1.593218277612872269e+00 5.255706103469684823e-03
3.537316613850678550e+03 1.590734117762407918e+00 5.284076787273941749e-03
3.540853930464530094e+03 1.590994603208742086e+00 5.455645446532932444e-03
3.544394784394995895e+03 1.591843653787450963e+00 5.472092663775518506e-03
3.547939179179392340e+03 1.595079594149722224e+00 5.450631770499976374e-03
3.551487118358572843e+03 1.598521554889979157e+00 5.569162031031475897e-03
3.555038605476932389e+03 1.605007540233106544e+00 5.500070017518021888e-03
3.558593644082410719e+03 1.611646981537382395e+00 5.494341594666520695e-03
3.562152237726494150e+03 1.617212849355215809e+00 4.951191023865898592e-03
3.565714389964221937e+03 1.624312917554840086e+00 4.811523900199491180e-03
3.569280104354187188e+03 1.634189837305797699e+00 6.191607965843939562e-03
3.572849384458542772e+03 1.643962403402469130e+00 6.623638301641695397e-03
3.576422233843002232e+03 1.652615984606186306e+00 6.083360713806049321e-03
3.579998656076846601e+03 1.661601959778709059e+00 5.163215059107170192e-03
3.583578654732924406e+03 1.667551656971701934e+00 5.062784377549811587e-03
3.587162233387658489e+03 1.671323627242884635e+00 5.873883111082463422e-03
3.590749395621047370e+03 1.672354413584139277e+00 7.035400438440988190e-03
3.594340145016669794e+03 1.672027019946239257e+00 7.440264500104064316e-03
3.597934485161687462e+03 1.670049664476022100e+00 6.517628040920390477e-03
3.601532419646850485e+03 1.673414125971116384e+00 5.776628814147282374e-03
3.605133952066498296e+03 1.681943341658530544e+00 7.579056334432106821e-03
3.608739086018566013e+03 1.690906455558377486e+00 8.661311063682227557e-03
3.612347825104585809e+03 1.697607891271636804e+00 9.144463206644646083e-03
3.615960172929691907e+03 1.702651343624948632e+00 9.249543434843889023e-03
3.619576133102622407e+03 1.704989941492749184e+00 8.875133749707771885e-03
3.623195709235726554e+03 1.703604470067366705e+00 8.483458569108228570e-03
3.626818904944963379e+03 1.698991223462867683e+00 8.005050736056080335e-03
3.630445723849909427e+03 1.689963481925129463e+00 7.923578890201135594e-03
3.634076169573760581e+03 1.674979227801606019e+00 9.133025274269046187e-03
3.637710245743335690e+03 1.656337382148133974e+00 1.058704844847733681e-02
3.641347955989080219e+03 1.638083725249006140e+00 1.024691451806323747e-02
3.644989303945070333e+03 1.616711873527725052e+00 9.741387002725386546e-03
3.648634293249016537e+03 1.596963094429169505e+00 7.725820860216258031e-03
3.652282927542266862e+03 1.580681687375347533e+00 6.447234495273268182e-03
3.655935210469810499e+03 1.573001605205625264e+00 7.812245806027127634e-03
3.659591145680281443e+03 1.570367107758688041e+00 8.504366623445459503e-03
3.663250736825963031e+03 1.568176713660998312e+00 7.691601836637538929e-03
3.666913987562790226e+03 1.565507836650727125e+00 6.496823428065908769e-03
3.670580901550354156e+03 1.562376691638766912e+00 5.607207706370117249e-03
3.674251482451905758e+03 1.555445839798141661e+00 7.247780045828097067e-03
3.677925733934358959e+03 1.547171221918104855e+00 8.698421483823180755e-03
3.681603659668294313e+03 1.541184442566952972e+00 8.713619702682591506e-03
3.685285263327964003e+03 1.541019270122883311e+00 7.954674945055617216e-03
3.688970548591293209e+03 1.548978989613476021e+00 8.381793029769997461e-03
3.692659519139885560e+03 1.557316797464805891e+00 8.083827707418597686e-03
3.696352178659026777e+03 1.569983556271128178e+00 8.201283464465709133e-03
3.700048530837686940e+03 1.584849734139999411e+00 8.657569814198325456e-03
3.703748579368525952e+03 1.606751941464130029e+00 9.442452094897977113e-03
3.707452327947895355e+03 1.631502683021701872e+00 9.111632207426934721e-03
3.711159780275844696e+03 1.655728078034211403e+00 7.064792012119421212e-03
3.714870940056121526e+03 1.677502821076339856e+00 5.977164909504668715e-03
3.718585810996179134e+03 1.688825438973032833e+00 7.055157851583088169e-03
3.722304396807176545e+03 1.696186714343965063e+00 7.621186685615630521e-03
3.726026701203984885e+03 1.703627985634015962e+00 6.770150182265809169e-03
3.729752727905190113e+03 1.710345725845728859e+00 5.770576520286650919e-03
3.733482480633096657e+03 1.719998387702793119e+00 8.042299174383260585e-03
3.737215963113731050e+03 1.727830684782881265e+00 9.370627349900035458e-03
3.740953179076846027e+03 1.731470050640959935e+00 9.397427984836722453e-03
3.744694132255923705e+03 1.729025194152556955e+00 8.450034142525437997e-03
3.748438826388181042e+03 1.721743903362789263e+00 8.688141815269060514e-03
3.752187265214570289e+03 1.707977373729855586e+00 1.085671644219636696e-02
3.755939452479786269e+03 1.693817073806469731e+00 1.114843511388838478e-02
3.759695391932267285e+03 1.682200389351645509e+00 1.101742648851008338e-02
3.763455087324201031e+03 1.671714760210834649e+00 1.064601230098677354e-02
3.767218542411526414e+03 1.668172537940832312e+00 1.022719703419549230e-02
3.770985760953939007e+03 1.668973662718924222e+00 8.743807889458858271e-03
3.774756746714894234e+03 1.678307621031396302e+00 9.097989633647269106e-03
3.778531503461610555e+03 1.697118305772047142e+00 9.962156246608431381e-03
3.782310034965073100e+03 1.721591030684912704e+00 9.452344675978115174e-03
3.786092345000039586e+03 1.746930485699679680e+00 7.915371228931912528e-03
3.789878437345040766e+03 1.767200301829173981e+00 5.070584599548895281e-03
3.793668315782387253e+03 1.779075886751415148e+00 3.616195282574952152e-03
3.797461984098170888e+03 1.777676094074124968e+00 5.413611279355075995e-03
3.801259446082270188e+03 1.769595236591789300e+00 5.727148223914748336e-03
3.805060705528353537e+03 1.756935460306563002e+00 4.137136507400628049e-03
3.808865766233883278e+03 1.744329734560084333e+00 4.067608937416388772e-03
3.812674632000118436e+03 1.729478928812498539e+00 4.016672534933088054e-03
3.816487306632119726e+03 1.713033034275867283e+00 5.074320228585228222e-03
3.820303793938753188e+03 1.697257123221435737e+00 5.913936480058907402e-03
3.824124097732693372e+03 1.686991414445312421e+00 5.785613067686872814e-03
3.827948221830427428e+03 1.682941617994712757e+00 5.111063482449983500e-03
3.831776170052258749e+03 1.689477827968350443e+00 5.391296101284504504e-03
3.835607946222312421e+03 1.701283208988848106e+00 5.673508705676138901e-03
3.839443554168536139e+03 1.718472222638441016e+00 5.850871430303700334e-03
3.843282997722705659e+03 1.741367151804506186e+00 6.244309384340437918e-03
3.847126280720429804e+03 1.764113892472791489e+00 6.412613809449906575e-03
3.850973407001151372e+03 1.786554483382599257e+00 6.378017737186244054e-03
3.854824380408153957e+03 1.807400229930274049e+00 6.317549600234756424e-03
3.858679204788563311e+03 1.825392278167076165e+00 6.047992530470736212e-03
3.862537883993353262e+03 1.833927353261870952e+00 5.305642186264523941e-03
3.866400421877347981e+03 1.832129282667265713e+00 5.231261842700858818e-03
3.870266822299226533e+03 1.817361407823175456e+00 6.220272405819010121e-03
3.874137089121526969e+03 1.798269177509330463e+00 5.972909280537017432e-03
3.878011226210649966e+03 1.777860816173276737e+00 6.022214465209814807e-03
3.881889237436861549e+03 1.758505957664299180e+00 6.360809212827603018e-03
3.885771126674299921e+03 1.742289278725044355e+00 6.391148416376682406e-03
3.889656897800975457e+03 1.724668857449338510e+00 6.120576416740018330e-03
3.893546554698777527e+03 1.712955834025825075e+00 5.366047248271724884e-03
3.897440101253477678e+03 1.709284117094036937e+00 4.994449470317627489e-03
3.901337541354732366e+03 1.716722041127618059e+00 6.443029136944763112e-03
3.905238878896088409e+03 1.732347918900436268e+00 7.790393431475499918e-03
3.909144117774985716e+03 1.748030356808939700e+00 7.157656914083399338e-03
3.913053261892762293e+03 1.763247272685763534e+00 6.490426231016230112e-03
3.916966315154656058e+03 1.778412442205457022e+00 5.917325238610821395e-03
3.920883281469812118e+03 1.790410046228668062e+00 5.957975274729183750e-03
3.924804164751283224e+03 1.800028937112445826e+00 5.781062573695051540e-03
3.928728968916035683e+03 1.807828418075097865e+00 5.744344717678037844e-03
3.932657697884953450e+03 1.815668620575677128e+00 5.769466299184252030e-03
3.936590355582839493e+03 1.818374383842731978e+00 5.670306879422325717e-03
3.940526945938423523e+03 1.813583327890620600e+00 6.149971192691205610e-03
3.944467472884363360e+03 1.805050273251132431e+00 7.010500102232987939e-03
3.948411940357249023e+03 1.799308338063731139e+00 7.063510814850980368e-03
3.952360352297607733e+03 1.796518167120180420e+00 6.976976670511012349e-03
3.956312712649906643e+03 1.795706110869893513e+00 7.014365307745996057e-03
3.960269025362557841e+03 1.797654960406842362e+00 6.826142254190094641e-03
3.964229294387921527e+03 1.797143158189066892e+00 6.667315661062926668e-03
3.968193523682310570e+03 1.798511778103964343e+00 6.504764367889115557e-03
3.972161717205994591e+03 1.800839705974759841e+00 6.508964518749754853e-03
3.976133878923201792e+03 1.808762682419305046e+00 6.920301407336656822e-03
3.980110012802126221e+03 1.814777458399010612e+00 5.418733462735887164e-03
3.984090122814929600e+03 1.815344813726637474e+00 5.653775832932657515e-03
3.988074212937745870e+03 1.813878280934796194e+00 5.790317728559392189e-03
3.992062287150684824e+03 1.808924682540362650e+00 5.762512563490683817e-03
3.996054349437837118e+03 1.802320163580769519e+00 5.343032719838150188e-03
4.000050403787276082e+03 1.795392564532662716e+00 5.499731646272563133e-03
4.004050454191064546e+03 1.787433016226205762e+00 5.908362632556360058e-03
4.008054504645257111e+03 1.780464433394222779e+00 5.333061069838347830e-03
4.012062559149903791e+03 1.770837643610219780e+00 5.277549725451064974e-03
4.016074621709055009e+03 1.757384835509617327e+00 7.517036390915187750e-03
4.020090696330765240e+03 1.745864490371401789e+00 7.880844068221292895e-03
4.024110787027097558e+03 1.743045699580718866e+00 7.473513857073794953e-03
4.028134897814125907e+03 1.746784630239376357e+00 7.612473168272900631e-03
4.032163032711941469e+03 1.753387363759451478e+00 7.549805238155888817e-03
4.036195195744654484e+03 1.763993124695277803e+00 7.504524545076266505e-03
4.040231390940400615e+03 1.778896005341437991e+00 8.386938393181294846e-03
4.044271622331342314e+03 1.796467026555779611e+00 9.502746962733048947e-03
4.048315893953675186e+03 1.812711712822546728e+00 9.091368249374095004e-03
4.052364209847629809e+03 1.826741961554082749e+00 6.596963231668486437e-03
4.056416574057479011e+03 1.832863095897871553e+00 5.718317746534562138e-03
4.060472990631537868e+03 1.828291168627975027e+00 6.451920336461440184e-03
4.064533463622170530e+03 1.817999236836932431e+00 6.477958764422334266e-03
4.068597997085794304e+03 1.798778597241116994e+00 5.773697358169942000e-03
4.072666595082881486e+03 1.773350991534541787e+00 5.235296999884642491e-03
4.076739261677965715e+03 1.747553195343709342e+00 5.089728685269099238e-03
4.080816000939644709e+03 1.721806015530479295e+00 5.240346911721836809e-03
4.084896816940585722e+03 1.697551690039543537e+00 5.762409360350047999e-03
4.088981713757527814e+03 1.674481679395967149e+00 6.071392120686660426e-03
4.093070695471286854e+03 1.653937659399563831e+00 5.103379034562319054e-03
4.097163766166759160e+03 1.640277188989541335e+00 4.666426578002575917e-03
4.101260929932927866e+03 1.637277530902023992e+00 4.923777878898409621e-03
4.105362190862862008e+03 1.638565223040817864e+00 4.815035394207387714e-03
4.109467553053726078e+03 1.641625394266962967e+00 4.684748581315316060e-03
4.113577020606780934e+03 1.650203712883053564e+00 4.591793219093349629e-03
4.117690597627389252e+03 1.664898013661542331e+00 4.087795416499368818e-03
4.121808288225018259e+03 1.684386843224914276e+00 3.709469721444474868e-03
4.125930096513244280e+03 1.702782887099294928e+00 3.558925394021356450e-03
4.130056026609759101e+03 1.720536488451240631e+00 3.829918189396800624e-03
4.134186082636369974e+03 1.736148216451247173e+00 4.042716347652071211e-03
4.138320268719007800e+03 1.745968222912162471e+00 3.966178955794779151e-03
