# starting wavelength: 3351.650
# ending wavelength: 8908.520
# wav flux eflux
3.354809216441465651e+03 5.312048688148244269e-01 2.060681742184082912e-02
3.358164025657908041e+03 5.199940811984201661e-01 1.690161795692911653e-02
3.361522189683567376e+03 5.083315085552280177e-01 1.280147025237757079e-02
3.364883711873251741e+03 4.969689739941007822e-01 9.807603893794912889e-03
3.368248595585126168e+03 4.847796866679647820e-01 7.813522638090325198e-03
3.371616844180712633e+03 4.740051853264497517e-01 6.461657178536482464e-03
3.374988461024894150e+03 4.624884189578428173e-01 5.830386004527997670e-03
3.378363449485920228e+03 4.492921450269558581e-01 4.844411172822131462e-03
3.381741812935407324e+03 4.361192064898844478e-01 4.148204137997760742e-03
3.385123554748343849e+03 4.227200531409159856e-01 3.635356294895394306e-03
3.388508678303093347e+03 4.098491634699197861e-01 3.286765908500009683e-03
3.391897186981397681e+03 3.968271001603886905e-01 2.961198012131092093e-03
3.395289084168380214e+03 3.841431487706742920e-01 2.727830730473773582e-03
3.398684373252549449e+03 3.717571653858876557e-01 2.552695904658600860e-03
3.402083057625803121e+03 3.594683981018586549e-01 2.411152628744473760e-03
3.405485140683430018e+03 3.481354713603699857e-01 2.360073556634751605e-03
3.408890625824114522e+03 3.360329336010566270e-01 2.306568287744027983e-03
3.412299516449939802e+03 3.249265846404332803e-01 2.235063678869764463e-03
3.415711815966390986e+03 3.141469219962756410e-01 2.228493376464069781e-03
3.419127527782358356e+03 3.044389707131299194e-01 2.260072529841865383e-03
3.422546655310141887e+03 2.949386031024134325e-01 2.297263928741809930e-03
3.425969201965453522e+03 2.862886812637771561e-01 2.371344949812774060e-03
3.429395171167419903e+03 2.784018987115535748e-01 2.534082412583460887e-03
3.432824566338588284e+03 2.709998066484251011e-01 2.684047201603471499e-03
3.436257390904928343e+03 2.651004126696334673e-01 2.474584058587302269e-03
3.439693648295834464e+03 2.618008290055234832e-01 2.370359807209633171e-03
3.443133341944131189e+03 2.604811172876188019e-01 2.380490211455280232e-03
3.446576475286076402e+03 2.604180324925101653e-01 2.369202542100750080e-03
3.450023051761363604e+03 2.617886512368861607e-01 2.437718971805609251e-03
3.453473074813126004e+03 2.653118975344578856e-01 2.459272867596588516e-03
3.456926547887940615e+03 2.701395309341334539e-01 2.455417953432713525e-03
3.460383474435829612e+03 2.752091267431466259e-01 2.394098499418538528e-03
3.463843857910266706e+03 2.825172573350422933e-01 2.414995898832884933e-03
3.467307701768178049e+03 2.918966270902805804e-01 2.527793568561125231e-03
3.470775009469947236e+03 3.021388526138884534e-01 2.831289387905249009e-03
3.474245784479418489e+03 3.131236192249171602e-01 3.028392568885105666e-03
3.477720030263898934e+03 3.251634110901335251e-01 2.789815740268878925e-03
3.481197750294164052e+03 3.377015436013438565e-01 2.487008375086992035e-03
3.484678948044459503e+03 3.493168044355176582e-01 2.351938184528059098e-03
3.488163626992504760e+03 3.606055315909320047e-01 2.379373301139284681e-03
3.491651790619498570e+03 3.722358437379111318e-01 2.337360691095782296e-03
3.495143442410119405e+03 3.836854110268412832e-01 2.362375648194972415e-03
3.498638585852530468e+03 3.951206328387394384e-01 2.634718158808182619e-03
3.502137224438384237e+03 4.058500722905018510e-01 2.622240983165331340e-03
3.505639361662823831e+03 4.147831690287007711e-01 2.704611366750839328e-03
3.509145001024487556e+03 4.217288091307896392e-01 2.751642592433236906e-03
3.512654146025513455e+03 4.284312842813640665e-01 2.900317179126704701e-03
3.516166800171540217e+03 4.335694395581558003e-01 3.124468898930209820e-03
3.519682966971712631e+03 4.385908493494059535e-01 3.234963147335613316e-03
3.523202649938685681e+03 4.433937452350256714e-01 3.263287791564780434e-03
3.526725852588625457e+03 4.488330726307540042e-01 3.243831942809520096e-03
3.530252578441215064e+03 4.545868563911635296e-01 3.568417710998619732e-03
3.533782831019657806e+03 4.603199679519405230e-01 3.808351154755325492e-03
3.537316613850678550e+03 4.648425148605030977e-01 3.776703787023594910e-03
3.540853930464530094e+03 4.677984568537603138e-01 3.769451233330114830e-03
3.544394784394995895e+03 4.700888832923118543e-01 3.762893067843388686e-03
3.547939179179392340e+03 4.716920969796983831e-01 3.746487762695560522e-03
3.551487118358572843e+03 4.726744403017988927e-01 3.733850056749264505e-03
3.555038605476932389e+03 4.738079958826574289e-01 3.700530530999589403e-03
3.558593644082410719e+03 4.751360129589366488e-01 3.604876173926015431e-03
3.562152237726494150e+03 4.757488215826826683e-01 3.719575666585544279e-03
3.565714389964221937e+03 4.757834290975381242e-01 3.714010937649926680e-03
3.569280104354187188e+03 4.750832979342399232e-01 3.758481827156240351e-03
3.572849384458542772e+03 4.737975222705379519e-01 3.757389072327382666e-03
3.576422233843002232e+03 4.723798495714946477e-01 3.672162510177252957e-03
3.579998656076846601e+03 4.722513340769177725e-01 3.667673802954365958e-03
3.583578654732924406e+03 4.729205915750051559e-01 3.779756751610905893e-03
3.587162233387658489e+03 4.733834125768607293e-01 3.755627372746359483e-03
3.590749395621047370e+03 4.742645407534142321e-01 3.691973389859223333e-03
3.594340145016669794e+03 4.756578673252345735e-01 3.607323708738168367e-03
3.597934485161687462e+03 4.775737403553499405e-01 3.322355906728028090e-03
3.601532419646850485e+03 4.807358988680106582e-01 3.255305655889670271e-03
3.605133952066498296e+03 4.857980573055600271e-01 3.263432786667384150e-03
3.608739086018566013e+03 4.919747280698886782e-01 2.840679470871622977e-03
3.612347825104585809e+03 4.994544976258198377e-01 2.356296601514574172e-03
3.615960172929691907e+03 5.071120977274735653e-01 2.296174053608269518e-03
3.619576133102622407e+03 5.144838858137005255e-01 2.344780206799578198e-03
3.623195709235726554e+03 5.220264957775766490e-01 2.302506813792467612e-03
3.626818904944963379e+03 5.298205868307269695e-01 2.511731035171795284e-03
3.630445723849909427e+03 5.375638251384475819e-01 2.961768696681650343e-03
3.634076169573760581e+03 5.446483458811602896e-01 3.274620549614583667e-03
3.637710245743335690e+03 5.537982979726818744e-01 2.650278662115528039e-03
3.641347955989080219e+03 5.591835549531738447e-01 2.333927483760556316e-03
3.644989303945070333e+03 5.619624067798012490e-01 2.402422933831911949e-03
3.648634293249016537e+03 5.625919584328425982e-01 2.818919332962426753e-03
3.652282927542266862e+03 5.619016024884087024e-01 3.283720575630679362e-03
3.655935210469810499e+03 5.603498624240410564e-01 3.575748197678221569e-03
3.659591145680281443e+03 5.581017516209030305e-01 3.666112903708421914e-03
3.663250736825963031e+03 5.557789599130943392e-01 3.616091969923793288e-03
3.666913987562790226e+03 5.535985859376599816e-01 3.538658926089895389e-03
3.670580901550354156e+03 5.511435058468764359e-01 3.383970448080609976e-03
3.674251482451905758e+03 5.479543383289283698e-01 3.267179205831015256e-03
3.677925733934358959e+03 5.450120490952576890e-01 3.085382943849368249e-03
3.681603659668294313e+03 5.427652811194426663e-01 3.053190966796658686e-03
3.685285263327964003e+03 5.414878732725294519e-01 3.243540124320674900e-03
3.688970548591293209e+03 5.405586143859650861e-01 3.463818023084418510e-03
3.692659519139885560e+03 5.403997855858252430e-01 3.498678729948644789e-03
3.696352178659026777e+03 5.393007513993332003e-01 3.227608926577741483e-03
3.700048530837686940e+03 5.375423490853732389e-01 2.513450604748621378e-03
3.703748579368525952e+03 5.342051649290756599e-01 1.973647979657852918e-03
3.707452327947895355e+03 5.285081683771342131e-01 1.968220667441537928e-03
3.711159780275844696e+03 5.203977789085227901e-01 1.837609197165955034e-03
3.714870940056121526e+03 5.105930528148725500e-01 1.714030263956407146e-03
3.718585810996179134e+03 4.990976745662378811e-01 1.561061885544249997e-03
3.722304396807176545e+03 4.856037085668710729e-01 1.393026772324887754e-03
3.726026701203984885e+03 4.708941434713608820e-01 1.475668876914958908e-03
3.729752727905190113e+03 4.558248692561022719e-01 1.541871107566923681e-03
3.733482480633096657e+03 4.396558899068129800e-01 1.794866925016170428e-03
3.737215963113731050e+03 4.240805158645041817e-01 1.897414948277944061e-03
3.740953179076846027e+03 4.081747635528342744e-01 2.129244516815855925e-03
3.744694132255923705e+03 3.928903371691409574e-01 2.232517084228881517e-03
3.748438826388181042e+03 3.771253710927128244e-01 1.957549853574050685e-03
3.752187265214570289e+03 3.649613895891608562e-01 1.740877561760385871e-03
3.755939452479786269e+03 3.553332270279666028e-01 1.759557488042114886e-03
3.759695391932267285e+03 3.485100724735554212e-01 2.084321838352787455e-03
3.763455087324201031e+03 3.437592123516671205e-01 2.215301579550990781e-03
3.767218542411526414e+03 3.412550038705834399e-01 2.382157640440124742e-03
3.770985760953939007e+03 3.401907616394052036e-01 2.496602746265245455e-03
3.774756746714894234e+03 3.409149733979223718e-01 2.367420431525831415e-03
3.778531503461610555e+03 3.431835017389773812e-01 2.017595012911292760e-03
3.782310034965073100e+03 3.467242891360824975e-01 1.764435598178452696e-03
3.786092345000039586e+03 3.518788676028284934e-01 1.732269624855587668e-03
3.789878437345040766e+03 3.573508158227335363e-01 1.953582472106826003e-03
3.793668315782387253e+03 3.632874407082861135e-01 2.388004773675130032e-03
3.797461984098170888e+03 3.708106433174407357e-01 2.418306839884731916e-03
3.801259446082270188e+03 3.798113508224453261e-01 1.473041873676806919e-03
3.805060705528353537e+03 3.934049078245357989e-01 1.222533782839575322e-03
3.808865766233883278e+03 4.105166467476044634e-01 1.321015798291326091e-03
3.812674632000118436e+03 4.304813316683152591e-01 1.589213385782833974e-03
3.816487306632119726e+03 4.528001750601194364e-01 1.912355966295250327e-03
3.820303793938753188e+03 4.770937326728847405e-01 2.057451545805099972e-03
3.824124097732693372e+03 5.029713525006120900e-01 1.800637023886030854e-03
3.827948221830427428e+03 5.284859467850852033e-01 1.410018962905026626e-03
3.831776170052258749e+03 5.537354527239924940e-01 1.139962028942371726e-03
3.835607946222312421e+03 5.773163706947409546e-01 1.116782496084194748e-03
3.839443554168536139e+03 5.992486691501790474e-01 9.766255408521834144e-04
3.843282997722705659e+03 6.195128559540421520e-01 9.901684087614695887e-04
3.847126280720429804e+03 6.369927126141021745e-01 1.331079347489817722e-03
3.850973407001151372e+03 6.523438929441256473e-01 1.225379885298551012e-03
3.854824380408153957e+03 6.667991183252098830e-01 1.212393507078748760e-03
3.858679204788563311e+03 6.790565911399811805e-01 1.172075451508130649e-03
3.862537883993353262e+03 6.896396643358482237e-01 1.403174111402451154e-03
3.866400421877347981e+03 7.000592427209383350e-01 1.494151689830108386e-03
3.870266822299226533e+03 7.100806367041504474e-01 1.594294643342658883e-03
3.874137089121526969e+03 7.190712470178591831e-01 1.816537921700829387e-03
3.878011226210649966e+03 7.292980942674216482e-01 1.672290600678894967e-03
3.881889237436861549e+03 7.414005698311108006e-01 1.877220268074788903e-03
3.885771126674299921e+03 7.534891342011122983e-01 1.943895099123875295e-03
3.889656897800975457e+03 7.662738532473901687e-01 2.148872580505505232e-03
3.893546554698777527e+03 7.795953058530675772e-01 2.444719493467776769e-03
3.897440101253477678e+03 7.920203869428360521e-01 2.390768307806678296e-03
3.901337541354732366e+03 8.029394146392838660e-01 2.346147498077759842e-03
3.905238878896088409e+03 8.123213531082813521e-01 2.226819173105687444e-03
3.909144117774985716e+03 8.198700334567678993e-01 2.240894592965028860e-03
3.913053261892762293e+03 8.266694563304158860e-01 2.145725797174138569e-03
3.916966315154656058e+03 8.307445070963683786e-01 2.152092042078590159e-03
3.920883281469812118e+03 8.314150163255409343e-01 2.654063824870807418e-03
3.924804164751283224e+03 8.313930384325505241e-01 2.208074345191834292e-03
3.928728968916035683e+03 8.327833763451080173e-01 2.276076605192057633e-03
3.932657697884953450e+03 8.348859057972735087e-01 2.431565246487114688e-03
3.936590355582839493e+03 8.360714914298087441e-01 2.455472491305078428e-03
3.940526945938423523e+03 8.371105411962546095e-01 2.703030937140301054e-03
3.944467472884363360e+03 8.399596001589636485e-01 2.951377490504680096e-03
3.948411940357249023e+03 8.447536233011629925e-01 2.924956028422307733e-03
3.952360352297607733e+03 8.503371636742340645e-01 2.748387596112645062e-03
3.956312712649906643e+03 8.580201607880754144e-01 3.037148428697914772e-03
3.960269025362557841e+03 8.667095470413560543e-01 3.383149371654933617e-03
3.964229294387921527e+03 8.740711635465675533e-01 3.482267102535847696e-03
3.968193523682310570e+03 8.803294106657943985e-01 3.332603595737763762e-03
3.972161717205994591e+03 8.859070132192572444e-01 3.084062407347387853e-03
3.976133878923201792e+03 8.890093174916888774e-01 3.166579228345267703e-03
3.980110012802126221e+03 8.896725522793619279e-01 3.249954862008906740e-03
3.984090122814929600e+03 8.895284265037168847e-01 3.231665220966959459e-03
3.988074212937745870e+03 8.886085300600103931e-01 3.224478855018684132e-03
3.992062287150684824e+03 8.848993428352421864e-01 3.206292156552969282e-03
3.996054349437837118e+03 8.777194836954165247e-01 2.785422776517382151e-03
4.000050403787276082e+03 8.702195331275163204e-01 3.147538664292980938e-03
4.004050454191064546e+03 8.618546970452419798e-01 2.608640387697954647e-03
4.008054504645257111e+03 8.504585740268520988e-01 2.497446509385326408e-03
4.012062559149903791e+03 8.361512320194371961e-01 3.807799517287921865e-03
4.016074621709055009e+03 8.216728309801850649e-01 3.924615066198774982e-03
4.020090696330765240e+03 8.074379316498710990e-01 3.503714316290743383e-03
4.024110787027097558e+03 7.943316208818597124e-01 3.602600598859128159e-03
4.028134897814125907e+03 7.811542063144052417e-01 3.794478099294238196e-03
4.032163032711941469e+03 7.687741979657386482e-01 3.953164281974402491e-03
4.036195195744654484e+03 7.571093159362870528e-01 3.763361290131982031e-03
4.040231390940400615e+03 7.449353182422994157e-01 3.527389744040636526e-03
4.044271622331342314e+03 7.321342976900406807e-01 3.883844432269829318e-03
4.048315893953675186e+03 7.207832814341880168e-01 4.069570562848522782e-03
4.052364209847629809e+03 7.096646030327414811e-01 4.147547112732592918e-03
4.056416574057479011e+03 6.998421223530831847e-01 3.835004807300915284e-03
4.060472990631537868e+03 6.916854370831740928e-01 3.529062428285265236e-03
4.064533463622170530e+03 6.858979934285360791e-01 3.718907294776145796e-03
4.068597997085794304e+03 6.819490654858012535e-01 4.279870308769659869e-03
4.072666595082881486e+03 6.788070602271627507e-01 4.346939408287438765e-03
4.076739261677965715e+03 6.767650838586818374e-01 3.305633468230689126e-03
4.080816000939644709e+03 6.737986726619911160e-01 2.688409586086961192e-03
4.084896816940585722e+03 6.688568109933258343e-01 3.111453290236364157e-03
4.088981713757527814e+03 6.626325128838778111e-01 2.788802768029785550e-03
4.093070695471286854e+03 6.566320149118233251e-01 2.433870656876431591e-03
4.097163766166759160e+03 6.510337820246788754e-01 2.201843707958933433e-03
4.101260929932927866e+03 6.461231416966281005e-01 2.173759202285824744e-03
4.105362190862862008e+03 6.417746428850990004e-01 2.142134522310994767e-03
4.109467553053726078e+03 6.389633565108694402e-01 2.106535858726947281e-03
4.113577020606780934e+03 6.377950565084774537e-01 1.980818355340944678e-03
4.117690597627389252e+03 6.376994753409911398e-01 1.986271415499678023e-03
4.121808288225018259e+03 6.385553538929226169e-01 1.956950479198650214e-03
4.125930096513244280e+03 6.408328582923235039e-01 1.979083592763653237e-03
4.130056026609759101e+03 6.432381307690666628e-01 1.916619173410844543e-03
4.134186082636369974e+03 6.464374043508238632e-01 1.872394604400907893e-03
4.138320268719007800e+03 6.498859788903722512e-01 1.789115521626514745e-03
4.142458588987728035e+03 6.552931888772840496e-01 1.793497605899096320e-03
4.146601047576717065e+03 6.619600959647293781e-01 1.541708728148819376e-03
4.150747648624294925e+03 6.681817827031459878e-01 1.269932706018069620e-03
4.154898396272920763e+03 6.731789434051096421e-01 1.209962188929222717e-03
4.159053294669195566e+03 6.765753610851884536e-01 1.157142935782231761e-03
4.163212347963865795e+03 6.786498538117011758e-01 1.071032628738634047e-03
4.167375560311830668e+03 6.802766744349434402e-01 1.090804178890879880e-03
4.171542935872143971e+03 6.806469468829753344e-01 1.146076373831565092e-03
4.175714478808017702e+03 6.805376937614421307e-01 1.217983627709305497e-03
4.179890193286827525e+03 6.796025958853393334e-01 1.450009890398376057e-03
4.184070083480115500e+03 6.785217756744570394e-01 1.475719110833785411e-03
4.188254153563597356e+03 6.774556348151721252e-01 1.349346924134029249e-03
4.192442407717161586e+03 6.764335239131933353e-01 1.041348644751290001e-03
4.196634850124880359e+03 6.763318808266071125e-01 1.276299851869703086e-03
4.200831484975006788e+03 6.769103881694956693e-01 1.604597829765466114e-03
4.205032316459983122e+03 6.770469271210003415e-01 1.359105608984324982e-03
4.209237348776444378e+03 6.766973344131945733e-01 1.161884456421662798e-03
4.213446586125221984e+03 6.759839161696581389e-01 1.010897656919370865e-03
4.217660032711349231e+03 6.736489203653722724e-01 1.005310377128635323e-03
4.221877692744061278e+03 6.704119337665078726e-01 1.064662380728876451e-03
4.226099570436806971e+03 6.663195305081670572e-01 1.199745580495242695e-03
4.230325670007245208e+03 6.617672208874245676e-01 1.132612894698167404e-03
4.234555995677254032e+03 6.568877013937816089e-01 1.019340458034239533e-03
4.238790551672932452e+03 6.522835409546504648e-01 9.438917359408727833e-04
4.243029342224606808e+03 6.484717305397523779e-01 8.402691829288124392e-04
4.247272371566832589e+03 6.459375825556683548e-01 8.419426986381046540e-04
4.251519643938400804e+03 6.441487514836866657e-01 8.264086892914074192e-04
4.255771163582340705e+03 6.435810158398993508e-01 8.874007950844227735e-04
4.260026934745924336e+03 6.435342851789559449e-01 1.094140172161576401e-03
4.264286961680671993e+03 6.435940269301175798e-01 1.146132219325090868e-03
4.268551248642354039e+03 6.432420375594666284e-01 1.143072778887740514e-03
4.272819799890998183e+03 6.423841509434659036e-01 1.126113180104558855e-03
4.277092619690890388e+03 6.412603745859056792e-01 9.730926208074633247e-04
4.281369712310583054e+03 6.383927446587532861e-01 6.889482878824265471e-04
4.285651082022895025e+03 6.331325692589084841e-01 7.234615170787118835e-04
4.289936733104918858e+03 6.267607889208404170e-01 7.269015137721099914e-04
4.294226669838025373e+03 6.192537252504236589e-01 6.912772489140923699e-04
4.298520896507864563e+03 6.098523357672989142e-01 8.791413475871637543e-04
4.302819417404373780e+03 5.993028867834561124e-01 1.073798444552584138e-03
4.307122236821779552e+03 5.888237933169562233e-01 1.078984409357842825e-03
4.311429359058603040e+03 5.792525708034642618e-01 1.106746254895489296e-03
4.315740788417662770e+03 5.705650510652204854e-01 1.089458714336273039e-03
4.320056529206081905e+03 5.636855375448094341e-01 9.958855543080894022e-04
4.324376585735290064e+03 5.587214949394483376e-01 1.022179881288049494e-03
4.328700962321026054e+03 5.555321822844626611e-01 1.133851008598306918e-03
4.333029663283348782e+03 5.539645452883767973e-01 1.154859568506063890e-03
4.337362692946633615e+03 5.541838359789575952e-01 1.095017836907954826e-03
4.341700055639581478e+03 5.565865024282740103e-01 9.750255405834470620e-04
4.346041755695222491e+03 5.600068967630291716e-01 9.356417348115110858e-04
4.350387797450919606e+03 5.640483707014177783e-01 9.227756896571813255e-04
4.354738185248371337e+03 5.690060853151549525e-01 9.351996855218509298e-04
4.359092923433621763e+03 5.746808718966870400e-01 9.501376299800047814e-04
4.363452016357056891e+03 5.797578516537458260e-01 9.188355312457946499e-04
4.367815468373414660e+03 5.850958375835864089e-01 8.814183835568830012e-04
