# starting wavelength: 3718.810
# ending wavelength: 7367.620
# wav flux eflux
3.722304396807176545e+03 1.397349514850727115e+00 6.474778118904653268e-02
3.726026701203984885e+03 1.438678217442346918e+00 5.421635702021761205e-02
3.729752727905190113e+03 1.472970450278729970e+00 5.568283337552550061e-02
3.733482480633096657e+03 1.485086418269775610e+00 4.552122248370075314e-02
3.737215963113731050e+03 1.477786480460036467e+00 3.639195319943235030e-02
3.740953179076846027e+03 1.456280371096489112e+00 2.950184121719056848e-02
3.744694132255923705e+03 1.424619597899076107e+00 2.403634252154252665e-02
3.748438826388181042e+03 1.388403755752493085e+00 1.965138537879220285e-02
3.752187265214570289e+03 1.350626985122254764e+00 1.673163060702898344e-02
3.755939452479786269e+03 1.315344932752831930e+00 1.456277181358150812e-02
3.759695391932267285e+03 1.287131367494984469e+00 1.334064454181196381e-02
3.763455087324201031e+03 1.267697507541945878e+00 1.293308468520668920e-02
3.767218542411526414e+03 1.259862077394234836e+00 1.403715093405305536e-02
3.770985760953939007e+03 1.261455738286361594e+00 1.532938092250150236e-02
3.774756746714894234e+03 1.268896456091509028e+00 1.578045606633561235e-02
3.778531503461610555e+03 1.284124552544957165e+00 1.659902998629367646e-02
3.782310034965073100e+03 1.306664273727855985e+00 1.804007770970788779e-02
3.786092345000039586e+03 1.324880337147144038e+00 1.800513871404958374e-02
3.789878437345040766e+03 1.357850308078977664e+00 2.026215290146392983e-02
3.793668315782387253e+03 1.395959427227413174e+00 2.108173675241064096e-02
3.797461984098170888e+03 1.437025659702296343e+00 2.041297351280633304e-02
3.801259446082270188e+03 1.486282866682952841e+00 1.643453556100098537e-02
3.805060705528353537e+03 1.525689438447075830e+00 1.361905043281877274e-02
3.808865766233883278e+03 1.561661519498167339e+00 1.145434439034202431e-02
3.812674632000118436e+03 1.591413838213753706e+00 1.001107722997194097e-02
3.816487306632119726e+03 1.615184775239357773e+00 9.437980587986919898e-03
3.820303793938753188e+03 1.633321274742933094e+00 9.194603554620426819e-03
3.824124097732693372e+03 1.644512413232958714e+00 9.487352996421267656e-03
3.827948221830427428e+03 1.644436959667568088e+00 9.954521570595366992e-03
3.831776170052258749e+03 1.635069227965333383e+00 9.146830343945961880e-03
3.835607946222312421e+03 1.622122076497007237e+00 8.264341550612518822e-03
3.839443554168536139e+03 1.601546645815256742e+00 7.993461387461375800e-03
3.843282997722705659e+03 1.582129200836136951e+00 7.180992748422079276e-03
3.847126280720429804e+03 1.563512058095919199e+00 5.853700558717207791e-03
3.850973407001151372e+03 1.548324092367501459e+00 5.951407533246403335e-03
3.854824380408153957e+03 1.531409308735972141e+00 5.896450571120406305e-03
3.858679204788563311e+03 1.514743349982361043e+00 6.042109188000092425e-03
3.862537883993353262e+03 1.498045439052303029e+00 5.625196601739897335e-03
3.866400421877347981e+03 1.484402070061090484e+00 5.988636572935326224e-03
3.870266822299226533e+03 1.473204215357646341e+00 6.777949318250331597e-03
3.874137089121526969e+03 1.464552139718362955e+00 7.759922184711613886e-03
3.878011226210649966e+03 1.457707764439724052e+00 8.600810410275694026e-03
3.881889237436861549e+03 1.457794135684226777e+00 8.448235749342966269e-03
3.885771126674299921e+03 1.467410688641868521e+00 7.979716559653791605e-03
3.889656897800975457e+03 1.486442261877755966e+00 8.744288728773450675e-03
3.893546554698777527e+03 1.512383198441556109e+00 1.012939996438639093e-02
3.897440101253477678e+03 1.536107788003608476e+00 1.047619783346840153e-02
3.901337541354732366e+03 1.568460930508702944e+00 1.257241654950014970e-02
3.905238878896088409e+03 1.604300364636029874e+00 1.437484438626580527e-02
3.909144117774985716e+03 1.644369201682407633e+00 1.363460557192741271e-02
3.913053261892762293e+03 1.677889423266545110e+00 1.360768341638755180e-02
3.916966315154656058e+03 1.702726098535795263e+00 1.270180201803134019e-02
3.920883281469812118e+03 1.719941151417966774e+00 1.214346114547765372e-02
3.924804164751283224e+03 1.730501357108702232e+00 1.163372832041837009e-02
3.928728968916035683e+03 1.734713758437313569e+00 1.117099719655257131e-02
3.932657697884953450e+03 1.732554031541235329e+00 1.144566263276445249e-02
3.936590355582839493e+03 1.719724190901052108e+00 1.203638359190251257e-02
3.940526945938423523e+03 1.698577620588400450e+00 1.336131708434982329e-02
3.944467472884363360e+03 1.664657591858017538e+00 1.324382938058774398e-02
3.948411940357249023e+03 1.629460682110016156e+00 1.228890104559652793e-02
3.952360352297607733e+03 1.593565444079833915e+00 8.383026886740894273e-03
3.956312712649906643e+03 1.559810071977223433e+00 5.869468977006521773e-03
3.960269025362557841e+03 1.533069873766416125e+00 4.899548132993026411e-03
3.964229294387921527e+03 1.515782209438042427e+00 5.007840075658308993e-03
3.968193523682310570e+03 1.507143944899423049e+00 6.073798731252135277e-03
3.972161717205994591e+03 1.502716580018011339e+00 5.916205900156248053e-03
3.976133878923201792e+03 1.508023166780504187e+00 7.253141691333757878e-03
3.980110012802126221e+03 1.521262243616853693e+00 7.765167600755042837e-03
3.984090122814929600e+03 1.531741572219681213e+00 8.921048598353978343e-03
3.988074212937745870e+03 1.540487860755110905e+00 8.777925980657630411e-03
3.992062287150684824e+03 1.547766211015894733e+00 8.023223688678004714e-03
3.996054349437837118e+03 1.553352389431599923e+00 7.124874598397667146e-03
4.000050403787276082e+03 1.552446824217370791e+00 8.076581211630176269e-03
4.004050454191064546e+03 1.550339244530211991e+00 8.801950137615234537e-03
4.008054504645257111e+03 1.549621373374259425e+00 9.209134712599407330e-03
4.012062559149903791e+03 1.541676528507886834e+00 9.965782276240306090e-03
4.016074621709055009e+03 1.530647439933005893e+00 8.304614549479949481e-03
4.020090696330765240e+03 1.523331303397849501e+00 6.459539064040021802e-03
4.024110787027097558e+03 1.520384641332302111e+00 5.399147800136797938e-03
4.028134897814125907e+03 1.525002981889733489e+00 6.410067898226046688e-03
4.032163032711941469e+03 1.533903666731982085e+00 8.198949816506108032e-03
4.036195195744654484e+03 1.543658817389401028e+00 8.380669743557785101e-03
4.040231390940400615e+03 1.555030354785201130e+00 7.462797873634288356e-03
4.044271622331342314e+03 1.565501057411581298e+00 6.421700199825236023e-03
4.048315893953675186e+03 1.575633719400102661e+00 3.890673025515050017e-03
4.052364209847629809e+03 1.578204388068791264e+00 4.214519960344892922e-03
4.056416574057479011e+03 1.575177522423317988e+00 4.559779622602191072e-03
4.060472990631537868e+03 1.569227230136569506e+00 4.144595339752356507e-03
4.064533463622170530e+03 1.559363127901339352e+00 3.952390359847293526e-03
4.068597997085794304e+03 1.546179803785707740e+00 3.924894501145104533e-03
4.072666595082881486e+03 1.528927590269375081e+00 4.097960501028779547e-03
4.076739261677965715e+03 1.509982826302882719e+00 4.007317034676835879e-03
4.080816000939644709e+03 1.491948924277166411e+00 4.244269677389262037e-03
4.084896816940585722e+03 1.474549217022038450e+00 4.307434622586417058e-03
4.088981713757527814e+03 1.456262104600861029e+00 4.751341837598862736e-03
4.093070695471286854e+03 1.443780528579891698e+00 4.874287939116143074e-03
4.097163766166759160e+03 1.434811298033061178e+00 4.574010280426046848e-03
4.101260929932927866e+03 1.432106058876668975e+00 4.486833029410306622e-03
4.105362190862862008e+03 1.433350312442005725e+00 4.166094327370181705e-03
4.109467553053726078e+03 1.439952970559583711e+00 4.421994225581939685e-03
4.113577020606780934e+03 1.453922440346270273e+00 5.077924626008194220e-03
4.117690597627389252e+03 1.470681380496704493e+00 3.898500913199846960e-03
4.121808288225018259e+03 1.484127448304957797e+00 4.718503402916273889e-03
4.125930096513244280e+03 1.501005044467334182e+00 4.549031529724139808e-03
4.130056026609759101e+03 1.516834850401546531e+00 4.580378351735203864e-03
4.134186082636369974e+03 1.531388532150535831e+00 4.420044225129923093e-03
4.138320268719007800e+03 1.544162002898061159e+00 4.570112040216270724e-03
4.142458588987728035e+03 1.555340055571962754e+00 4.740915893891074935e-03
4.146601047576717065e+03 1.562163955190024378e+00 4.652139655889436960e-03
4.150747648624294925e+03 1.565674860744622698e+00 4.526757410729996198e-03
4.154898396272920763e+03 1.564010288966415141e+00 4.884207280974614887e-03
4.159053294669195566e+03 1.562191207411262495e+00 4.750273870868640391e-03
4.163212347963865795e+03 1.556766973204690929e+00 4.711534162642583290e-03
4.167375560311830668e+03 1.546411385223632085e+00 4.619602534104060021e-03
4.171542935872143971e+03 1.532839911916100251e+00 4.762453572951372803e-03
4.175714478808017702e+03 1.517408676218353625e+00 4.723256868654939107e-03
4.179890193286827525e+03 1.502572629797610970e+00 4.475887526077822372e-03
4.184070083480115500e+03 1.489026727273753181e+00 4.247842097331391148e-03
4.188254153563597356e+03 1.478870207333096154e+00 4.209299089837825227e-03
4.192442407717161586e+03 1.472566640254172166e+00 3.864286457371814663e-03
4.196634850124880359e+03 1.467428870692838894e+00 4.116239912475238433e-03
4.200831484975006788e+03 1.462982319386503693e+00 3.080911469274823841e-03
4.205032316459983122e+03 1.465172056896615338e+00 3.510899940924088261e-03
4.209237348776444378e+03 1.469740669286013324e+00 5.006080492087091986e-03
4.213446586125221984e+03 1.475364824085085180e+00 5.384042032953885622e-03
4.217660032711349231e+03 1.480995568573609811e+00 4.932318134527958857e-03
4.221877692744061278e+03 1.482067479564538548e+00 4.136488107789030970e-03
4.226099570436806971e+03 1.479736184641752272e+00 4.107778700759050043e-03
4.230325670007245208e+03 1.473947722078268852e+00 4.348904293357497806e-03
4.234555995677254032e+03 1.463914561514347623e+00 4.252416632328134480e-03
4.238790551672932452e+03 1.455162140499023593e+00 4.182453483743871388e-03
4.243029342224606808e+03 1.445790410231134304e+00 4.118568181734912244e-03
4.247272371566832589e+03 1.435842090576038510e+00 4.322294921890424205e-03
4.251519643938400804e+03 1.427635127758795974e+00 3.932534535147850195e-03
4.255771163582340705e+03 1.424533810334380979e+00 3.296834871896725614e-03
4.260026934745924336e+03 1.429219751431619168e+00 5.163960293402519719e-03
4.264286961680671993e+03 1.437089080029909649e+00 6.379041755100820638e-03
4.268551248642354039e+03 1.444616553946362902e+00 5.576488373081195382e-03
4.272819799890998183e+03 1.450223513476970760e+00 5.316533373504605739e-03
4.277092619690890388e+03 1.454423882748004715e+00 5.433771777769020629e-03
4.281369712310583054e+03 1.457273607562975082e+00 5.482014831857642996e-03
4.285651082022895025e+03 1.461953645705057259e+00 5.658626788378038133e-03
4.289936733104918858e+03 1.465616984405359480e+00 5.914156125548175429e-03
4.294226669838025373e+03 1.465005513431668405e+00 5.864097809130165186e-03
4.298520896507864563e+03 1.460831577055085484e+00 5.865810175181607015e-03
4.302819417404373780e+03 1.453002767210748614e+00 5.737251883607789003e-03
4.307122236821779552e+03 1.444668259115325037e+00 5.661986027770207937e-03
4.311429359058603040e+03 1.434150623659165458e+00 5.811518907064583926e-03
4.315740788417662770e+03 1.423916336308021391e+00 5.866363498610183830e-03
4.320056529206081905e+03 1.416111812066590536e+00 5.780304470322242087e-03
4.324376585735290064e+03 1.409073498799976010e+00 5.720521750648411598e-03
4.328700962321026054e+03 1.400683048171230682e+00 5.365711025844445946e-03
4.333029663283348782e+03 1.393100355582477246e+00 4.700386905633617551e-03
4.337362692946633615e+03 1.387873887086916946e+00 4.548269084463954677e-03
4.341700055639581478e+03 1.388862321958215018e+00 4.537392794529940439e-03
4.346041755695222491e+03 1.389638796237557150e+00 3.071967874711311296e-03
4.350387797450919606e+03 1.387791691939022076e+00 3.096748973582124070e-03
4.354738185248371337e+03 1.385173394517578371e+00 3.145312175419977090e-03
4.359092923433621763e+03 1.381687836194873231e+00 3.080322234092651868e-03
4.363452016357056891e+03 1.377586256763892347e+00 2.381883821512458324e-03
4.367815468373414660e+03 1.377185672264899408e+00 3.266921469143651766e-03
4.372183283841789489e+03 1.375057382378646942e+00 3.137243305627463504e-03
4.376555467125633186e+03 1.371479208931776217e+00 3.257520045622938447e-03
4.380932022592760404e+03 1.367447133396390457e+00 3.500490899404111716e-03
4.385312954615354101e+03 1.366796376521615342e+00 3.515532211507702877e-03
4.389698267569970994e+03 1.367052748633502457e+00 3.416324644112006884e-03
4.394087965837542470e+03 1.364800745140884564e+00 4.319544908401113693e-03
4.398482053803381859e+03 1.366691141373439500e+00 4.141755056112106717e-03
4.402880535857186260e+03 1.371216901551347789e+00 4.116321635971974778e-03
4.407283416393044718e+03 1.378201909855250262e+00 4.554511923401668300e-03
4.411690699809440048e+03 1.384274667527215952e+00 4.679515786780932482e-03
4.416102390509250654e+03 1.390101729575890399e+00 4.699698953932573108e-03
4.420518492899761441e+03 1.394352323489836953e+00 4.566355939117743012e-03
4.424939011392662906e+03 1.399119435692540714e+00 3.794191677214596610e-03
4.429363950404056595e+03 1.400775243165636397e+00 3.855045914606368591e-03
4.433793314354462382e+03 1.396704392064819000e+00 3.808932279841942270e-03
4.438227107668818462e+03 1.388296109202738604e+00 3.728295892306661245e-03
4.442665334776488635e+03 1.374405860391562095e+00 3.794101375874750839e-03
4.447108000111265937e+03 1.357753776834499604e+00 3.907911958754016306e-03
4.451555108111379013e+03 1.340064981075531625e+00 4.838612636265495967e-03
4.456006663219492111e+03 1.321421989622363569e+00 5.230934354863831480e-03
4.460462669882713271e+03 1.306113949732610191e+00 4.555126366971863107e-03
4.464923132552597053e+03 1.295686930415741678e+00 4.224131853069879386e-03
4.469388055685150903e+03 1.291005477345453789e+00 4.359646723384135586e-03
4.473857443740837880e+03 1.289411126256026607e+00 4.380404342003218349e-03
4.478331301184580298e+03 1.289173134713741620e+00 4.086641245963661996e-03
4.482809632485766087e+03 1.295331026298340182e+00 3.996968700088596518e-03
4.487292442118253348e+03 1.305209682833688767e+00 3.789951441477065579e-03
4.491779734560373072e+03 1.318583676507705027e+00 3.115288582187008149e-03
4.496271514294934605e+03 1.331738963498058093e+00 2.828800630374652889e-03
4.500767785809231100e+03 1.344237762530733127e+00 2.785263009528564631e-03
4.505268553595042249e+03 1.355619667479076362e+00 2.727198165588455830e-03
4.509773822148638828e+03 1.365911052411342697e+00 2.912239642485409119e-03
4.514283595970789065e+03 1.374346510936847121e+00 2.792735194751819021e-03
4.518797879566761367e+03 1.380005363635272042e+00 2.769202550101741191e-03
4.523316677446328868e+03 1.383977825245387150e+00 2.702910357275391338e-03
4.527839994123776705e+03 1.385993639384823117e+00 2.677871928601617112e-03
4.532367834117902021e+03 1.385185453308755754e+00 3.158983965594813932e-03
4.536900201952022144e+03 1.382174163662215793e+00 2.749047909736364488e-03
4.541437102153975502e+03 1.378172540935847179e+00 1.746212791878466253e-03
4.545978539256130716e+03 1.375697051977742502e+00 1.690877961172540566e-03
4.550524517795388419e+03 1.373892198044190494e+00 1.755210602641439459e-03
4.555075042313184895e+03 1.372108216252654556e+00 1.662427968074957178e-03
4.559630117355500261e+03 1.371027059889699196e+00 1.820394949496763684e-03
4.564189747472856652e+03 1.368599486229069129e+00 1.846378512257481957e-03
4.568753937220330954e+03 1.364517256190614702e+00 2.091418709218419072e-03
4.573322691157552981e+03 1.360254277629495689e+00 2.214396721988505425e-03
4.577896013848711846e+03 1.356465226415048742e+00 2.244110289628281976e-03
4.582473909862562323e+03 1.350815197327430717e+00 2.160833000798370075e-03
4.587056383772426670e+03 1.343739704835244630e+00 2.039384266477970754e-03
4.591643440156200086e+03 1.337549714515972266e+00 2.407304898738186604e-03
4.596235083596357981e+03 1.328742539566760916e+00 2.387909457111115578e-03
4.600831318679955984e+03 1.319111040504673316e+00 2.358472289246438779e-03
4.605432149998637215e+03 1.309016144375138246e+00 2.322940573448602740e-03
4.610037582148637739e+03 1.298015357966569194e+00 2.288819086930084321e-03
4.614647619730787483e+03 1.287381529980799133e+00 2.251178857797840518e-03
4.619262267350520233e+03 1.274613402224142877e+00 2.292406033282043658e-03
4.623881529617872729e+03 1.262357148151773689e+00 2.381317506718917242e-03
4.628505411147491941e+03 1.250145249533422875e+00 2.835274523420355710e-03
4.633133916558640522e+03 1.241004114922937829e+00 2.972528986407622139e-03
4.637767050475200449e+03 1.235106083683580325e+00 2.620186417476469670e-03
4.642404817525677572e+03 1.233208842927479010e+00 2.547292426787262261e-03
4.647047222343205249e+03 1.236023787043026845e+00 3.134006105056897588e-03
4.651694269565549803e+03 1.240438241007220554e+00 3.548422546083898448e-03
4.656345963835116891e+03 1.243567872482748804e+00 3.552671228994039310e-03
4.661002309798953320e+03 1.247441684374519966e+00 3.478569487020409176e-03
4.665663312108753416e+03 1.251645442442281819e+00 3.215884710506642253e-03
4.670328975420864481e+03 1.251762155855651093e+00 2.936664158565677370e-03
4.674999304396286789e+03 1.248511241472909150e+00 3.341903072046099356e-03
4.679674303700684504e+03 1.244881554910680643e+00 3.223591360184971302e-03
4.684353978004386590e+03 1.237038958656222487e+00 2.918562198103760372e-03
4.689038331982392265e+03 1.227463738689475115e+00 2.668985287015624829e-03
4.693727370314376458e+03 1.215561454285814857e+00 2.914458754739219885e-03
4.698421097684692540e+03 1.205622747560836538e+00 2.587862684484889143e-03
4.703119518782378691e+03 1.197719745006449843e+00 2.544209135370924940e-03
4.707822638301162442e+03 1.190273727411468752e+00 2.799866378514098784e-03
4.712530460939465229e+03 1.185920539182089950e+00 2.908280185756294527e-03
4.717242991400406027e+03 1.184434307153372945e+00 2.755373160643184716e-03
4.721960234391808626e+03 1.186314301645331692e+00 2.883282804767084602e-03
4.726682194626201635e+03 1.190195586074320744e+00 2.910698006281836354e-03
4.731408876820829391e+03 1.196137771906382818e+00 2.889780968168921983e-03
4.736140285697651962e+03 1.204783874313867464e+00 2.827576854576848136e-03
4.740876425983350600e+03 1.213886012739060272e+00 2.659522734699736480e-03
4.745617302409335934e+03 1.222445247248248545e+00 2.680175711643112413e-03
4.750362919711747054e+03 1.230386050699682654e+00 2.465919627043165665e-03
4.755113282631459697e+03 1.237076818239810638e+00 2.089161304922823072e-03
4.759868395914093526e+03 1.239815531601957010e+00 2.296246703222317234e-03
4.764628264310008490e+03 1.241599688886643627e+00 2.057789037701499013e-03
4.769392892574320285e+03 1.242613625823835388e+00 2.211451983237089532e-03
4.774162285466896719e+03 1.239864620872535683e+00 2.270013198638077753e-03
4.778936447752364984e+03 1.234749823597143248e+00 2.553913436122831962e-03
4.783715384200118933e+03 1.227676512506918671e+00 2.367108353926012775e-03
4.788499099584319993e+03 1.222216466047192363e+00 2.377746991986339885e-03
4.793287598683906253e+03 1.214521887899777663e+00 2.353662442619159929e-03
4.798080886282591564e+03 1.206052987263500187e+00 2.510527518628116392e-03
4.802878967168876443e+03 1.196430161206931020e+00 2.730559827724558623e-03
4.807681846136046261e+03 1.185271444719143918e+00 2.601837721006004540e-03
4.812489527982183972e+03 1.173327560063633701e+00 2.372550642481011714e-03
4.817302017510168298e+03 1.158761555970953649e+00 2.880489507239440087e-03
4.822119319527679181e+03 1.144791893274546668e+00 2.868320629071765323e-03
4.826941438847208701e+03 1.131705726924416178e+00 2.826534716075147433e-03
4.831768380286057436e+03 1.118873716126823181e+00 2.793768037992759839e-03
4.836600148666345376e+03 1.107488079700518435e+00 2.835940987688860288e-03
4.841436748815013743e+03 1.097910990138120990e+00 2.778050581270704103e-03
4.846278185563829538e+03 1.091688536471036697e+00 2.497728918646828153e-03
