# starting wavelength: 3678.150
# ending wavelength: 9582.850
# wav flux eflux
3.681603659668294313e+03 4.352074488240168515e-01 5.658318034932150777e-03
3.685285263327964003e+03 4.211007714234790700e-01 4.607753060398376427e-03
3.688970548591293209e+03 4.055406566475488472e-01 3.811431952828207501e-03
3.692659519139885560e+03 3.893328765111453427e-01 3.451070908443721816e-03
3.696352178659026777e+03 3.743809464667335885e-01 2.693586396532210697e-03
3.700048530837686940e+03 3.592340665040260617e-01 2.179386866917184910e-03
3.703748579368525952e+03 3.446969855198608879e-01 1.758569303854172917e-03
3.707452327947895355e+03 3.304956497447079089e-01 1.830824495964090103e-03
3.711159780275844696e+03 3.172820478650950626e-01 1.611709918202901748e-03
3.714870940056121526e+03 3.045443609491789161e-01 1.438072616896554764e-03
3.718585810996179134e+03 2.918680394244222986e-01 1.383043306207873543e-03
3.722304396807176545e+03 2.793898907305611967e-01 1.302227638074141686e-03
3.726026701203984885e+03 2.675559449154555347e-01 1.174172062586329368e-03
3.729752727905190113e+03 2.557548729571283430e-01 1.169775415782653817e-03
3.733482480633096657e+03 2.443323259988501028e-01 1.219375643149001693e-03
3.737215963113731050e+03 2.337654412227258005e-01 1.207315943291221213e-03
3.740953179076846027e+03 2.237962410535385138e-01 1.267141183871929241e-03
3.744694132255923705e+03 2.151521305233291825e-01 1.233276914204601941e-03
3.748438826388181042e+03 2.075796714692598743e-01 1.199294035125863210e-03
3.752187265214570289e+03 2.011450541959540761e-01 1.244484000132414824e-03
3.755939452479786269e+03 1.955305585338787955e-01 1.262128260255371021e-03
3.759695391932267285e+03 1.910445495353240708e-01 1.397038443666788823e-03
3.763455087324201031e+03 1.873346765266934444e-01 1.517148810151521887e-03
3.767218542411526414e+03 1.842841201013587504e-01 1.603675819034574689e-03
3.770985760953939007e+03 1.819896267006638202e-01 1.686235778345283095e-03
3.774756746714894234e+03 1.801855303718153389e-01 1.731728147393576814e-03
3.778531503461610555e+03 1.789937114777157556e-01 1.741482669676557623e-03
3.782310034965073100e+03 1.784589679888277103e-01 1.747843509196211247e-03
3.786092345000039586e+03 1.782641504966095414e-01 1.731525957699661363e-03
3.789878437345040766e+03 1.788374828585245491e-01 1.643390923902558190e-03
3.793668315782387253e+03 1.797913253843241854e-01 1.511273964702299208e-03
3.797461984098170888e+03 1.807578990093789417e-01 1.494278371989564945e-03
3.801259446082270188e+03 1.820927136724947437e-01 1.526471376640297023e-03
3.805060705528353537e+03 1.838513355773652436e-01 1.554805958291139833e-03
3.808865766233883278e+03 1.857792171406946191e-01 1.713975203097820640e-03
3.812674632000118436e+03 1.878502446945614635e-01 1.848192635246213725e-03
3.816487306632119726e+03 1.901726633078542894e-01 1.785904558566835196e-03
3.820303793938753188e+03 1.936749508856143720e-01 1.763068151912785316e-03
3.824124097732693372e+03 1.979519368148245362e-01 1.629773530181297895e-03
3.827948221830427428e+03 2.032761394517899611e-01 1.452230332277784815e-03
3.831776170052258749e+03 2.097634207580840737e-01 9.412211636576407227e-04
3.835607946222312421e+03 2.183149088182273212e-01 7.748131368964813028e-04
3.839443554168536139e+03 2.287191752510472076e-01 8.120177363095019236e-04
3.843282997722705659e+03 2.411318051175832533e-01 8.155113502647893869e-04
3.847126280720429804e+03 2.545482589269616458e-01 8.278269863655154546e-04
3.850973407001151372e+03 2.693535676387154854e-01 8.665946694675681237e-04
3.854824380408153957e+03 2.857280700817429464e-01 8.814520161751971577e-04
3.858679204788563311e+03 3.034465050263435160e-01 8.353776927978469715e-04
3.862537883993353262e+03 3.221078204169059434e-01 8.889735241151883573e-04
3.866400421877347981e+03 3.414082657039365087e-01 9.748374766837720898e-04
3.870266822299226533e+03 3.613086546896047691e-01 1.039060842450797778e-03
3.874137089121526969e+03 3.815059072173891397e-01 9.896403185867563325e-04
3.878011226210649966e+03 4.016406386456267685e-01 9.455545563598996995e-04
3.881889237436861549e+03 4.219878853921067985e-01 8.465893774902943621e-04
3.885771126674299921e+03 4.422425459255261426e-01 8.190994065834559211e-04
3.889656897800975457e+03 4.625908368603024456e-01 7.366327476970836946e-04
3.893546554698777527e+03 4.823201311440695194e-01 7.586119943590693320e-04
3.897440101253477678e+03 5.013349416003149983e-01 7.858858147628455717e-04
3.901337541354732366e+03 5.194807576666151672e-01 7.882652720140759933e-04
3.905238878896088409e+03 5.366556735087986141e-01 8.153926697906498794e-04
3.909144117774985716e+03 5.528942507797139916e-01 8.313130157155610963e-04
3.913053261892762293e+03 5.684466553637153030e-01 8.312616090493884190e-04
3.916966315154656058e+03 5.827929585201090390e-01 8.757712771513194872e-04
3.920883281469812118e+03 5.961297823131836982e-01 8.922286508823913968e-04
3.924804164751283224e+03 6.084741802778396158e-01 8.328744625824110103e-04
3.928728968916035683e+03 6.205406580388457272e-01 8.452429543789483296e-04
3.932657697884953450e+03 6.313855476094876185e-01 8.404652388135963777e-04
3.936590355582839493e+03 6.414247084618339700e-01 8.335711965271242916e-04
3.940526945938423523e+03 6.503147692292975401e-01 8.501553565575013056e-04
3.944467472884363360e+03 6.585994269223425235e-01 8.556409549330921960e-04
3.948411940357249023e+03 6.659780883293238141e-01 8.665525047997499949e-04
3.952360352297607733e+03 6.725044041056532640e-01 8.823366837924635732e-04
3.956312712649906643e+03 6.781795658048291875e-01 8.897717263079347235e-04
3.960269025362557841e+03 6.833825676436845464e-01 8.854194657685330368e-04
3.964229294387921527e+03 6.880586026155072199e-01 9.128916544917610107e-04
3.968193523682310570e+03 6.919775334013299473e-01 9.186788071128798149e-04
3.972161717205994591e+03 6.954456037676672864e-01 9.194779963204425220e-04
3.976133878923201792e+03 6.987728974844121810e-01 9.595524301354438823e-04
3.980110012802126221e+03 7.019313918079667092e-01 1.153960214259090603e-03
3.984090122814929600e+03 7.054562127279090378e-01 1.344524392419562493e-03
3.988074212937745870e+03 7.086949938212482314e-01 1.694126152509203408e-03
3.992062287150684824e+03 7.126371021600441669e-01 1.659166424744193706e-03
3.996054349437837118e+03 7.170147446818040393e-01 1.403203009919373268e-03
4.000050403787276082e+03 7.228000302811117272e-01 1.029096297172823853e-03
4.004050454191064546e+03 7.302347722255828621e-01 9.890995534588321609e-04
4.008054504645257111e+03 7.392492358871369795e-01 1.325898333491453036e-03
4.012062559149903791e+03 7.491254315098176964e-01 1.505838684998917409e-03
4.016074621709055009e+03 7.594922703747160053e-01 1.535297579518510574e-03
4.020090696330765240e+03 7.703372144050468773e-01 1.591201669463422836e-03
4.024110787027097558e+03 7.808516809415668725e-01 1.601734549966849245e-03
4.028134897814125907e+03 7.920007168715810231e-01 1.697568273886806240e-03
4.032163032711941469e+03 8.020416889477564037e-01 1.757430178406188407e-03
4.036195195744654484e+03 8.110156247761265425e-01 1.699229148328698950e-03
4.040231390940400615e+03 8.184776961163163778e-01 1.539415632163930719e-03
4.044271622331342314e+03 8.246176591815379542e-01 1.031540269474724714e-03
4.048315893953675186e+03 8.266916314935479626e-01 9.849055781153681893e-04
4.052364209847629809e+03 8.256745319942015993e-01 1.016033236298700395e-03
4.056416574057479011e+03 8.218736509277284608e-01 1.120159025398646205e-03
4.060472990631537868e+03 8.151262643214255421e-01 1.304240665933137106e-03
4.064533463622170530e+03 8.057150434453198562e-01 1.436302452469739822e-03
4.068597997085794304e+03 7.937364506019842780e-01 1.384173227612757028e-03
4.072666595082881486e+03 7.802852592831421852e-01 1.403649106723149718e-03
4.076739261677965715e+03 7.652706805856717143e-01 1.471345727807865178e-03
4.080816000939644709e+03 7.494759770806964649e-01 1.490014464801992476e-03
4.084896816940585722e+03 7.333037014586736291e-01 1.491878679293925014e-03
4.088981713757527814e+03 7.163265808060492734e-01 1.370690345066686308e-03
4.093070695471286854e+03 6.993441747597967106e-01 1.286292518133511868e-03
4.097163766166759160e+03 6.824111601174204234e-01 1.054946047225654993e-03
4.101260929932927866e+03 6.663871009354340735e-01 1.263300690535818166e-03
4.105362190862862008e+03 6.520575124057249594e-01 1.714979467612086795e-03
4.109467553053726078e+03 6.379087528782353411e-01 1.607784937699690371e-03
4.113577020606780934e+03 6.241251082288751251e-01 1.128561236886399099e-03
4.117690597627389252e+03 6.097194521049362770e-01 1.008725593709933676e-03
4.121808288225018259e+03 5.949597436746602019e-01 1.107589215847091689e-03
4.125930096513244280e+03 5.803761219947544125e-01 1.314684399080106409e-03
4.130056026609759101e+03 5.663760334245742101e-01 1.502606354771672406e-03
4.134186082636369974e+03 5.526471819362183124e-01 1.545732154098953832e-03
4.138320268719007800e+03 5.399784858716756286e-01 1.467511772618332495e-03
4.142458588987728035e+03 5.287599043937016852e-01 1.370726890532670021e-03
4.146601047576717065e+03 5.188616608904523808e-01 1.347712944690497095e-03
4.150747648624294925e+03 5.104573808278393132e-01 1.300294306259735903e-03
4.154898396272920763e+03 5.034494827491480251e-01 1.291307549208652299e-03
4.159053294669195566e+03 4.981685929539809710e-01 1.462223886472818453e-03
4.163212347963865795e+03 4.945404179790383048e-01 1.500863186465393106e-03
4.167375560311830668e+03 4.920018086354360776e-01 1.416190825226643427e-03
4.171542935872143971e+03 4.903032982300600251e-01 1.226619386054359894e-03
4.175714478808017702e+03 4.882983801731484164e-01 1.038365492567594212e-03
4.179890193286827525e+03 4.860260159560555460e-01 7.692155928894243641e-04
4.184070083480115500e+03 4.826365775834147720e-01 7.650441456345744842e-04
4.188254153563597356e+03 4.779834717264317412e-01 7.627024852605900421e-04
4.192442407717161586e+03 4.726445166957166100e-01 6.719864281259615079e-04
4.196634850124880359e+03 4.674580847219394486e-01 7.616866455185778524e-04
4.200831484975006788e+03 4.625003798157809043e-01 8.896428148220010546e-04
4.205032316459983122e+03 4.577133637100170294e-01 7.901399821845159340e-04
4.209237348776444378e+03 4.531754051247510184e-01 9.834355303067381440e-04
4.213446586125221984e+03 4.497711837325206186e-01 9.492387993534237654e-04
4.217660032711349231e+03 4.472659834448136640e-01 6.955524821707566611e-04
4.221877692744061278e+03 4.470691680609877316e-01 5.812665244299388074e-04
4.226099570436806971e+03 4.488208170271109076e-01 6.840378560390155760e-04
4.230325670007245208e+03 4.524478307047948844e-01 8.984312824877916130e-04
4.234555995677254032e+03 4.573967417636929378e-01 8.445864291614446975e-04
4.238790551672932452e+03 4.636801015077943178e-01 7.266252014348003208e-04
4.243029342224606808e+03 4.703039650103627012e-01 7.049895456765970566e-04
4.247272371566832589e+03 4.769816713488478355e-01 6.336874941446536550e-04
4.251519643938400804e+03 4.829798393742220641e-01 6.091257885537717251e-04
4.255771163582340705e+03 4.880286388262206621e-01 5.691271823705137652e-04
4.260026934745924336e+03 4.919459494442185443e-01 4.712001896874684387e-04
4.264286961680671993e+03 4.945014151649271272e-01 4.983075760822541908e-04
4.268551248642354039e+03 4.956709469485253705e-01 5.147177869955241267e-04
4.272819799890998183e+03 4.952457305588632286e-01 4.751086486822187990e-04
4.277092619690890388e+03 4.936400173215581000e-01 4.934322141023890582e-04
4.281369712310583054e+03 4.911116388765924823e-01 5.982333442235999174e-04
4.285651082022895025e+03 4.884373080482840024e-01 6.118167394863770247e-04
4.289936733104918858e+03 4.854897022209118118e-01 7.019607066138309863e-04
4.294226669838025373e+03 4.824719204993904165e-01 5.984885541724494591e-04
4.298520896507864563e+03 4.802796601441768343e-01 6.003006555485529503e-04
4.302819417404373780e+03 4.789109754362014248e-01 5.409675564114162357e-04
4.307122236821779552e+03 4.788517569038164834e-01 5.177557652248718093e-04
4.311429359058603040e+03 4.809394215968402775e-01 9.551444368382383272e-04
4.315740788417662770e+03 4.840799334476497129e-01 1.521870351142285858e-03
4.320056529206081905e+03 4.871467856860105528e-01 1.892487002261292271e-03
4.324376585735290064e+03 4.899059086058291657e-01 1.799965403027716394e-03
4.328700962321026054e+03 4.917447667690356683e-01 1.608970361827544854e-03
4.333029663283348782e+03 4.925358519283163927e-01 1.614490853227449740e-03
4.337362692946633615e+03 4.923810433184696578e-01 1.862681994683065227e-03
4.341700055639581478e+03 4.915596588147296275e-01 2.085357812243992474e-03
4.346041755695222491e+03 4.905796238328599679e-01 2.018149032988663782e-03
4.350387797450919606e+03 4.900752828596885990e-01 1.826361437582208836e-03
4.354738185248371337e+03 4.902330182192919383e-01 1.734647532712085133e-03
4.359092923433621763e+03 4.909299924390606029e-01 1.712788678240567252e-03
4.363452016357056891e+03 4.923984140915071972e-01 1.757388677194781723e-03
4.367815468373414660e+03 4.949892236843803084e-01 1.674363694223733514e-03
4.372183283841789489e+03 4.980387926044338442e-01 1.502663476904290149e-03
4.376555467125633186e+03 5.010264016976299084e-01 1.264096087515182310e-03
4.380932022592760404e+03 5.034100785555916113e-01 1.284577775614774518e-03
4.385312954615354101e+03 5.046181682785763067e-01 1.282591610320412074e-03
4.389698267569970994e+03 5.050150222265437083e-01 8.368031794182457812e-04
4.394087965837542470e+03 5.059226218400447728e-01 1.763318043537810773e-03
4.398482053803381859e+03 5.054616155610791584e-01 2.028032748661502075e-03
4.402880535857186260e+03 5.033736944304713079e-01 1.876639273069144161e-03
4.407283416393044718e+03 4.990275540612222893e-01 1.798863857647773701e-03
4.411690699809440048e+03 4.931145300263211073e-01 2.031999422349588073e-03
4.416102390509250654e+03 4.859900572253854634e-01 2.358262262408520986e-03
4.420518492899761441e+03 4.782298311406053548e-01 2.492477940493284267e-03
4.424939011392662906e+03 4.706212693574903239e-01 2.274141330542255382e-03
4.429363950404056595e+03 4.642267594923617513e-01 1.934851791487232327e-03
4.433793314354462382e+03 4.598483412308072560e-01 1.808503054976774802e-03
4.438227107668818462e+03 4.577073231676206388e-01 1.920587282111372749e-03
4.442665334776488635e+03 4.577078211035391364e-01 2.051104798100435774e-03
4.447108000111265937e+03 4.598820411412318787e-01 2.032569494887746797e-03
4.451555108111379013e+03 4.639718418513895659e-01 1.770414437510056714e-03
4.456006663219492111e+03 4.695295428241937907e-01 1.231617931606645297e-03
4.460462669882713271e+03 4.754049781847610179e-01 1.129369616047350144e-03
4.464923132552597053e+03 4.815816754150603618e-01 1.255895469305412168e-03
4.469388055685150903e+03 4.884524739762082790e-01 9.028705204987847593e-04
4.473857443740837880e+03 4.972429004426539012e-01 4.486061193934252618e-04
4.478331301184580298e+03 5.093428898365305324e-01 4.505826561910624144e-04
4.482809632485766087e+03 5.237887363203023172e-01 4.235590292037347553e-04
4.487292442118253348e+03 5.408888655282452218e-01 4.507604820497887856e-04
4.491779734560373072e+03 5.602721006365198875e-01 4.332859167873179328e-04
4.496271514294934605e+03 5.827474468043308820e-01 4.005507767478268168e-04
4.500767785809231100e+03 6.081379508824419355e-01 5.683807914466594601e-04
4.505268553595042249e+03 6.359419462472435391e-01 8.356977914652306393e-04
4.509773822148638828e+03 6.654469986158140227e-01 8.410236669993822545e-04
4.514283595970789065e+03 6.964359360529939202e-01 8.229596017321855151e-04
4.518797879566761367e+03 7.282530849276511731e-01 7.078051544507461823e-04
4.523316677446328868e+03 7.604747480861725473e-01 6.885146199477803824e-04
4.527839994123776705e+03 7.927731263288081420e-01 7.898820944959560877e-04
4.532367834117902021e+03 8.252280968206858747e-01 8.031919989885481087e-04
4.536900201952022144e+03 8.577926893623306626e-01 7.783817158910176634e-04
4.541437102153975502e+03 8.902128127625905663e-01 7.798030320489618200e-04
4.545978539256130716e+03 9.220401759344499792e-01 7.829923427193549983e-04
4.550524517795388419e+03 9.530645210501499376e-01 8.074426232848870393e-04
4.555075042313184895e+03 9.832599223318431170e-01 9.296751584589996436e-04
4.559630117355500261e+03 1.012066371854600799e+00 1.009384430865364326e-03
4.564189747472856652e+03 1.039552736179349957e+00 8.224057045258958585e-04
4.568753937220330954e+03 1.064796480702217440e+00 5.779469811345620215e-04
4.573322691157552981e+03 1.087512962271154571e+00 8.210202825687781597e-04
4.577896013848711846e+03 1.108035039062442051e+00 8.851075443100849547e-04
4.582473909862562323e+03 1.126985248466233047e+00 7.610368885445077019e-04
4.587056383772426670e+03 1.144700697826642299e+00 6.729478466201284067e-04
4.591643440156200086e+03 1.161268317236470393e+00 6.696063319319360378e-04
4.596235083596357981e+03 1.176382358446745879e+00 6.612509972176196238e-04
4.600831318679955984e+03 1.190854663049178530e+00 9.364830955139776935e-04
4.605432149998637215e+03 1.205078975301504318e+00 1.008107751432630152e-03
4.610037582148637739e+03 1.219175017653454596e+00 9.798350405272459197e-04
4.614647619730787483e+03 1.233071743952279808e+00 9.369575219810536305e-04
4.619262267350520233e+03 1.246758065851777397e+00 9.300819406523207124e-04
4.623881529617872729e+03 1.260012874487005607e+00 9.621813134692725616e-04
4.628505411147491941e+03 1.272408412527689547e+00 1.052206397726526384e-03
4.633133916558640522e+03 1.283257922499935644e+00 1.232255462412202738e-03
4.637767050475200449e+03 1.292149048756819463e+00 1.500058998656357339e-03
4.642404817525677572e+03 1.298416999625262802e+00 1.602334576669010033e-03
4.647047222343205249e+03 1.300975857059138541e+00 1.454980345020408976e-03
4.651694269565549803e+03 1.298679504191193601e+00 9.083017841723490474e-04
4.656345963835116891e+03 1.290667239338154415e+00 1.010485900141243430e-03
4.661002309798953320e+03 1.277439449084759593e+00 1.338118487076818668e-03
4.665663312108753416e+03 1.259833783345653657e+00 1.398503350399420576e-03
4.670328975420864481e+03 1.238718658492426128e+00 1.308929607549198142e-03
4.674999304396286789e+03 1.214984726035516216e+00 1.234365005316278522e-03
4.679674303700684504e+03 1.189110942362243462e+00 1.206760883745403327e-03
4.684353978004386590e+03 1.161473136570181142e+00 1.083460164871534676e-03
4.689038331982392265e+03 1.133120601393103222e+00 8.484945624015688762e-04
4.693727370314376458e+03 1.105267338831495527e+00 8.810288396878608640e-04
4.698421097684692540e+03 1.078848581020947606e+00 8.812941638015622890e-04
4.703119518782378691e+03 1.053865628238550567e+00 9.089487738727993101e-04
4.707822638301162442e+03 1.030673740547485506e+00 9.929605498189236594e-04
4.712530460939465229e+03 1.009581509635407492e+00 1.079940525956588548e-03
4.717242991400406027e+03 9.910981176541139304e-01 9.581948928881582617e-04
4.721960234391808626e+03 9.755432258800221801e-01 7.906327886116940561e-04
4.726682194626201635e+03 9.630529841452013518e-01 9.645028152968643112e-04
4.731408876820829391e+03 9.533404270886398635e-01 1.168474382482589296e-03
4.736140285697651962e+03 9.456576906224943846e-01 9.873047734251870055e-04
4.740876425983350600e+03 9.387563244822704212e-01 7.132503261733310913e-04
4.745617302409335934e+03 9.318893232162271945e-01 7.616161774753945225e-04
4.750362919711747054e+03 9.241964016060632003e-01 7.637989892214231942e-04
4.755113282631459697e+03 9.151287114815346291e-01 7.705175312675083613e-04
4.759868395914093526e+03 9.039745288017909663e-01 7.626318820386720782e-04
4.764628264310008490e+03 8.899706814097779750e-01 6.030554568741208028e-04
4.769392892574320285e+03 8.725897312183836796e-01 5.829139576615698440e-04
4.774162285466896719e+03 8.520433869233221547e-01 5.837028932458089873e-04
4.778936447752364984e+03 8.283602087967981698e-01 5.846779997910241935e-04
4.783715384200118933e+03 8.016026282183835727e-01 5.522022669649633833e-04
4.788499099584319993e+03 7.728626394545209388e-01 5.772911108231227727e-04
4.793287598683906253e+03 7.421253002326139159e-01 7.345622305317478984e-04
