# starting wavelength: 3429.590
# ending wavelength: 7279.780
# wav flux eflux
3.432824566338588284e+03 9.844500111629477246e-01 2.553856351512999792e-02
3.436257390904928343e+03 1.026281265717172708e+00 2.084431346907875474e-02
3.439693648295834464e+03 1.065240105349144262e+00 1.852387675209272305e-02
3.443133341944131189e+03 1.097075333964200761e+00 1.580234025383048593e-02
3.446576475286076402e+03 1.121526170589052462e+00 1.281913931199478267e-02
3.450023051761363604e+03 1.142899341850123651e+00 1.045810833064055902e-02
3.453473074813126004e+03 1.161785620558362764e+00 8.871785163798370788e-03
3.456926547887940615e+03 1.179783074618325101e+00 7.909038413515369695e-03
3.460383474435829612e+03 1.199804958688113876e+00 8.655109304527938696e-03
3.463843857910266706e+03 1.221993672155651689e+00 1.000668658919381428e-02
3.467307701768178049e+03 1.242702665010295693e+00 1.018088483776603825e-02
3.470775009469947236e+03 1.259806487875231529e+00 9.801316319688254189e-03
3.474245784479418489e+03 1.271512338708616241e+00 9.245378960513025296e-03
3.477720030263898934e+03 1.277209477134962246e+00 9.082333154736443870e-03
3.481197750294164052e+03 1.280347921651611820e+00 8.967594647873004116e-03
3.484678948044459503e+03 1.281615316520450909e+00 9.044696757320478536e-03
3.488163626992504760e+03 1.280140551699209484e+00 9.595689849061219898e-03
3.491651790619498570e+03 1.281389539143844791e+00 9.839713829754166349e-03
3.495143442410119405e+03 1.277851700033506788e+00 1.017544348989554703e-02
3.498638585852530468e+03 1.274971715650558446e+00 1.009096664981459258e-02
3.502137224438384237e+03 1.271568551841921524e+00 9.853699848768906339e-03
3.505639361662823831e+03 1.267589723842414973e+00 9.861654915832662391e-03
3.509145001024487556e+03 1.266075276823542373e+00 9.859401246128256940e-03
3.512654146025513455e+03 1.264609448089017540e+00 9.839444521855714165e-03
3.516166800171540217e+03 1.262586297061648377e+00 9.791659496668960599e-03
3.519682966971712631e+03 1.261563496257920747e+00 9.761398999447211747e-03
3.523202649938685681e+03 1.260433688136221253e+00 9.905999889700520256e-03
3.526725852588625457e+03 1.259635198221328967e+00 1.017521018220701561e-02
3.530252578441215064e+03 1.263502640232047725e+00 1.027503598610710750e-02
3.533782831019657806e+03 1.268685124576545142e+00 1.005350380631587701e-02
3.537316613850678550e+03 1.278725152922056463e+00 9.984869398112706379e-03
3.540853930464530094e+03 1.293559824632396937e+00 1.029456435724391411e-02
3.544394784394995895e+03 1.312179390499483622e+00 1.093362130813369665e-02
3.547939179179392340e+03 1.335049633283611481e+00 1.043188667861565631e-02
3.551487118358572843e+03 1.358232587599644159e+00 9.687681965670807277e-03
3.555038605476932389e+03 1.379671598673920974e+00 9.298212439024493986e-03
3.558593644082410719e+03 1.395482171734531374e+00 9.516147937229779002e-03
3.562152237726494150e+03 1.409770525716101064e+00 9.533395016740471919e-03
3.565714389964221937e+03 1.424159152421250907e+00 9.412676136516390235e-03
3.569280104354187188e+03 1.435400498855783580e+00 9.591587566199351669e-03
3.572849384458542772e+03 1.443715883363177355e+00 9.219987742435140077e-03
3.576422233843002232e+03 1.454061391951603888e+00 9.522802233371686909e-03
3.579998656076846601e+03 1.464709841837829929e+00 9.348820542922020582e-03
3.583578654732924406e+03 1.475392177810977978e+00 7.955480563321511850e-03
3.587162233387658489e+03 1.476401900100399844e+00 7.767495443913201465e-03
3.590749395621047370e+03 1.473142928603818902e+00 7.793199742760012136e-03
3.594340145016669794e+03 1.462854572893113492e+00 8.125945189961835194e-03
3.597934485161687462e+03 1.449243002602165653e+00 8.298251395803063479e-03
3.601532419646850485e+03 1.431577865091478108e+00 7.817439036884430217e-03
3.605133952066498296e+03 1.410914917456145945e+00 6.899360430068218232e-03
3.608739086018566013e+03 1.388531602722049341e+00 6.753645904153352843e-03
3.612347825104585809e+03 1.365894391603799107e+00 6.726801666896507770e-03
3.615960172929691907e+03 1.343218952367187136e+00 7.073882177403920633e-03
3.619576133102622407e+03 1.321553530542372012e+00 6.790873304234276014e-03
3.623195709235726554e+03 1.295027531649191488e+00 6.666493496504608159e-03
3.626818904944963379e+03 1.266109283115711914e+00 6.907912020670868222e-03
3.630445723849909427e+03 1.235912483025020991e+00 7.095910242201359207e-03
3.634076169573760581e+03 1.202675357744505957e+00 6.739370007550155549e-03
3.637710245743335690e+03 1.170792514373729221e+00 6.017521230957507961e-03
3.641347955989080219e+03 1.142346052338008011e+00 7.037764703757855983e-03
3.644989303945070333e+03 1.115387000407866758e+00 8.461845348453903709e-03
3.648634293249016537e+03 1.084646764421060894e+00 8.478976211966492149e-03
3.652282927542266862e+03 1.056211849661661484e+00 8.346080843578866995e-03
3.655935210469810499e+03 1.026897060911073689e+00 7.603737603448669675e-03
3.659591145680281443e+03 9.949624037931878995e-01 7.534697325936159061e-03
3.663250736825963031e+03 9.540025777355762848e-01 9.238186218764384006e-03
3.666913987562790226e+03 9.166281381241123682e-01 1.034181748775566019e-02
3.670580901550354156e+03 8.837419907937222874e-01 1.086913721584742074e-02
3.674251482451905758e+03 8.525487130920712531e-01 1.101654056149510043e-02
3.677925733934358959e+03 8.317004847708943105e-01 1.097625782835235514e-02
3.681603659668294313e+03 8.172497572800303534e-01 1.077917914993052097e-02
3.685285263327964003e+03 8.082458701430288439e-01 1.081845055154889365e-02
3.688970548591293209e+03 8.059600855408707298e-01 1.030066476546932612e-02
3.692659519139885560e+03 8.137606234699940044e-01 1.079319027117063394e-02
3.696352178659026777e+03 8.251752378236376639e-01 1.148659495944689621e-02
3.700048530837686940e+03 8.472576186654944275e-01 1.252261609538312184e-02
3.703748579368525952e+03 8.738643765701369359e-01 1.259381716383255884e-02
3.707452327947895355e+03 9.016143860937538834e-01 1.128621656645564277e-02
3.711159780275844696e+03 9.316443071776676632e-01 8.556304103163095073e-03
3.714870940056121526e+03 9.571544865146698333e-01 7.478583053014707660e-03
3.718585810996179134e+03 9.797832250633572437e-01 7.258648631691648999e-03
3.722304396807176545e+03 9.949794932081107435e-01 7.241379305369809345e-03
3.726026701203984885e+03 1.001918529846451911e+00 7.216802507908925447e-03
3.729752727905190113e+03 1.000403054742016407e+00 5.865872333311568723e-03
3.733482480633096657e+03 9.957274673012264099e-01 6.147656103261829250e-03
3.737215963113731050e+03 9.885664275093065667e-01 6.428993373308672203e-03
3.740953179076846027e+03 9.746222168283308340e-01 6.070026099218376638e-03
3.744694132255923705e+03 9.538536405586286460e-01 6.312626108689968485e-03
3.748438826388181042e+03 9.260244073643563167e-01 8.897528201723296087e-03
3.752187265214570289e+03 8.950425156170983554e-01 1.033851513574610657e-02
3.755939452479786269e+03 8.674778348333922473e-01 1.114099141243347392e-02
3.759695391932267285e+03 8.461790511386269031e-01 1.058084445729254135e-02
3.763455087324201031e+03 8.298965696849480711e-01 9.353248982864209929e-03
3.767218542411526414e+03 8.235925764400872096e-01 8.798802359782028487e-03
3.770985760953939007e+03 8.269045172010910383e-01 9.234416446159927211e-03
3.774756746714894234e+03 8.415174392178702556e-01 1.101256842164369254e-02
3.778531503461610555e+03 8.642854804877754260e-01 1.113978867104662221e-02
3.782310034965073100e+03 8.951791986477419805e-01 9.063931707219792175e-03
3.786092345000039586e+03 9.282422269419819960e-01 6.894784352942396818e-03
3.789878437345040766e+03 9.590516204694918834e-01 6.715182939691284950e-03
3.793668315782387253e+03 9.893528332350275400e-01 6.945294485840911199e-03
3.797461984098170888e+03 1.016801584553402860e+00 6.762867730598852781e-03
3.801259446082270188e+03 1.044888061406608060e+00 7.124307322544660981e-03
3.805060705528353537e+03 1.068437002360230759e+00 5.869051992955452365e-03
3.808865766233883278e+03 1.091790317357560935e+00 4.859687376280116128e-03
3.812674632000118436e+03 1.116098191655143124e+00 4.840300209890313968e-03
3.816487306632119726e+03 1.144918787904163349e+00 4.922136253305444027e-03
3.820303793938753188e+03 1.175539208574185590e+00 3.734378937796349260e-03
3.824124097732693372e+03 1.204413015169458534e+00 3.646100499506352288e-03
3.827948221830427428e+03 1.231470249051805244e+00 5.316458368810246700e-03
3.831776170052258749e+03 1.261536945176290780e+00 5.160993861805572222e-03
3.835607946222312421e+03 1.293238929990412345e+00 4.430748702860335883e-03
3.839443554168536139e+03 1.326895999620507638e+00 4.381163051103919258e-03
3.843282997722705659e+03 1.366672902240854359e+00 4.369389038250436237e-03
3.847126280720429804e+03 1.412441074611884950e+00 6.564536558317754164e-03
3.850973407001151372e+03 1.456910194759901245e+00 6.431901446824552469e-03
3.854824380408153957e+03 1.499956310516507907e+00 6.519280021557671140e-03
3.858679204788563311e+03 1.539650243080731284e+00 5.795653063057310678e-03
3.862537883993353262e+03 1.572877832976876666e+00 5.262861246239635207e-03
3.866400421877347981e+03 1.598571854558003880e+00 5.732332946582833523e-03
3.870266822299226533e+03 1.618339370620932804e+00 6.562377435193612364e-03
3.874137089121526969e+03 1.634742822723443512e+00 6.520782974907629592e-03
3.878011226210649966e+03 1.647702871464459484e+00 6.305810168476493408e-03
3.881889237436861549e+03 1.657791298259258195e+00 5.942327130446208375e-03
3.885771126674299921e+03 1.665658932246815827e+00 4.700427135370284504e-03
3.889656897800975457e+03 1.678042844063419858e+00 7.324430187296318041e-03
3.893546554698777527e+03 1.687166717831583451e+00 8.252764437906323289e-03
3.897440101253477678e+03 1.689392868596246045e+00 7.461476670987426084e-03
3.901337541354732366e+03 1.685672975082216807e+00 7.828585629300404206e-03
3.905238878896088409e+03 1.681222292750284009e+00 8.400068995210485320e-03
3.909144117774985716e+03 1.673016380359459543e+00 1.013159556465345092e-02
3.913053261892762293e+03 1.663340939490633108e+00 9.457595123572885495e-03
3.916966315154656058e+03 1.662707631824686505e+00 8.654666204500642210e-03
3.920883281469812118e+03 1.668710100541566099e+00 9.346700420553084865e-03
3.924804164751283224e+03 1.676052117164705146e+00 9.904120833735253343e-03
3.928728968916035683e+03 1.688923591983594985e+00 1.063068664116315239e-02
3.932657697884953450e+03 1.702403588060766415e+00 1.001041892566669617e-02
3.936590355582839493e+03 1.715539584989087540e+00 9.240453994281600664e-03
3.940526945938423523e+03 1.726905285814175128e+00 9.324139953887283783e-03
3.944467472884363360e+03 1.737999581817738060e+00 9.256315677603299194e-03
3.948411940357249023e+03 1.746532966854762225e+00 9.248336944443108151e-03
3.952360352297607733e+03 1.749163515455135265e+00 8.848090522120932722e-03
3.956312712649906643e+03 1.747951197431734105e+00 7.443615383325431073e-03
3.960269025362557841e+03 1.746187102476000064e+00 8.198752221754401423e-03
3.964229294387921527e+03 1.744048543649115102e+00 8.451585072340348295e-03
3.968193523682310570e+03 1.736559037622364077e+00 7.298367336313973247e-03
3.972161717205994591e+03 1.722381465986737581e+00 7.032312897103640270e-03
3.976133878923201792e+03 1.704155761270599978e+00 6.944317476469673810e-03
3.980110012802126221e+03 1.680619279114442532e+00 7.425192735727254023e-03
3.984090122814929600e+03 1.650898482159358638e+00 6.958286357651328850e-03
3.988074212937745870e+03 1.618318743364419277e+00 4.799170761051575231e-03
3.992062287150684824e+03 1.588483685030042558e+00 3.996384436968458340e-03
3.996054349437837118e+03 1.561919239001487991e+00 3.980662212042505345e-03
4.000050403787276082e+03 1.538973417272180066e+00 4.391781956639311153e-03
4.004050454191064546e+03 1.519658050098297020e+00 3.766409926143106292e-03
4.008054504645257111e+03 1.500976841261077110e+00 3.696871982190776205e-03
4.012062559149903791e+03 1.485710439778446856e+00 3.570370596804880916e-03
4.016074621709055009e+03 1.471115995326527148e+00 3.527713521288111664e-03
4.020090696330765240e+03 1.461931617686617946e+00 4.215784227729543754e-03
4.024110787027097558e+03 1.449945944351525462e+00 4.206532789577403265e-03
4.028134897814125907e+03 1.437258412997304946e+00 4.063938840257133416e-03
4.032163032711941469e+03 1.428094861914583458e+00 4.101565653628339546e-03
4.036195195744654484e+03 1.423478869811917624e+00 3.959620728461198981e-03
4.040231390940400615e+03 1.420942412689648604e+00 3.928559987059317832e-03
4.044271622331342314e+03 1.419329062826439891e+00 3.818918509609064722e-03
4.048315893953675186e+03 1.420817522646154796e+00 4.034058662171921550e-03
4.052364209847629809e+03 1.423136574369445961e+00 4.022298720400730929e-03
4.056416574057479011e+03 1.426918042185667312e+00 4.133803464531315454e-03
4.060472990631537868e+03 1.430884751405912647e+00 4.109156546084192715e-03
4.064533463622170530e+03 1.434116846554117197e+00 4.093666977341921948e-03
4.068597997085794304e+03 1.436799253201910043e+00 4.229222844607146738e-03
4.072666595082881486e+03 1.440692727098341841e+00 4.177932847036370384e-03
4.076739261677965715e+03 1.443319978607531029e+00 4.022867896078555390e-03
4.080816000939644709e+03 1.442658145400094627e+00 3.983887111438135821e-03
4.084896816940585722e+03 1.438277133031794719e+00 3.534964327022514785e-03
4.088981713757527814e+03 1.433543404745057703e+00 4.190322444158811957e-03
4.093070695471286854e+03 1.426101806418802909e+00 5.004506168592988240e-03
4.097163766166759160e+03 1.415336906363029890e+00 3.621887620208486414e-03
4.101260929932927866e+03 1.399366903928742856e+00 3.971634114991354041e-03
4.105362190862862008e+03 1.379717989983205495e+00 5.278718102136382637e-03
4.109467553053726078e+03 1.360059969906627808e+00 5.663536895768165637e-03
4.113577020606780934e+03 1.341459123311275148e+00 5.489193321231359071e-03
4.117690597627389252e+03 1.326090788723969460e+00 4.808107627199367795e-03
4.121808288225018259e+03 1.313579767803159326e+00 4.247606341606842764e-03
4.125930096513244280e+03 1.307810450412904224e+00 5.217843563330859177e-03
4.130056026609759101e+03 1.304214002487650959e+00 5.646964745530493220e-03
4.134186082636369974e+03 1.304117726091970075e+00 5.072089760619838926e-03
4.138320268719007800e+03 1.306225419213372874e+00 4.471147119893959312e-03
4.142458588987728035e+03 1.308574143452699845e+00 4.899886158873729275e-03
4.146601047576717065e+03 1.313160228016737374e+00 5.081383315156548508e-03
4.150747648624294925e+03 1.320681291142232094e+00 5.123105218890117163e-03
4.154898396272920763e+03 1.328443860695979195e+00 4.778998986002814565e-03
4.159053294669195566e+03 1.337806449134939735e+00 4.071174928230719171e-03
4.163212347963865795e+03 1.349297754304001007e+00 4.072271713416306636e-03
4.167375560311830668e+03 1.364172977827105449e+00 4.895036063539331093e-03
4.171542935872143971e+03 1.380189446134018283e+00 4.987959272029441650e-03
4.175714478808017702e+03 1.389420483796186989e+00 4.554882295772092263e-03
4.179890193286827525e+03 1.396925894796473333e+00 3.453096307390552365e-03
4.184070083480115500e+03 1.397152362424200822e+00 4.088344931621121225e-03
4.188254153563597356e+03 1.392407470434719352e+00 5.593980488091848322e-03
4.192442407717161586e+03 1.386014783847554721e+00 5.169995287949796098e-03
4.196634850124880359e+03 1.378645558428107210e+00 4.926210171059163673e-03
4.200831484975006788e+03 1.368265373961402132e+00 4.380561223794074248e-03
4.205032316459983122e+03 1.358857455180908946e+00 4.374436689390828054e-03
4.209237348776444378e+03 1.348202797188596813e+00 4.634418557780600745e-03
4.213446586125221984e+03 1.338458148005840620e+00 5.179597786226829495e-03
4.217660032711349231e+03 1.333192396227279808e+00 5.145177165537082216e-03
4.221877692744061278e+03 1.328868942919726903e+00 5.055739534470362131e-03
4.226099570436806971e+03 1.328284526911217123e+00 5.247808684988987914e-03
4.230325670007245208e+03 1.327619537144397954e+00 5.239793470566415229e-03
4.234555995677254032e+03 1.326808764777703376e+00 5.337804744825969810e-03
4.238790551672932452e+03 1.325214623993310914e+00 5.429315381564302385e-03
4.243029342224606808e+03 1.322668623385751863e+00 5.568718066219485903e-03
4.247272371566832589e+03 1.319172338424065005e+00 5.369115141478801589e-03
4.251519643938400804e+03 1.313198888636120554e+00 4.325891466166751145e-03
4.255771163582340705e+03 1.300094053648899184e+00 4.623215764467367844e-03
4.260026934745924336e+03 1.284922232025777822e+00 4.624088843083365430e-03
4.264286961680671993e+03 1.263990860269868177e+00 4.344312112329076075e-03
4.268551248642354039e+03 1.238826373281869175e+00 2.555469229420397493e-03
4.272819799890998183e+03 1.215398649593408376e+00 2.311129191333311048e-03
4.277092619690890388e+03 1.192685253084807107e+00 2.289211543521720016e-03
4.281369712310583054e+03 1.170226390151990481e+00 2.661613024118990832e-03
4.285651082022895025e+03 1.149707739810279294e+00 3.232933242092840467e-03
4.289936733104918858e+03 1.131274491641959923e+00 2.931877266476241514e-03
4.294226669838025373e+03 1.116114700599019072e+00 2.345300043754486394e-03
4.298520896507864563e+03 1.107085359793016144e+00 3.632422637573198831e-03
4.302819417404373780e+03 1.098608120547687861e+00 3.967409683374522635e-03
4.307122236821779552e+03 1.092968835128068639e+00 4.159168708192865008e-03
4.311429359058603040e+03 1.084851816696106086e+00 3.979920466105931268e-03
4.315740788417662770e+03 1.076130096681363391e+00 3.783343529610455093e-03
4.320056529206081905e+03 1.067128258938672802e+00 3.707304231218319906e-03
4.324376585735290064e+03 1.056030898024115761e+00 3.740808421448895728e-03
4.328700962321026054e+03 1.043686814319580103e+00 4.043713687803996044e-03
4.333029663283348782e+03 1.031069558088600013e+00 3.993935192222697501e-03
4.337362692946633615e+03 1.016851305353647872e+00 3.371429684213750333e-03
4.341700055639581478e+03 1.004331387190997571e+00 3.058382793521888937e-03
4.346041755695222491e+03 9.939360829204320069e-01 2.871332060544503316e-03
4.350387797450919606e+03 9.863711909186699822e-01 2.873381571486109242e-03
4.354738185248371337e+03 9.843372458385108992e-01 2.732337117081970468e-03
4.359092923433621763e+03 9.859494744193424420e-01 2.806554742105569003e-03
4.363452016357056891e+03 9.912756413471390804e-01 2.800365203474799482e-03
4.367815468373414660e+03 1.000644241865160211e+00 2.637080776817425469e-03
4.372183283841789489e+03 1.013846692180411457e+00 2.612704479313917964e-03
4.376555467125633186e+03 1.030331438120438703e+00 2.633390181057890245e-03
4.380932022592760404e+03 1.051529231224374028e+00 2.672776670447604957e-03
4.385312954615354101e+03 1.073370645870158180e+00 2.723149756540380485e-03
4.389698267569970994e+03 1.096911773587253114e+00 1.984438373257054432e-03
4.394087965837542470e+03 1.117747938990197865e+00 1.912759675399977252e-03
4.398482053803381859e+03 1.137651981180046956e+00 2.274806361532495224e-03
4.402880535857186260e+03 1.155695308335524141e+00 2.012201100834651313e-03
4.407283416393044718e+03 1.165782397401297521e+00 2.982717032569430406e-03
4.411690699809440048e+03 1.172888766111795489e+00 3.345796401768572677e-03
4.416102390509250654e+03 1.179520549562371290e+00 3.325355284172879563e-03
4.420518492899761441e+03 1.183790458356645203e+00 3.245651745953679907e-03
4.424939011392662906e+03 1.186751074687288465e+00 3.372779664023911172e-03
4.429363950404056595e+03 1.190038169022715753e+00 3.366595764330472182e-03
4.433793314354462382e+03 1.194492936423185769e+00 3.128636769170522157e-03
4.438227107668818462e+03 1.201045849368728380e+00 3.115146033761325393e-03
4.442665334776488635e+03 1.210505107503818678e+00 2.881598917524034152e-03
4.447108000111265937e+03 1.224729573763739365e+00 3.156483723511813687e-03
4.451555108111379013e+03 1.242048750847910110e+00 3.132372590871412149e-03
4.456006663219492111e+03 1.261577924716958288e+00 3.040040982546812938e-03
4.460462669882713271e+03 1.282383415884575051e+00 3.012992567421374137e-03
4.464923132552597053e+03 1.305366941725428553e+00 2.927985038405256542e-03
4.469388055685150903e+03 1.329605459014232105e+00 3.278887024646361201e-03
