# starting wavelength: 3194.640
# ending wavelength: 7691.190
# wav flux eflux
3.197658705154353811e+03 1.411709406675813572e+00 8.201884968028261280e-03
3.200856363859509202e+03 1.421904611873037627e+00 6.033042086991472798e-03
3.204057220223369768e+03 1.429599152540227625e+00 5.035626993721351377e-03
3.207261277443593826e+03 1.433861931924058197e+00 3.803292690762335136e-03
3.210468538721038840e+03 1.435036587281542264e+00 2.912768816613445309e-03
3.213679007259760965e+03 1.433355491519543667e+00 2.780229654212836195e-03
3.216892686267021418e+03 1.430804899510841555e+00 2.447538171681669286e-03
3.220109578953289656e+03 1.427895967362965424e+00 2.009280730074895511e-03
3.223329688532243836e+03 1.424549490073157898e+00 1.665134304956491238e-03
3.226553018220777176e+03 1.420996600465809001e+00 1.491265124583945455e-03
3.229779571238999324e+03 1.417496120784808467e+00 1.273776145553368955e-03
3.233009350810239084e+03 1.414869143443885369e+00 1.498218074547261755e-03
3.236242360161050783e+03 1.412849642144911710e+00 1.585118911179799308e-03
3.239478602521212906e+03 1.411169904153699362e+00 1.558937445416134137e-03
3.242718081123734919e+03 1.409478032819327487e+00 1.458577250960859913e-03
3.245960799204859995e+03 1.407938950706668191e+00 1.379999762748318308e-03
3.249206760004065927e+03 1.406742967913568787e+00 1.332963660081564220e-03
3.252455966764071036e+03 1.406065307611184201e+00 1.312956828368314803e-03
3.255708422730835991e+03 1.406128000988021265e+00 1.321213784676014387e-03
3.258964131153567905e+03 1.407052083052858560e+00 1.366598081891120305e-03
3.262223095284722604e+03 1.408954212452789179e+00 1.402743637392534935e-03
3.265485318380008266e+03 1.411940069351830251e+00 1.397044261832293324e-03
3.268750803698389518e+03 1.416079359986555986e+00 1.395048612957606841e-03
3.272019554502088795e+03 1.421123528898523780e+00 1.408394906387821230e-03
3.275291574056592253e+03 1.426646336778508495e+00 1.437716491081992252e-03
3.278566865630649772e+03 1.433425631747668572e+00 1.498768436779244215e-03
3.281845432496281319e+03 1.441069046232803963e+00 1.590805667195743572e-03
3.285127277928778767e+03 1.449209883313033798e+00 1.643699274781953686e-03
3.288412405206708627e+03 1.457521114488115721e+00 1.660988133885745984e-03
3.291700817611916591e+03 1.466239633972194145e+00 1.698803661224627167e-03
3.294992518429529355e+03 1.475562958897282506e+00 1.823794792995651892e-03
3.298287510947960072e+03 1.485182063643534445e+00 1.885796184051307311e-03
3.301585798458909267e+03 1.494849242653935706e+00 1.883036228141350471e-03
3.304887384257369376e+03 1.504526724125131887e+00 1.782102262498777958e-03
3.308192271641627485e+03 1.513898057343597614e+00 1.602900977967456567e-03
3.311500463913270323e+03 1.522779700366698963e+00 1.395279474370532792e-03
3.314811964377184722e+03 1.530921840237296161e+00 1.285566438133601804e-03
3.318126776341563072e+03 1.538077954890920029e+00 1.355709170497052755e-03
3.321444903117905596e+03 1.544853251991801679e+00 1.400522986911804848e-03
3.324766348021024896e+03 1.550372100706601364e+00 1.583696140052088088e-03
3.328091114369046863e+03 1.555251423356752261e+00 1.722280283510441547e-03
3.331419205483417045e+03 1.559822499096036097e+00 1.790685715164455627e-03
3.334750624688901553e+03 1.563756464818019110e+00 1.647388602535569896e-03
3.338085375313591612e+03 1.567301742165772893e+00 1.260751257911778148e-03
3.341423460688906289e+03 1.570637017521562706e+00 8.620441873738624809e-04
3.344764884149596128e+03 1.575405866720265280e+00 1.044794078378453832e-03
3.348109649033746791e+03 1.579972863243298553e+00 1.115281937110635920e-03
3.351457758682781787e+03 1.584256068674310569e+00 1.091164562303108092e-03
3.354809216441465651e+03 1.588212079545393562e+00 1.073942541068460257e-03
3.358164025657908041e+03 1.592140707741577232e+00 1.047906434749264508e-03
3.361522189683567376e+03 1.595998590496229719e+00 1.028151485227764370e-03
3.364883711873251741e+03 1.599645717197647921e+00 1.030061647820065904e-03
3.368248595585126168e+03 1.603130725398848044e+00 1.063866159411008382e-03
3.371616844180712633e+03 1.606506290201775489e+00 1.062691195310882858e-03
3.374988461024894150e+03 1.609795626156873771e+00 1.068257758484638352e-03
3.378363449485920228e+03 1.613174775201343003e+00 1.064506294807894462e-03
3.381741812935407324e+03 1.616571493309358676e+00 1.054428374692714838e-03
3.385123554748343849e+03 1.619771903484928055e+00 1.100291292232933585e-03
3.388508678303093347e+03 1.622692340628259622e+00 1.116700614440953613e-03
3.391897186981397681e+03 1.625242568418865829e+00 1.049762901318446401e-03
3.395289084168380214e+03 1.627688575883851296e+00 8.669143472290012902e-04
3.398684373252549449e+03 1.630465763480792196e+00 8.138208720870103918e-04
3.402083057625803121e+03 1.633399051608374286e+00 8.224826691673288925e-04
3.405485140683430018e+03 1.636386193517856080e+00 8.414358261926589613e-04
3.408890625824114522e+03 1.639340665403242525e+00 8.452647122092514032e-04
3.412299516449939802e+03 1.642243738643499151e+00 8.374858123520584601e-04
3.415711815966390986e+03 1.645186178119712572e+00 7.854054067808513865e-04
3.419127527782358356e+03 1.647811486500268652e+00 6.945427345278001614e-04
3.422546655310141887e+03 1.649900799536687668e+00 6.233248259049825038e-04
3.425969201965453522e+03 1.651201799863029507e+00 6.307644990841075041e-04
3.429395171167419903e+03 1.651340590117974294e+00 6.562517504257735527e-04
3.432824566338588284e+03 1.650775101688938706e+00 7.067423794755395370e-04
3.436257390904928343e+03 1.649344557784938825e+00 7.912654368149226467e-04
3.439693648295834464e+03 1.646969792985158110e+00 8.263596715567639002e-04
3.443133341944131189e+03 1.643606977536322011e+00 6.704806620362732325e-04
3.446576475286076402e+03 1.638986793820030208e+00 3.801580348457370422e-04
3.450023051761363604e+03 1.632749868888968781e+00 2.893337226610017483e-04
3.453473074813126004e+03 1.624964221314233903e+00 3.427183285588884234e-04
3.456926547887940615e+03 1.615834073050338437e+00 3.850100316850101675e-04
3.460383474435829612e+03 1.605752847542443185e+00 3.963192427338627522e-04
3.463843857910266706e+03 1.594417095344948576e+00 4.658484527847962992e-04
3.467307701768178049e+03 1.582144093085366521e+00 5.404552903097271195e-04
3.470775009469947236e+03 1.569239404947260885e+00 6.618894204090078771e-04
3.474245784479418489e+03 1.555478202579195779e+00 7.164242601093409775e-04
3.477720030263898934e+03 1.541932359692010257e+00 8.102337267950849914e-04
3.481197750294164052e+03 1.528653920950495904e+00 7.820966320328541412e-04
3.484678948044459503e+03 1.515945995639472077e+00 6.257643121352945070e-04
3.488163626992504760e+03 1.504139115336632138e+00 4.521143117252886907e-04
3.491651790619498570e+03 1.493502181504282378e+00 4.855616383625762549e-04
3.495143442410119405e+03 1.483911397979129410e+00 5.411672384885177298e-04
3.498638585852530468e+03 1.475243868912802681e+00 5.629513409930319992e-04
3.502137224438384237e+03 1.467603225759231744e+00 5.712911547887949840e-04
3.505639361662823831e+03 1.460859831971069722e+00 5.892050326881771239e-04
3.509145001024487556e+03 1.455403039285478206e+00 5.857749754625969337e-04
3.512654146025513455e+03 1.450744972287845158e+00 6.334599668842475330e-04
3.516166800171540217e+03 1.446954717959679337e+00 5.629534819711278729e-04
3.519682966971712631e+03 1.443114563822453400e+00 5.632996244981572495e-04
3.523202649938685681e+03 1.439503126698653546e+00 5.019759445873583003e-04
3.526725852588625457e+03 1.435824736929915524e+00 4.401844652772135525e-04
3.530252578441215064e+03 1.431979219598874531e+00 4.349783265000030136e-04
3.533782831019657806e+03 1.427819694694379749e+00 4.720604457723578864e-04
3.537316613850678550e+03 1.423511787826360786e+00 4.641584608637946063e-04
3.540853930464530094e+03 1.419017940609688111e+00 4.331698073706017021e-04
3.544394784394995895e+03 1.414339508149353053e+00 4.229593446572683696e-04
3.547939179179392340e+03 1.409529731097539651e+00 4.234427351672782392e-04
3.551487118358572843e+03 1.404591326493001224e+00 4.429505355213121968e-04
3.555038605476932389e+03 1.399511032749313433e+00 4.388435704148855318e-04
3.558593644082410719e+03 1.394144864548937601e+00 4.749136291058397808e-04
3.562152237726494150e+03 1.388429019833078426e+00 4.376149085036729687e-04
3.565714389964221937e+03 1.382959587381785482e+00 4.082848569031509445e-04
3.569280104354187188e+03 1.377759923437681833e+00 4.166224728359602288e-04
3.572849384458542772e+03 1.372788401145751624e+00 3.994346554191310211e-04
3.576422233843002232e+03 1.367929277267037280e+00 4.013322444666727207e-04
3.579998656076846601e+03 1.363006768275343505e+00 5.405314330767962321e-04
3.583578654732924406e+03 1.358296909058176238e+00 5.466544885260913667e-04
3.587162233387658489e+03 1.354127250028544394e+00 4.157797341824917298e-04
3.590749395621047370e+03 1.350599412259434473e+00 4.094751206007664801e-04
3.594340145016669794e+03 1.347386016184104474e+00 4.309480967193305236e-04
3.597934485161687462e+03 1.344539122243987306e+00 4.406049625059281342e-04
3.601532419646850485e+03 1.342003411201872165e+00 4.800308870823605809e-04
3.605133952066498296e+03 1.339454527950007856e+00 4.889922464690578873e-04
3.608739086018566013e+03 1.336634562804659421e+00 5.457774891760066704e-04
3.612347825104585809e+03 1.333248283801192313e+00 6.618926694734516896e-04
3.615960172929691907e+03 1.329012674703391683e+00 6.639210080806262713e-04
3.619576133102622407e+03 1.323650496880393934e+00 6.219326050032157735e-04
3.623195709235726554e+03 1.316598949186805756e+00 5.259266899768086714e-04
3.626818904944963379e+03 1.307636509073638154e+00 4.290195932711212421e-04
3.630445723849909427e+03 1.296594205171935910e+00 4.832747144767949015e-04
3.634076169573760581e+03 1.283419381016857708e+00 6.405026944353742636e-04
3.637710245743335690e+03 1.268787908354206406e+00 6.946955139309273853e-04
3.641347955989080219e+03 1.253285581294656392e+00 6.787725072624362782e-04
3.644989303945070333e+03 1.236844013527138131e+00 7.229375493065072836e-04
3.648634293249016537e+03 1.220022119882775424e+00 7.244843484817621755e-04
3.652282927542266862e+03 1.203094033992524015e+00 6.316187965283558831e-04
3.655935210469810499e+03 1.186456854208189693e+00 4.243380278394295619e-04
3.659591145680281443e+03 1.170742416968374222e+00 2.900797584550123356e-04
3.663250736825963031e+03 1.156426933644067345e+00 3.041849311153136358e-04
3.666913987562790226e+03 1.143384498069025756e+00 2.791212830650473264e-04
3.670580901550354156e+03 1.131421208745628126e+00 2.641512225497689363e-04
3.674251482451905758e+03 1.120779045388852424e+00 2.550263989789347367e-04
3.677925733934358959e+03 1.110989387925312988e+00 3.473551060271939527e-04
3.681603659668294313e+03 1.102155501237827240e+00 3.951399247392029901e-04
3.685285263327964003e+03 1.093963653883121223e+00 3.869018327524676652e-04
3.688970548591293209e+03 1.086246220273850760e+00 3.804877189766046430e-04
3.692659519139885560e+03 1.079057911628551913e+00 3.487899811044673729e-04
3.696352178659026777e+03 1.072167234838216743e+00 5.363893833453149814e-04
3.700048530837686940e+03 1.065861890993952121e+00 6.246878186123626473e-04
3.703748579368525952e+03 1.060104769340744379e+00 5.932309022296821700e-04
3.707452327947895355e+03 1.054851472922559763e+00 4.951068947562692248e-04
3.711159780275844696e+03 1.050197902497937097e+00 5.353641840064825557e-04
3.714870940056121526e+03 1.045825612635228552e+00 5.817441927569887887e-04
3.718585810996179134e+03 1.041600192915110856e+00 5.810757201373928761e-04
3.722304396807176545e+03 1.037389968130536522e+00 5.441754961103547695e-04
3.726026701203984885e+03 1.032884319104488302e+00 4.983489142020138072e-04
3.729752727905190113e+03 1.027819330512419471e+00 4.464908976655434765e-04
3.733482480633096657e+03 1.021996911835336475e+00 4.249189389886866503e-04
3.737215963113731050e+03 1.014950316090133420e+00 4.347274994028725581e-04
3.740953179076846027e+03 1.006454633936838539e+00 4.444305227198252681e-04
3.744694132255923705e+03 9.968331279641771125e-01 4.955447071735985401e-04
3.748438826388181042e+03 9.860102130275684162e-01 5.465031969819721244e-04
3.752187265214570289e+03 9.740500999931389625e-01 5.141479352956805941e-04
3.755939452479786269e+03 9.611533906583027420e-01 5.073835688508605444e-04
3.759695391932267285e+03 9.477487208327562973e-01 7.543244258379561617e-04
3.763455087324201031e+03 9.343866567734081530e-01 1.073748661690719598e-03
3.767218542411526414e+03 9.218673584479949445e-01 1.115788906688816194e-03
3.770985760953939007e+03 9.113655983970585517e-01 9.881253371861039789e-04
3.774756746714894234e+03 9.037548597901500225e-01 7.622392621889133258e-04
3.778531503461610555e+03 8.999906628154773491e-01 5.374919324375144287e-04
3.782310034965073100e+03 9.004842057124945454e-01 4.495262451701704663e-04
3.786092345000039586e+03 9.055965859941088603e-01 4.289137049242368262e-04
3.789878437345040766e+03 9.154801171984887631e-01 4.512558254835145671e-04
3.793668315782387253e+03 9.302182362120877679e-01 4.816477551289795604e-04
3.797461984098170888e+03 9.494868500036685033e-01 4.463478136563114765e-04
3.801259446082270188e+03 9.729369483646788108e-01 3.741552109797291687e-04
3.805060705528353537e+03 1.000167745950334197e+00 2.591409982984407552e-04
3.808865766233883278e+03 1.030517817863542351e+00 3.145440796327267797e-04
3.812674632000118436e+03 1.063428340956391160e+00 5.507752761761346800e-04
3.816487306632119726e+03 1.098371580445343998e+00 7.502157355733079245e-04
3.820303793938753188e+03 1.134512684719219289e+00 7.914282904431687009e-04
3.824124097732693372e+03 1.171028539094774779e+00 6.881500603843274241e-04
3.827948221830427428e+03 1.207067043110767068e+00 4.825711801169698940e-04
3.831776170052258749e+03 1.241904479015660812e+00 4.083855542056394295e-04
3.835607946222312421e+03 1.275233130658103287e+00 5.003679140563674224e-04
3.839443554168536139e+03 1.306923732139600336e+00 6.064396719064602242e-04
3.843282997722705659e+03 1.336867910465156628e+00 6.256810297174630843e-04
3.847126280720429804e+03 1.365160697697093140e+00 5.320046352472148406e-04
3.850973407001151372e+03 1.391762507891550982e+00 5.233748300915853739e-04
3.854824380408153957e+03 1.416251608693158914e+00 4.739050638450545655e-04
3.858679204788563311e+03 1.438944838545621385e+00 5.279094986474985266e-04
3.862537883993353262e+03 1.460095254731460068e+00 6.297173272749020728e-04
3.866400421877347981e+03 1.480009597221178863e+00 6.606137490706675804e-04
3.870266822299226533e+03 1.498570450521050423e+00 6.579302985525701825e-04
3.874137089121526969e+03 1.515750680363248559e+00 6.870103099937559764e-04
3.878011226210649966e+03 1.531371616720269557e+00 8.176200653897524456e-04
3.881889237436861549e+03 1.545254266991541670e+00 9.481796707618681984e-04
3.885771126674299921e+03 1.557337339304481594e+00 9.943746302762002803e-04
3.889656897800975457e+03 1.567334197405922946e+00 9.384297046652977483e-04
3.893546554698777527e+03 1.575346165191798598e+00 9.924082760359184772e-04
3.897440101253477678e+03 1.581744804123318415e+00 1.145828709830629382e-03
3.901337541354732366e+03 1.586717118312473307e+00 1.313792190653877926e-03
3.905238878896088409e+03 1.590588144318270558e+00 1.321866203658278059e-03
3.909144117774985716e+03 1.593744102897889370e+00 1.156323707518141630e-03
3.913053261892762293e+03 1.596459837608312338e+00 9.838518493824669180e-04
3.916966315154656058e+03 1.598967835789878222e+00 1.054038450230629451e-03
3.920883281469812118e+03 1.601487502763693005e+00 1.156333944354240913e-03
3.924804164751283224e+03 1.603601034784480683e+00 9.886372206673018151e-04
3.928728968916035683e+03 1.604937222272266650e+00 9.025481514247504300e-04
3.932657697884953450e+03 1.605586349440203842e+00 9.122862056616994758e-04
3.936590355582839493e+03 1.605360090247423210e+00 9.328457983154916922e-04
3.940526945938423523e+03 1.604296651584752542e+00 9.332428075738778131e-04
3.944467472884363360e+03 1.602005311864606929e+00 9.651615929394690872e-04
3.948411940357249023e+03 1.598500923178903355e+00 1.116992290999708950e-03
3.952360352297607733e+03 1.593579803950114560e+00 1.226911468030626208e-03
3.956312712649906643e+03 1.586956368658844818e+00 1.165832702786685727e-03
3.960269025362557841e+03 1.578607720061694142e+00 1.027150465969890389e-03
3.964229294387921527e+03 1.568350997318366913e+00 1.075015399811590647e-03
3.968193523682310570e+03 1.556283701763642169e+00 1.257194848389613226e-03
3.972161717205994591e+03 1.542867281773653065e+00 1.302860548586485569e-03
3.976133878923201792e+03 1.528305688472263446e+00 1.156229140959892784e-03
3.980110012802126221e+03 1.513090239111603452e+00 9.729173276037367908e-04
3.984090122814929600e+03 1.497494005794505867e+00 9.745098759962326140e-04
3.988074212937745870e+03 1.481803999972959529e+00 1.059132477227628898e-03
3.992062287150684824e+03 1.466132159250663314e+00 9.797984385559676233e-04
3.996054349437837118e+03 1.450418359619973785e+00 7.450255543071868103e-04
4.000050403787276082e+03 1.434427700123171556e+00 7.280563758178222123e-04
4.004050454191064546e+03 1.418256120519250540e+00 8.955136454771518879e-04
4.008054504645257111e+03 1.402473428689622104e+00 9.513682601753431457e-04
4.012062559149903791e+03 1.387309262311579916e+00 8.195951068697619572e-04
4.016074621709055009e+03 1.373371138557828885e+00 6.280520207950529999e-04
4.020090696330765240e+03 1.360821963200572027e+00 4.707188196035991972e-04
4.024110787027097558e+03 1.350026673359885576e+00 6.518817778366193215e-04
4.028134897814125907e+03 1.340723919298299371e+00 7.864681099157144620e-04
4.032163032711941469e+03 1.332398046190838459e+00 7.366495189171914709e-04
4.036195195744654484e+03 1.324701292502612926e+00 5.293204689814592521e-04
4.040231390940400615e+03 1.317307078352233152e+00 2.989408284183496869e-04
4.044271622331342314e+03 1.309855068182893545e+00 2.951674330444237671e-04
4.048315893953675186e+03 1.302399601491648573e+00 3.854633602779114596e-04
4.052364209847629809e+03 1.294931962488441890e+00 4.612724612372737817e-04
4.056416574057479011e+03 1.287763522106395220e+00 4.888358046765831424e-04
4.060472990631537868e+03 1.280913592375811261e+00 4.428804912029083601e-04
4.064533463622170530e+03 1.274580009537445324e+00 3.204913658411509981e-04
4.068597997085794304e+03 1.268803539407672432e+00 2.863596018148358946e-04
4.072666595082881486e+03 1.263537261607426299e+00 5.473156794398724607e-04
4.076739261677965715e+03 1.258355589616606318e+00 7.275623807187224555e-04
4.080816000939644709e+03 1.252789018630335427e+00 7.838168986411601881e-04
4.084896816940585722e+03 1.246620917459446476e+00 7.536463165163827249e-04
4.088981713757527814e+03 1.239256986657927495e+00 6.422480679753602524e-04
4.093070695471286854e+03 1.230436646544053048e+00 4.749719892831434447e-04
4.097163766166759160e+03 1.220113993093534299e+00 3.837178369846489055e-04
4.101260929932927866e+03 1.208422326923211054e+00 6.013124904257329071e-04
4.105362190862862008e+03 1.195814756103861010e+00 1.020587697115013385e-03
4.109467553053726078e+03 1.183121111011486537e+00 1.260888452694487521e-03
4.113577020606780934e+03 1.171338557330474428e+00 1.265434002922179385e-03
4.117690597627389252e+03 1.161522604985468776e+00 1.096557035303112821e-03
4.121808288225018259e+03 1.154463655220419938e+00 8.375938265757769830e-04
4.125930096513244280e+03 1.150844517809133327e+00 5.988339661850353027e-04
4.130056026609759101e+03 1.151073063357531900e+00 4.131743735397281053e-04
4.134186082636369974e+03 1.155408233054087574e+00 3.678869852336877052e-04
4.138320268719007800e+03 1.163680072580591807e+00 5.592035762387792194e-04
4.142458588987728035e+03 1.175460391539041138e+00 9.731171819538223574e-04
4.146601047576717065e+03 1.189744048155535916e+00 1.291739584348624258e-03
4.150747648624294925e+03 1.205321224299455540e+00 1.304952049477423742e-03
4.154898396272920763e+03 1.220896238206152784e+00 1.258654504974308789e-03
4.159053294669195566e+03 1.235299437596251382e+00 1.187027008393990151e-03
4.163212347963865795e+03 1.247607976072824254e+00 9.926825099815933529e-04
