# starting wavelength: 3505.840
# ending wavelength: 7382.370
# wav flux eflux
3.509145001024487556e+03 1.214026017469840735e+00 1.766699128151390588e-02
3.512654146025513455e+03 1.209706964292797560e+00 1.304169840371692708e-02
3.516166800171540217e+03 1.206570346288397433e+00 9.699270748239936443e-03
3.519682966971712631e+03 1.205025235393044403e+00 7.562408350007487901e-03
3.523202649938685681e+03 1.203925521940812926e+00 6.227225126641412062e-03
3.526725852588625457e+03 1.202216064415971841e+00 5.111884641614049783e-03
3.530252578441215064e+03 1.199772883816428992e+00 4.182360344516371578e-03
3.533782831019657806e+03 1.196794268366893732e+00 3.454652628086500674e-03
3.537316613850678550e+03 1.193494134546395857e+00 2.868522684892452299e-03
3.540853930464530094e+03 1.189786253487749246e+00 2.478558366014953218e-03
3.544394784394995895e+03 1.185402642270622309e+00 2.235110777346962629e-03
3.547939179179392340e+03 1.180529097048587550e+00 2.066268733716215833e-03
3.551487118358572843e+03 1.175170075863976926e+00 1.982486591249695788e-03
3.555038605476932389e+03 1.169676154104855925e+00 1.913506255408261095e-03
3.558593644082410719e+03 1.164149211125477867e+00 1.872450469669540134e-03
3.562152237726494150e+03 1.158655742979040504e+00 1.875959227986691335e-03
3.565714389964221937e+03 1.153418703294070369e+00 1.907101002079866900e-03
3.569280104354187188e+03 1.148636109430806629e+00 1.952332232525377407e-03
3.572849384458542772e+03 1.144552272803894377e+00 1.934820788827446795e-03
3.576422233843002232e+03 1.141161123040234093e+00 1.940729843048006166e-03
3.579998656076846601e+03 1.138071676192117909e+00 1.807213571258129781e-03
3.583578654732924406e+03 1.135800549840186857e+00 1.746497153648726621e-03
3.587162233387658489e+03 1.134347737665460931e+00 1.875831359598585397e-03
3.590749395621047370e+03 1.132339261844020895e+00 1.782423573122721800e-03
3.594340145016669794e+03 1.132947186237832415e+00 2.216299168278850623e-03
3.597934485161687462e+03 1.133976989978624061e+00 2.518171588085612363e-03
3.601532419646850485e+03 1.135309081082597871e+00 2.605199184212178814e-03
3.605133952066498296e+03 1.137036124730102404e+00 2.621576164036677498e-03
3.608739086018566013e+03 1.137738542667840802e+00 2.415143400735326237e-03
3.612347825104585809e+03 1.137302297513230087e+00 2.219556752104286101e-03
3.615960172929691907e+03 1.135434865385057890e+00 2.232619015549455310e-03
3.619576133102622407e+03 1.132669146850515673e+00 2.161436548296110857e-03
3.623195709235726554e+03 1.128929536679419199e+00 2.186936380283271454e-03
3.626818904944963379e+03 1.123828219500966563e+00 2.543511295564895077e-03
3.630445723849909427e+03 1.117896474047405109e+00 3.075836718190955252e-03
3.634076169573760581e+03 1.111597404290808333e+00 3.381579371362953852e-03
3.637710245743335690e+03 1.105377859849210109e+00 3.482577830929060522e-03
3.641347955989080219e+03 1.099331626705602138e+00 3.382299254483626082e-03
3.644989303945070333e+03 1.093259523509100717e+00 3.091560513217554099e-03
3.648634293249016537e+03 1.087492303296649920e+00 2.729199061393702483e-03
3.652282927542266862e+03 1.082664794665463504e+00 2.409295765674443219e-03
3.655935210469810499e+03 1.079580152200936283e+00 2.226064006157654502e-03
3.659591145680281443e+03 1.078197433219784784e+00 2.110380302419398793e-03
3.663250736825963031e+03 1.079138242162145822e+00 2.411426085580880858e-03
3.666913987562790226e+03 1.082103341787136186e+00 3.185539342156356452e-03
3.670580901550354156e+03 1.087289548341595857e+00 3.770953029665480207e-03
3.674251482451905758e+03 1.092286783501190239e+00 3.706015060803263903e-03
3.677925733934358959e+03 1.096937031390953665e+00 3.391220424188846720e-03
3.681603659668294313e+03 1.101363902315725340e+00 3.157635474928199414e-03
3.685285263327964003e+03 1.105864836372371762e+00 3.026694594541357031e-03
3.688970548591293209e+03 1.110248807293257478e+00 2.989136622471439721e-03
3.692659519139885560e+03 1.114449625495420815e+00 3.018944157259579458e-03
3.696352178659026777e+03 1.119051363454385051e+00 3.123240436003057660e-03
3.700048530837686940e+03 1.122352789406263707e+00 3.206581749424854653e-03
3.703748579368525952e+03 1.125450879791599856e+00 3.145138210066740058e-03
3.707452327947895355e+03 1.127147737001370720e+00 2.561651815655492659e-03
3.711159780275844696e+03 1.130416203148642440e+00 2.415979846713977534e-03
3.714870940056121526e+03 1.133697038174014793e+00 2.342892069296218134e-03
3.718585810996179134e+03 1.137473599493437071e+00 2.390440876457731231e-03
3.722304396807176545e+03 1.141528465802373882e+00 2.472262913623562899e-03
3.726026701203984885e+03 1.147070510676806210e+00 2.464172766406203842e-03
3.729752727905190113e+03 1.153590965814355274e+00 2.438424501501796921e-03
3.733482480633096657e+03 1.160878082341796347e+00 2.531207912481848923e-03
3.737215963113731050e+03 1.169071621734536492e+00 2.561848831771398102e-03
3.740953179076846027e+03 1.178253225559358963e+00 2.723542408109101004e-03
3.744694132255923705e+03 1.188105026384062679e+00 2.879038092510927301e-03
3.748438826388181042e+03 1.198724080030239669e+00 2.735373531542747896e-03
3.752187265214570289e+03 1.208309155939277346e+00 3.313958330199972928e-03
3.755939452479786269e+03 1.214675854938122468e+00 3.368691745727671501e-03
3.759695391932267285e+03 1.219142772698500909e+00 3.424213605531084212e-03
3.763455087324201031e+03 1.221480620938450334e+00 3.374109741768496588e-03
3.767218542411526414e+03 1.221538006641044616e+00 3.609483446319926899e-03
3.770985760953939007e+03 1.220692703134505397e+00 3.927298094946328651e-03
3.774756746714894234e+03 1.220639461563253425e+00 4.060919991490915919e-03
3.778531503461610555e+03 1.217145827918155065e+00 4.582387316477308167e-03
3.782310034965073100e+03 1.212816534071660124e+00 4.755966831030549423e-03
3.786092345000039586e+03 1.207136486570095979e+00 4.175630967321509839e-03
3.789878437345040766e+03 1.205324550276530182e+00 3.529550895047530671e-03
3.793668315782387253e+03 1.206001493417234727e+00 3.233720628542120518e-03
3.797461984098170888e+03 1.209250562844486510e+00 3.620879903084153056e-03
3.801259446082270188e+03 1.214947593963948691e+00 4.080215386597784918e-03
3.805060705528353537e+03 1.222711280475559770e+00 4.220083906698058121e-03
3.808865766233883278e+03 1.232153184917964106e+00 3.961664055150687994e-03
3.812674632000118436e+03 1.240460636894319402e+00 3.520769839411569315e-03
3.816487306632119726e+03 1.249046443058051237e+00 2.980164439645160545e-03
3.820303793938753188e+03 1.255827194537486147e+00 2.500528520809379689e-03
3.824124097732693372e+03 1.260916392068282210e+00 2.417705082968004456e-03
3.827948221830427428e+03 1.262073784042960778e+00 3.037140765039904496e-03
3.831776170052258749e+03 1.261122070427731501e+00 3.470078170828057567e-03
3.835607946222312421e+03 1.259708910346164057e+00 3.078869931835350338e-03
3.839443554168536139e+03 1.259417695384382530e+00 2.145673828257209630e-03
3.843282997722705659e+03 1.261723485949483248e+00 2.200882469236944798e-03
3.847126280720429804e+03 1.264980480985726352e+00 2.504558048234036601e-03
3.850973407001151372e+03 1.268751962320162630e+00 2.585889045952857474e-03
3.854824380408153957e+03 1.274498271177654907e+00 2.865542462651185594e-03
3.858679204788563311e+03 1.280041294657632722e+00 2.970199897725073288e-03
3.862537883993353262e+03 1.287195871435315553e+00 2.274786545661511197e-03
3.866400421877347981e+03 1.291912897847278474e+00 2.189756608821856812e-03
3.870266822299226533e+03 1.295189541893096985e+00 2.479638188909811126e-03
3.874137089121526969e+03 1.297167258987831362e+00 3.324453262820024207e-03
3.878011226210649966e+03 1.299991072197725694e+00 3.372568474493111736e-03
3.881889237436861549e+03 1.303379265328167946e+00 3.125504578116221430e-03
3.885771126674299921e+03 1.306949127634008390e+00 3.073115077445561210e-03
3.889656897800975457e+03 1.309080581355945849e+00 3.104967081462943739e-03
3.893546554698777527e+03 1.312992906039580188e+00 3.578671555252416377e-03
3.897440101253477678e+03 1.316752340759831608e+00 3.851292920023601657e-03
3.901337541354732366e+03 1.319607187252504366e+00 3.406725010831092304e-03
3.905238878896088409e+03 1.319692410223525902e+00 2.609022982459762319e-03
3.909144117774985716e+03 1.316326233524128808e+00 2.492292317350308043e-03
3.913053261892762293e+03 1.309593758771649519e+00 2.697865515580645263e-03
3.916966315154656058e+03 1.300494299458254899e+00 2.700211623592604741e-03
3.920883281469812118e+03 1.290043393385152726e+00 2.638661546356474864e-03
3.924804164751283224e+03 1.279830717742058255e+00 2.271255892138005199e-03
3.928728968916035683e+03 1.271146631444078690e+00 2.126316613536227088e-03
3.932657697884953450e+03 1.265733179728024904e+00 1.622578462842840831e-03
3.936590355582839493e+03 1.264741509039420730e+00 1.781413798542010214e-03
3.940526945938423523e+03 1.267658530890164448e+00 2.268487822118882107e-03
3.944467472884363360e+03 1.273718336586743716e+00 2.345011270996580788e-03
3.948411940357249023e+03 1.280784643464278005e+00 2.384718281736137539e-03
3.952360352297607733e+03 1.286986515651824758e+00 2.568218455600735674e-03
3.956312712649906643e+03 1.293540196572128487e+00 2.359778287913884449e-03
3.960269025362557841e+03 1.299020258809167050e+00 2.082388407702979571e-03
3.964229294387921527e+03 1.303033927757989208e+00 2.245157378063582839e-03
3.968193523682310570e+03 1.305296283549042924e+00 2.660329162090252150e-03
3.972161717205994591e+03 1.307166096628446184e+00 2.883195266067977401e-03
3.976133878923201792e+03 1.308924064208080607e+00 2.725187087286054695e-03
3.980110012802126221e+03 1.311281636391469441e+00 1.961855028530703603e-03
3.984090122814929600e+03 1.315012770489471405e+00 1.684446854350363492e-03
3.988074212937745870e+03 1.320536339468595388e+00 1.937668397335659412e-03
3.992062287150684824e+03 1.327222148195656981e+00 1.877261040961747092e-03
3.996054349437837118e+03 1.333709957389266787e+00 1.447344058292899952e-03
4.000050403787276082e+03 1.339232063980140275e+00 8.677966796683775656e-04
4.004050454191064546e+03 1.342926021190756103e+00 9.561146654632683532e-04
4.008054504645257111e+03 1.345745713001961219e+00 9.400526216268850896e-04
4.012062559149903791e+03 1.347202936034558984e+00 9.234029793078873125e-04
4.016074621709055009e+03 1.346776276859704247e+00 8.589106337469157868e-04
4.020090696330765240e+03 1.344709446433387079e+00 7.764644904395152101e-04
4.024110787027097558e+03 1.341120891422679540e+00 7.452668775751740589e-04
4.028134897814125907e+03 1.336281881109318004e+00 7.438092248426981775e-04
4.032163032711941469e+03 1.330331429259340448e+00 6.809294032499091983e-04
4.036195195744654484e+03 1.322901803459496817e+00 7.089614867490721777e-04
4.040231390940400615e+03 1.314266960421880626e+00 9.478409188604662626e-04
4.044271622331342314e+03 1.304724847071222715e+00 1.143587931237452547e-03
4.048315893953675186e+03 1.295102796921632660e+00 1.004337525792592303e-03
4.052364209847629809e+03 1.285596896872433614e+00 1.050359632182923690e-03
4.056416574057479011e+03 1.276216489424643719e+00 1.197018582857015036e-03
4.060472990631537868e+03 1.266478444326651243e+00 1.183850264341037304e-03
4.064533463622170530e+03 1.257156514896020205e+00 1.152954441201458052e-03
4.068597997085794304e+03 1.248538406582302196e+00 1.050110779378069393e-03
4.072666595082881486e+03 1.239952928053016379e+00 1.095920229055421342e-03
4.076739261677965715e+03 1.231667282414597775e+00 1.131306606118710669e-03
4.080816000939644709e+03 1.224130577305179601e+00 1.083084568885640418e-03
4.084896816940585722e+03 1.217574042628147390e+00 1.068775548627770491e-03
4.088981713757527814e+03 1.211951688117709036e+00 1.060736966977511141e-03
4.093070695471286854e+03 1.207005012460138360e+00 1.036556747078257873e-03
4.097163766166759160e+03 1.203500029736988219e+00 1.046258506349469295e-03
4.101260929932927866e+03 1.201066219007344893e+00 1.054383295183517052e-03
4.105362190862862008e+03 1.199890927397668117e+00 1.019442333106452972e-03
4.109467553053726078e+03 1.199583471694158909e+00 8.581092566860168630e-04
4.113577020606780934e+03 1.199260731122880230e+00 7.892214250206694816e-04
4.117690597627389252e+03 1.199393307682203647e+00 1.407014959169468294e-03
4.121808288225018259e+03 1.198287532835911939e+00 1.395751003924333060e-03
4.125930096513244280e+03 1.196865974224472939e+00 1.586151214959514652e-03
4.130056026609759101e+03 1.195750905334723946e+00 2.063720260167549187e-03
4.134186082636369974e+03 1.195204819175237798e+00 2.304222462396135571e-03
4.138320268719007800e+03 1.195448899103568330e+00 2.142964696716718846e-03
4.142458588987728035e+03 1.197191419934994450e+00 2.182908415392649428e-03
4.146601047576717065e+03 1.199370336618390764e+00 2.344669676351026147e-03
4.150747648624294925e+03 1.201393157853808402e+00 2.699512171306870430e-03
4.154898396272920763e+03 1.203132140730678312e+00 2.892092181328798518e-03
4.159053294669195566e+03 1.204688878861540413e+00 2.943913836080668932e-03
4.163212347963865795e+03 1.205104125278894767e+00 2.809433808120555352e-03
4.167375560311830668e+03 1.203734094817895617e+00 2.693416985139032108e-03
4.171542935872143971e+03 1.199699120482475845e+00 2.876521518803826661e-03
4.175714478808017702e+03 1.194470851029330483e+00 2.885331908249279265e-03
4.179890193286827525e+03 1.187391829145518773e+00 2.758054979141342459e-03
4.184070083480115500e+03 1.179803726636552419e+00 2.354088388048425264e-03
4.188254153563597356e+03 1.171876785289347689e+00 1.869241981135023704e-03
4.192442407717161586e+03 1.164823569712047480e+00 1.638290962053724374e-03
4.196634850124880359e+03 1.160942886721612055e+00 1.008442551087438289e-03
4.200831484975006788e+03 1.157473889100041564e+00 8.847193613204015067e-04
4.205032316459983122e+03 1.154668780566968644e+00 8.754746936789819861e-04
4.209237348776444378e+03 1.152476586334003628e+00 8.276635361139741444e-04
4.213446586125221984e+03 1.151085008422005451e+00 8.505486584280603536e-04
4.217660032711349231e+03 1.150360141712266859e+00 8.691427619466026485e-04
4.221877692744061278e+03 1.150305039137641261e+00 8.212164620184506710e-04
4.226099570436806971e+03 1.150484643867558221e+00 8.630847142419202384e-04
4.230325670007245208e+03 1.151772680706674601e+00 8.926459660430294957e-04
4.234555995677254032e+03 1.152654952394079446e+00 9.315774450357816117e-04
4.238790551672932452e+03 1.153512405244050409e+00 9.242075346924828044e-04
4.243029342224606808e+03 1.152906309741557278e+00 1.110156780998583894e-03
4.247272371566832589e+03 1.152090262123701470e+00 1.111742453868876926e-03
4.251519643938400804e+03 1.150791948237179563e+00 1.637875153912566944e-03
4.255771163582340705e+03 1.148296399744800578e+00 1.888712071697681068e-03
4.260026934745924336e+03 1.143220432849436197e+00 1.810147721994933472e-03
4.264286961680671993e+03 1.136005404831618160e+00 2.082561644447198431e-03
4.268551248642354039e+03 1.127366700378907405e+00 2.454684145932648290e-03
4.272819799890998183e+03 1.118001033544526734e+00 2.562773942779388373e-03
4.277092619690890388e+03 1.108820946078442393e+00 2.430367863934255416e-03
4.281369712310583054e+03 1.100089188670936746e+00 2.234801106473404981e-03
4.285651082022895025e+03 1.092455916851077014e+00 2.090613790357246943e-03
4.289936733104918858e+03 1.086641172357303287e+00 2.228970439080873479e-03
4.294226669838025373e+03 1.082238837433423972e+00 2.312589153997167326e-03
4.298520896507864563e+03 1.078706118806147973e+00 2.262466157010182936e-03
4.302819417404373780e+03 1.075802994929951018e+00 2.221384783287003693e-03
4.307122236821779552e+03 1.073770518905988958e+00 2.232743936158088690e-03
4.311429359058603040e+03 1.073331575317522324e+00 2.160017627996199500e-03
4.315740788417662770e+03 1.073559203047949495e+00 2.186456973037579146e-03
4.320056529206081905e+03 1.074292966347885736e+00 2.151751145513309225e-03
4.324376585735290064e+03 1.074470989250305486e+00 1.427679296787240240e-03
4.328700962321026054e+03 1.076421445845497482e+00 1.361258860350433430e-03
4.333029663283348782e+03 1.080120369407727932e+00 1.391617809170455191e-03
4.337362692946633615e+03 1.084721995534961181e+00 1.103805218707478797e-03
4.341700055639581478e+03 1.088823299118630850e+00 7.213196290195734040e-04
4.346041755695222491e+03 1.091462922400068702e+00 7.533177049084430156e-04
4.350387797450919606e+03 1.093540478684028372e+00 7.471032170491428114e-04
4.354738185248371337e+03 1.094368649638749025e+00 9.032936268302955681e-04
4.359092923433621763e+03 1.096177580983396238e+00 2.550277602912363363e-03
4.363452016357056891e+03 1.093463775330278942e+00 2.699692176909289799e-03
4.367815468373414660e+03 1.089648783254728803e+00 2.893131457791377464e-03
4.372183283841789489e+03 1.085759140226599362e+00 3.011411662933944581e-03
4.376555467125633186e+03 1.082008362514905730e+00 3.028343492290748711e-03
4.380932022592760404e+03 1.078842992522342836e+00 2.975496605363900718e-03
4.385312954615354101e+03 1.076038027501276861e+00 2.966879893486827884e-03
4.389698267569970994e+03 1.073262323168631127e+00 2.968491936537558194e-03
4.394087965837542470e+03 1.070759302925936796e+00 2.970325107990742872e-03
4.398482053803381859e+03 1.068879178114813477e+00 3.008923302364924484e-03
4.402880535857186260e+03 1.066937050134762588e+00 2.944076187931410349e-03
4.407283416393044718e+03 1.064681388360791736e+00 2.913723680910937450e-03
4.411690699809440048e+03 1.062527708972502483e+00 2.899579291293327352e-03
4.416102390509250654e+03 1.060399935933673099e+00 2.903833614718672428e-03
4.420518492899761441e+03 1.058569978398366196e+00 2.887521738069437696e-03
4.424939011392662906e+03 1.056512726789695877e+00 2.844651669916919805e-03
4.429363950404056595e+03 1.054101533725284590e+00 2.706214841232837919e-03
4.433793314354462382e+03 1.051850180926092060e+00 2.595615030524371994e-03
4.438227107668818462e+03 1.050287794538486752e+00 2.566568358164060450e-03
4.442665334776488635e+03 1.052031456075746885e+00 1.065429037493381562e-03
4.447108000111265937e+03 1.051643231842562809e+00 1.069785461130264579e-03
4.451555108111379013e+03 1.052625658997369040e+00 1.047974561502885548e-03
4.456006663219492111e+03 1.053932536639469841e+00 9.771039403926079676e-04
4.460462669882713271e+03 1.055748392601352892e+00 8.742359666382039504e-04
4.464923132552597053e+03 1.058452630164736119e+00 8.863129811800475773e-04
4.469388055685150903e+03 1.061842136013150473e+00 9.848103671172324727e-04
4.473857443740837880e+03 1.065354147108172667e+00 1.027900808255313150e-03
4.478331301184580298e+03 1.068771586203725255e+00 1.013776499352441428e-03
4.482809632485766087e+03 1.072413929785927644e+00 7.054002406500529607e-04
4.487292442118253348e+03 1.074898796588387384e+00 5.938115100443883132e-04
4.491779734560373072e+03 1.076347785125883583e+00 6.609528786751581566e-04
4.496271514294934605e+03 1.076782162452279534e+00 6.683375706122425368e-04
4.500767785809231100e+03 1.076432507721202914e+00 5.928287548335484190e-04
4.505268553595042249e+03 1.075746384276903944e+00 5.529143504526236796e-04
4.509773822148638828e+03 1.075214132803507860e+00 4.988093865265898295e-04
4.514283595970789065e+03 1.074922714011353753e+00 6.053744193264639544e-04
4.518797879566761367e+03 1.074268423851294507e+00 6.433801707040250626e-04
4.523316677446328868e+03 1.073198817897230262e+00 7.359765317163786654e-04
4.527839994123776705e+03 1.071668957222829066e+00 7.341003636151303101e-04
4.532367834117902021e+03 1.069662786908910146e+00 7.405094032516277083e-04
4.536900201952022144e+03 1.067379595551143145e+00 5.129600098089866526e-04
4.541437102153975502e+03 1.064198646817694272e+00 6.128358463379267665e-04
4.545978539256130716e+03 1.060595625146410592e+00 7.440517072785970401e-04
4.550524517795388419e+03 1.056654527291705836e+00 1.003421851165969304e-03
4.555075042313184895e+03 1.053211335421240236e+00 1.125505124822362684e-03
4.559630117355500261e+03 1.050855469996866409e+00 8.865164358443275959e-04
4.564189747472856652e+03 1.049758634077744279e+00 8.855694257117184857e-04
4.568753937220330954e+03 1.049905981851516179e+00 1.123135531119193913e-03
