# starting wavelength: 3544.600
# ending wavelength: 9061.200
# wav flux eflux
3.547939179179392340e+03 1.016644499981887106e+00 2.404373951641368759e-02
3.551487118358572843e+03 1.022133812091664984e+00 1.921380685746263209e-02
3.555038605476932389e+03 1.026021022270084737e+00 1.440387144655204225e-02
3.558593644082410719e+03 1.028992006675413684e+00 1.080687069726163872e-02
3.562152237726494150e+03 1.030664599151387639e+00 8.331565782239298487e-03
3.565714389964221937e+03 1.029647096356467006e+00 6.658434569809862022e-03
3.569280104354187188e+03 1.027277872839172268e+00 5.796826287839053522e-03
3.572849384458542772e+03 1.025258815462158246e+00 4.710733374571018234e-03
3.576422233843002232e+03 1.022229704483275547e+00 4.190583802813467075e-03
3.579998656076846601e+03 1.017395807369623428e+00 3.657568945543956864e-03
3.583578654732924406e+03 1.011124567674742902e+00 3.268211734496007884e-03
3.587162233387658489e+03 1.004138768201707776e+00 2.868479443934318293e-03
3.590749395621047370e+03 9.962975351347994613e-01 2.606381184284291448e-03
3.594340145016669794e+03 9.887952087485171182e-01 2.451775272685519352e-03
3.597934485161687462e+03 9.802240791170466760e-01 2.300645633019438117e-03
3.601532419646850485e+03 9.707359799518304744e-01 2.332010590431898931e-03
3.605133952066498296e+03 9.619860319110977720e-01 2.243766881829454413e-03
3.608739086018566013e+03 9.536750000232135926e-01 2.165752083269129394e-03
3.612347825104585809e+03 9.456520130916958866e-01 2.121938621374629998e-03
3.615960172929691907e+03 9.385367065669912856e-01 2.141039754699237529e-03
3.619576133102622407e+03 9.317758820707860989e-01 2.112035261973544374e-03
3.623195709235726554e+03 9.257917172251799443e-01 2.057778676622483861e-03
3.626818904944963379e+03 9.205960228276353075e-01 2.000646021689589816e-03
3.630445723849909427e+03 9.167935205182247138e-01 1.999253088925932037e-03
3.634076169573760581e+03 9.136926360850528006e-01 2.004826896237891978e-03
3.637710245743335690e+03 9.112996578854430929e-01 2.054622243874950922e-03
3.641347955989080219e+03 9.107698362648853907e-01 2.065222782865246826e-03
3.644989303945070333e+03 9.121604698508478659e-01 2.090748629435686644e-03
3.648634293249016537e+03 9.142023548757689522e-01 2.195500698943907928e-03
3.652282927542266862e+03 9.167461500519542561e-01 2.269116425646757699e-03
3.655935210469810499e+03 9.205987896234765211e-01 2.202604639988344371e-03
3.659591145680281443e+03 9.270158919368083339e-01 2.255791524015623040e-03
3.663250736825963031e+03 9.346524660205253188e-01 2.445747704236714802e-03
3.666913987562790226e+03 9.436140942395959685e-01 2.932733553303108059e-03
3.670580901550354156e+03 9.549427981775994168e-01 3.560467624966485566e-03
3.674251482451905758e+03 9.641538558640800893e-01 3.754847221840069277e-03
3.677925733934358959e+03 9.728076137511727506e-01 4.079903558902191196e-03
3.681603659668294313e+03 9.807533326418792496e-01 4.340967003467807034e-03
3.685285263327964003e+03 9.873826046335375528e-01 4.141853085461624784e-03
3.688970548591293209e+03 9.907371558983212312e-01 4.082090458466048136e-03
3.692659519139885560e+03 9.933425375554585379e-01 3.928778090708421634e-03
3.696352178659026777e+03 9.948484386426681425e-01 3.564925754299144017e-03
3.700048530837686940e+03 9.939755988429264111e-01 3.297201917769387002e-03
3.703748579368525952e+03 9.897049605433262398e-01 3.242034799130888607e-03
3.707452327947895355e+03 9.822175415266247711e-01 3.264406916862691316e-03
3.711159780275844696e+03 9.725071508756852889e-01 3.257150526975711655e-03
3.714870940056121526e+03 9.599469193824433644e-01 3.276018120670029423e-03
3.718585810996179134e+03 9.444854219715387300e-01 3.509206307023921001e-03
3.722304396807176545e+03 9.255515926663562265e-01 3.630502350250186354e-03
3.726026701203984885e+03 9.046993511811084465e-01 3.445019146669821373e-03
3.729752727905190113e+03 8.838270508631311806e-01 3.263153671971368713e-03
3.733482480633096657e+03 8.619232935905900561e-01 3.010108456342738392e-03
3.737215963113731050e+03 8.394615550425221784e-01 2.835595930024106554e-03
3.740953179076846027e+03 8.181843065408164195e-01 2.776430698992734657e-03
3.744694132255923705e+03 7.977054645431742586e-01 2.655045274528573026e-03
3.748438826388181042e+03 7.788911442198028778e-01 2.681746071213741110e-03
3.752187265214570289e+03 7.621749188667937824e-01 2.700973257518308503e-03
3.755939452479786269e+03 7.481032475008309035e-01 2.781542543513453557e-03
3.759695391932267285e+03 7.357233974809469501e-01 2.778289787699955802e-03
3.763455087324201031e+03 7.254256766047005867e-01 2.791793151544470428e-03
3.767218542411526414e+03 7.179247022277794876e-01 2.786846290844827764e-03
3.770985760953939007e+03 7.122363208727121586e-01 2.608389383311974629e-03
3.774756746714894234e+03 7.091723551332215214e-01 2.425392663236068669e-03
3.778531503461610555e+03 7.099992038537278338e-01 2.789179341599823218e-03
3.782310034965073100e+03 7.139396271446688536e-01 3.093057624100933878e-03
3.786092345000039586e+03 7.206388026331936869e-01 3.074898018793321888e-03
3.789878437345040766e+03 7.291782448254822135e-01 2.685085550333685990e-03
3.793668315782387253e+03 7.382939457859950538e-01 2.548932352370779104e-03
3.797461984098170888e+03 7.494715423833572254e-01 2.027128807032313809e-03
3.801259446082270188e+03 7.608534053825749544e-01 1.889072112279874737e-03
3.805060705528353537e+03 7.720392215918647771e-01 1.980353222869974880e-03
3.808865766233883278e+03 7.836058252032177540e-01 1.723429860293929474e-03
3.812674632000118436e+03 7.970135859177391868e-01 1.773858547051870502e-03
3.816487306632119726e+03 8.107780744548518381e-01 1.771268955070057216e-03
3.820303793938753188e+03 8.244076803405850917e-01 1.772430343299391054e-03
3.824124097732693372e+03 8.386124162260942816e-01 1.762825939956860592e-03
3.827948221830427428e+03 8.525857208480559501e-01 1.977399163366485614e-03
3.831776170052258749e+03 8.656105118853881786e-01 1.719120164366829805e-03
3.835607946222312421e+03 8.797922371849654644e-01 1.549547476094721233e-03
3.839443554168536139e+03 8.947683553118158661e-01 1.565992654463935728e-03
3.843282997722705659e+03 9.110812026125878482e-01 1.962985271495207816e-03
3.847126280720429804e+03 9.265829168282504469e-01 2.245978374665467958e-03
3.850973407001151372e+03 9.412670766259506605e-01 2.442949858289049456e-03
3.854824380408153957e+03 9.555524875712338995e-01 2.419000910564994208e-03
3.858679204788563311e+03 9.684230018672841389e-01 2.303739481824643512e-03
3.862537883993353262e+03 9.794072998540782615e-01 2.140924410543019931e-03
3.866400421877347981e+03 9.880320959383848134e-01 1.920647647214712966e-03
3.870266822299226533e+03 9.952248463735665629e-01 1.824975859828126615e-03
3.874137089121526969e+03 9.986468262841561305e-01 2.462480706132535221e-03
3.878011226210649966e+03 1.000563338614145259e+00 2.877557005010207298e-03
3.881889237436861549e+03 1.001100506117309275e+00 2.986353397418272954e-03
3.885771126674299921e+03 1.000909356010311058e+00 2.978031884214643252e-03
3.889656897800975457e+03 1.001073700799155697e+00 2.894392555466753295e-03
3.893546554698777527e+03 1.000476297206843723e+00 2.814264004483762235e-03
3.897440101253477678e+03 9.995839863118134438e-01 2.640626292071581414e-03
3.901337541354732366e+03 9.988403360050557289e-01 2.465923324182120457e-03
3.905238878896088409e+03 9.992972163917841488e-01 2.453773405377734657e-03
3.909144117774985716e+03 1.000247141663205941e+00 2.469702248735326441e-03
3.913053261892762293e+03 1.002153150253008551e+00 2.515484804914088195e-03
3.916966315154656058e+03 1.005372720406537690e+00 2.398340721494183949e-03
3.920883281469812118e+03 1.009378267352117442e+00 2.128243259870312917e-03
3.924804164751283224e+03 1.013396832725109720e+00 1.907225012617640245e-03
3.928728968916035683e+03 1.017532785965271858e+00 1.564682287932185872e-03
3.932657697884953450e+03 1.019785089603863826e+00 1.561678772326045720e-03
3.936590355582839493e+03 1.022402602637878521e+00 1.701745960529110627e-03
3.940526945938423523e+03 1.023171658115976212e+00 1.744068397639725277e-03
3.944467472884363360e+03 1.024021612513740909e+00 1.767723482130934259e-03
3.948411940357249023e+03 1.023680529253196525e+00 1.810920020956036320e-03
3.952360352297607733e+03 1.021944656051946509e+00 1.825417726585714740e-03
3.956312712649906643e+03 1.019922858368452090e+00 1.773344043346271716e-03
3.960269025362557841e+03 1.017872669537397856e+00 1.646184274069850987e-03
3.964229294387921527e+03 1.014289579348543135e+00 1.561768000008186648e-03
3.968193523682310570e+03 1.008406779622793792e+00 2.152843520778402377e-03
3.972161717205994591e+03 1.001857122094187202e+00 2.018681030252345368e-03
3.976133878923201792e+03 9.961245574595112284e-01 1.787388162765258517e-03
3.980110012802126221e+03 9.907233665283757817e-01 1.712760732379601429e-03
3.984090122814929600e+03 9.861717559842725356e-01 1.701568389146228787e-03
3.988074212937745870e+03 9.830927610952562290e-01 1.805529433720644847e-03
3.992062287150684824e+03 9.801047858685573155e-01 1.832524886802383785e-03
3.996054349437837118e+03 9.778687905114307188e-01 1.947508305530887404e-03
4.000050403787276082e+03 9.767968699298602564e-01 1.855749713008501703e-03
4.004050454191064546e+03 9.768057424207827744e-01 1.841636116169045314e-03
4.008054504645257111e+03 9.763958485370606288e-01 1.846810977842881264e-03
4.012062559149903791e+03 9.764207218403139210e-01 1.872787450468473176e-03
4.016074621709055009e+03 9.772839886165404222e-01 1.875818188277470887e-03
4.020090696330765240e+03 9.776959157280299406e-01 1.876928714963265821e-03
4.024110787027097558e+03 9.777538365401624576e-01 1.876557744534006981e-03
4.028134897814125907e+03 9.782056512834842454e-01 1.990624377136178055e-03
4.032163032711941469e+03 9.782681889487000459e-01 1.768340108921248512e-03
4.036195195744654484e+03 9.789425008060758104e-01 1.847130711880324650e-03
4.040231390940400615e+03 9.799158401625465142e-01 1.956531021833893703e-03
4.044271622331342314e+03 9.803645848344105795e-01 2.285181126322806226e-03
4.048315893953675186e+03 9.828822502676355377e-01 2.195217866826694366e-03
4.052364209847629809e+03 9.814775506272607197e-01 2.024789311342452183e-03
4.056416574057479011e+03 9.764295227503653196e-01 2.151147959072307637e-03
4.060472990631537868e+03 9.699065220789165886e-01 2.249209811176252315e-03
4.064533463622170530e+03 9.617351169004929590e-01 2.373759107737229319e-03
4.068597997085794304e+03 9.521027200117463396e-01 2.313646651808789600e-03
4.072666595082881486e+03 9.421984466683622772e-01 2.349829778128217569e-03
4.076739261677965715e+03 9.300054270663914435e-01 2.405294230567426791e-03
4.080816000939644709e+03 9.166759004696118929e-01 2.678644311563360605e-03
4.084896816940585722e+03 9.042708669936035948e-01 2.676309422271985154e-03
4.088981713757527814e+03 8.942912958321267425e-01 2.719328812755900365e-03
4.093070695471286854e+03 8.866285390725460180e-01 2.542061027019185473e-03
4.097163766166759160e+03 8.823197369889780317e-01 2.452832540868714242e-03
4.101260929932927866e+03 8.831051263832887521e-01 2.568284838567072223e-03
4.105362190862862008e+03 8.864896169808631488e-01 2.686824159026017598e-03
4.109467553053726078e+03 8.912791145743408361e-01 2.672020697217788489e-03
4.113577020606780934e+03 8.977853617145318266e-01 2.647849809520335176e-03
4.117690597627389252e+03 9.061971659909779930e-01 2.673011600748074861e-03
4.121808288225018259e+03 9.160926849369207536e-01 2.710762552579838464e-03
4.125930096513244280e+03 9.270970516464284161e-01 2.723167662673758177e-03
4.130056026609759101e+03 9.374930330218866903e-01 2.102923773466897767e-03
4.134186082636369974e+03 9.450436339264279839e-01 1.963220523091617660e-03
4.138320268719007800e+03 9.491216528107189188e-01 1.990419184613896001e-03
4.142458588987728035e+03 9.499236314315536722e-01 1.996449626237981577e-03
4.146601047576717065e+03 9.474526257556353803e-01 1.975994755782957933e-03
4.150747648624294925e+03 9.428311460517458942e-01 1.938029329308960493e-03
4.154898396272920763e+03 9.359485202566362183e-01 2.493828770861907743e-03
4.159053294669195566e+03 9.266175156418685610e-01 3.537023062589522357e-03
4.163212347963865795e+03 9.173148131264559080e-01 3.510168929852193649e-03
4.167375560311830668e+03 9.098572840541462314e-01 3.000644302760130996e-03
4.171542935872143971e+03 9.047106975702775555e-01 2.245120968415127358e-03
4.175714478808017702e+03 9.033218267403390067e-01 2.552518034171950573e-03
4.179890193286827525e+03 9.058773111352205198e-01 3.348575080286135281e-03
4.184070083480115500e+03 9.099256311702569322e-01 3.301974809631087922e-03
4.188254153563597356e+03 9.138182827078625836e-01 3.082128746913499751e-03
4.192442407717161586e+03 9.180267621455594496e-01 2.584403756768091209e-03
4.196634850124880359e+03 9.209449636229584124e-01 2.579670093414246444e-03
4.200831484975006788e+03 9.227787686927046984e-01 2.871082688978724828e-03
4.205032316459983122e+03 9.242622467686339993e-01 2.890478748560711391e-03
4.209237348776444378e+03 9.244969038722169463e-01 2.757615932200198697e-03
4.213446586125221984e+03 9.232283912912947477e-01 2.702177201807263226e-03
4.217660032711349231e+03 9.206726936666885797e-01 2.707459141883110897e-03
4.221877692744061278e+03 9.177797173373315465e-01 2.846297384242609755e-03
4.226099570436806971e+03 9.138836647663063362e-01 2.607597106094947624e-03
4.230325670007245208e+03 9.087309370017255805e-01 2.700442169103960382e-03
4.234555995677254032e+03 9.022193865669564383e-01 3.351525725362149415e-03
4.238790551672932452e+03 8.953465544465789572e-01 3.541052364421693605e-03
4.243029342224606808e+03 8.896976031793664141e-01 3.295708607138664488e-03
4.247272371566832589e+03 8.847451376186585836e-01 2.885793001723782353e-03
4.251519643938400804e+03 8.809439732321889815e-01 2.792285876961736555e-03
4.255771163582340705e+03 8.794168052503829047e-01 3.684248742888985781e-03
4.260026934745924336e+03 8.783768271148573170e-01 3.939961195205322030e-03
4.264286961680671993e+03 8.761231930001800450e-01 3.550659065321437775e-03
4.268551248642354039e+03 8.714026974413082716e-01 2.776007011286555932e-03
4.272819799890998183e+03 8.638869077071651414e-01 2.792633352721909934e-03
4.277092619690890388e+03 8.534356325708044588e-01 3.295852538310186514e-03
4.281369712310583054e+03 8.408484883957758615e-01 3.420484605209331112e-03
4.285651082022895025e+03 8.287657476905926357e-01 2.943040202594531494e-03
4.289936733104918858e+03 8.177352310105654443e-01 2.570873971108473578e-03
4.294226669838025373e+03 8.079188082820893957e-01 2.105289975297684833e-03
4.298520896507864563e+03 8.004077749542783948e-01 1.883288790597462386e-03
4.302819417404373780e+03 7.977561762271162538e-01 1.918286828866549347e-03
4.307122236821779552e+03 7.975264591526087798e-01 1.771543326311481731e-03
4.311429359058603040e+03 7.996448382479606209e-01 1.782945761874253979e-03
4.315740788417662770e+03 8.043064699771984571e-01 1.779886334293246134e-03
4.320056529206081905e+03 8.111781375969925323e-01 1.808630602357851839e-03
4.324376585735290064e+03 8.196079630797100668e-01 1.998706782653773221e-03
4.328700962321026054e+03 8.281304407016214508e-01 2.448174220067245253e-03
4.333029663283348782e+03 8.359835308749924421e-01 2.784019763554478749e-03
4.337362692946633615e+03 8.428791845045046083e-01 2.626496429452304746e-03
4.341700055639581478e+03 8.478182786253171122e-01 2.260791824259580137e-03
4.346041755695222491e+03 8.498588963714687194e-01 1.576094700341874226e-03
4.350387797450919606e+03 8.468885413358654413e-01 1.606060365829676531e-03
4.354738185248371337e+03 8.396998198756862042e-01 2.012730470183356126e-03
4.359092923433621763e+03 8.294452210046162621e-01 2.350391578207699887e-03
4.363452016357056891e+03 8.171444621492927052e-01 2.100235463269072619e-03
4.367815468373414660e+03 8.055295999570336596e-01 1.914430082110123556e-03
4.372183283841789489e+03 7.946374427694526954e-01 1.611183774973942197e-03
4.376555467125633186e+03 7.855097349885636904e-01 1.302640627510746364e-03
4.380932022592760404e+03 7.789860524799931962e-01 1.023012912386283722e-03
4.385312954615354101e+03 7.777619878364385730e-01 1.034158307148909254e-03
4.389698267569970994e+03 7.795316433693102454e-01 1.070368628707223362e-03
4.394087965837542470e+03 7.850760534920402378e-01 1.383648452856892520e-03
4.398482053803381859e+03 7.937529876305636778e-01 1.456775507457737069e-03
4.402880535857186260e+03 8.052615069226647382e-01 1.447712428000141925e-03
4.407283416393044718e+03 8.189673846838360083e-01 1.289033392101690068e-03
4.411690699809440048e+03 8.349297878205288459e-01 1.121057884517761075e-03
4.416102390509250654e+03 8.513548357479552298e-01 1.164132703430744873e-03
4.420518492899761441e+03 8.684033276331309947e-01 1.453245505543112074e-03
4.424939011392662906e+03 8.879465973604273588e-01 1.446917881237533721e-03
4.429363950404056595e+03 9.090918291781955318e-01 1.467404632309761035e-03
4.433793314354462382e+03 9.305579458088750755e-01 1.495516829056184284e-03
4.438227107668818462e+03 9.522059373663908088e-01 1.551683865566647101e-03
4.442665334776488635e+03 9.747121729682498570e-01 1.528072924589711544e-03
4.447108000111265937e+03 9.987272558680699852e-01 1.571108280824957352e-03
4.451555108111379013e+03 1.023582712313022780e+00 1.509735538538409510e-03
4.456006663219492111e+03 1.048987583810110591e+00 1.465130301039143518e-03
4.460462669882713271e+03 1.074112282148978803e+00 1.596612628242436013e-03
4.464923132552597053e+03 1.099267484188337418e+00 1.510419496203502156e-03
4.469388055685150903e+03 1.125675524579770714e+00 1.611353759701283483e-03
4.473857443740837880e+03 1.151365953602406345e+00 1.634141338595200034e-03
4.478331301184580298e+03 1.177079579203719639e+00 1.726441005075408626e-03
4.482809632485766087e+03 1.201241158051151503e+00 1.712159093708921255e-03
4.487292442118253348e+03 1.224446389363161858e+00 1.657738268855934874e-03
4.491779734560373072e+03 1.245844205750774591e+00 1.607247294590515409e-03
4.496271514294934605e+03 1.265686044496085572e+00 1.441147211592047096e-03
4.500767785809231100e+03 1.282164386606901019e+00 1.467176041760468504e-03
4.505268553595042249e+03 1.295975229410409657e+00 1.183765020830340091e-03
4.509773822148638828e+03 1.308222853940689046e+00 1.320708477043704750e-03
4.514283595970789065e+03 1.318005373799021829e+00 1.555838529875156265e-03
4.518797879566761367e+03 1.324366161207135351e+00 1.493843661057749246e-03
4.523316677446328868e+03 1.325849717787262794e+00 1.793192698309355963e-03
4.527839994123776705e+03 1.325583023681562667e+00 1.797895385792774338e-03
4.532367834117902021e+03 1.323235728198181249e+00 1.760454870585235251e-03
4.536900201952022144e+03 1.318021780954638400e+00 1.857204532762419570e-03
4.541437102153975502e+03 1.310936292377119061e+00 1.904860376395759586e-03
4.545978539256130716e+03 1.301950659169677227e+00 1.609775535258206386e-03
4.550524517795388419e+03 1.292378566004218188e+00 1.498898398900555843e-03
4.555075042313184895e+03 1.282409983035422085e+00 1.497205000066641721e-03
4.559630117355500261e+03 1.271559322646149015e+00 1.635170243160888586e-03
4.564189747472856652e+03 1.261320282177436303e+00 1.730886443699932538e-03
4.568753937220330954e+03 1.251754550308900260e+00 1.759347721364292383e-03
4.573322691157552981e+03 1.242894056481528287e+00 1.969814842799814600e-03
4.577896013848711846e+03 1.233316741595705590e+00 2.171281629519078091e-03
4.582473909862562323e+03 1.222535733420919923e+00 2.252389896474108096e-03
4.587056383772426670e+03 1.209672072998993375e+00 2.246482558956559589e-03
4.591643440156200086e+03 1.195571910806334071e+00 2.237799473307277437e-03
4.596235083596357981e+03 1.180527139956141003e+00 2.281685071213895768e-03
4.600831318679955984e+03 1.165356102529027327e+00 2.194277060188004006e-03
4.605432149998637215e+03 1.148693945661906746e+00 2.352384246004148374e-03
4.610037582148637739e+03 1.130824181541794982e+00 2.066590678676262418e-03
4.614647619730787483e+03 1.114469892823223063e+00 2.093284827384969075e-03
4.619262267350520233e+03 1.098107111421531279e+00 2.106341370349285383e-03
