# starting wavelength: 3477.920
# ending wavelength: 7367.620
# wav flux eflux
3.481197750294164052e+03 1.633938821029619515e+00 1.138007260333666337e-02
3.484678948044459503e+03 1.631221035472126601e+00 9.961308785548562278e-03
3.488163626992504760e+03 1.628885908148370643e+00 7.806032990724178985e-03
3.491651790619498570e+03 1.623515132371615266e+00 6.251640816072791956e-03
3.495143442410119405e+03 1.616426662162107730e+00 5.218165081948705070e-03
3.498638585852530468e+03 1.608624640214274315e+00 4.261576573569132720e-03
3.502137224438384237e+03 1.599751187837768818e+00 3.606925007793110750e-03
3.505639361662823831e+03 1.589430182670205305e+00 3.382723391045418943e-03
3.509145001024487556e+03 1.578174044361747352e+00 3.159487793770321493e-03
3.512654146025513455e+03 1.566825702111755536e+00 2.910656358933323348e-03
3.516166800171540217e+03 1.556186087326572265e+00 2.674694058739347617e-03
3.519682966971712631e+03 1.545967506007413172e+00 2.510368156910907245e-03
3.523202649938685681e+03 1.536892204276375518e+00 2.372400987321040232e-03
3.526725852588625457e+03 1.529849927738781146e+00 2.334337679291973496e-03
3.530252578441215064e+03 1.523968190972567971e+00 2.295794861779612821e-03
3.533782831019657806e+03 1.519104997825222014e+00 2.263102081323612250e-03
3.537316613850678550e+03 1.515526945987105023e+00 2.313515423204948879e-03
3.540853930464530094e+03 1.513220137992775216e+00 2.297558253288879779e-03
3.544394784394995895e+03 1.512974529193031659e+00 2.323703437205522533e-03
3.547939179179392340e+03 1.513969816062800788e+00 2.337492315477766348e-03
3.551487118358572843e+03 1.515109944477512238e+00 2.361552911572771963e-03
3.555038605476932389e+03 1.518073055643265779e+00 2.477106449895715920e-03
3.558593644082410719e+03 1.523507879895459105e+00 3.008496550679868285e-03
3.562152237726494150e+03 1.529926593856112182e+00 3.638317436973454670e-03
3.565714389964221937e+03 1.536525510789145565e+00 3.823867572768470131e-03
3.569280104354187188e+03 1.542339474363196850e+00 3.751344001146262978e-03
3.572849384458542772e+03 1.547192934155315891e+00 3.633142309163287648e-03
3.576422233843002232e+03 1.551439648987225750e+00 3.519501026336462491e-03
3.579998656076846601e+03 1.554275803684166846e+00 3.245314826625721009e-03
3.583578654732924406e+03 1.556460746887098123e+00 2.659937877824007733e-03
3.587162233387658489e+03 1.555558095882741299e+00 2.531827946338370029e-03
3.590749395621047370e+03 1.552098380240157782e+00 2.608826194755968150e-03
3.594340145016669794e+03 1.546517294773299689e+00 2.702694128988759621e-03
3.597934485161687462e+03 1.537844269781180495e+00 2.895364202492894945e-03
3.601532419646850485e+03 1.528581178320804312e+00 3.004405489902572859e-03
3.605133952066498296e+03 1.517982904080232176e+00 3.041569379935175812e-03
3.608739086018566013e+03 1.505654827217992819e+00 3.186675649393645553e-03
3.612347825104585809e+03 1.491931662151983362e+00 3.042292499705065781e-03
3.615960172929691907e+03 1.478186238226498750e+00 3.153190478885413688e-03
3.619576133102622407e+03 1.465120388909552762e+00 3.220226422286916450e-03
3.623195709235726554e+03 1.450744448593651814e+00 3.080016872469667349e-03
3.626818904944963379e+03 1.436198149157170478e+00 2.613057931470973063e-03
3.630445723849909427e+03 1.423422043152352323e+00 2.343891227058636506e-03
3.634076169573760581e+03 1.411736078338716949e+00 2.369480801318320055e-03
3.637710245743335690e+03 1.402586095586230375e+00 2.868089125466437468e-03
3.641347955989080219e+03 1.395185475163250421e+00 3.317982533295355928e-03
3.644989303945070333e+03 1.388681219088309771e+00 3.096667082056342619e-03
3.648634293249016537e+03 1.380988809477052381e+00 2.905819487013044933e-03
3.652282927542266862e+03 1.373428925499692754e+00 3.038391025064636659e-03
3.655935210469810499e+03 1.366903090457029624e+00 3.121918726700800232e-03
3.659591145680281443e+03 1.362232182876355724e+00 3.198541893876909615e-03
3.663250736825963031e+03 1.357264003933258412e+00 3.149652997491091642e-03
3.666913987562790226e+03 1.352117234708829718e+00 2.894743769110238139e-03
3.670580901550354156e+03 1.350389030149312442e+00 3.058954537372565296e-03
3.674251482451905758e+03 1.348582328134309005e+00 3.048971563325398194e-03
3.677925733934358959e+03 1.345673154174511499e+00 3.187791141130749163e-03
3.681603659668294313e+03 1.343496983713400317e+00 3.197690327941047576e-03
3.685285263327964003e+03 1.342844505843960423e+00 3.152226730460609694e-03
3.688970548591293209e+03 1.344316720792144038e+00 3.145779132886515617e-03
3.692659519139885560e+03 1.347215162127337829e+00 3.192224269025075237e-03
3.696352178659026777e+03 1.350358147237094686e+00 3.300840975723933271e-03
3.700048530837686940e+03 1.355339089391673468e+00 3.366286173645806519e-03
3.703748579368525952e+03 1.361292883924602126e+00 3.341865267306860093e-03
3.707452327947895355e+03 1.367137509577322385e+00 3.354788152388576191e-03
3.711159780275844696e+03 1.374753279897915625e+00 3.502659144875902054e-03
3.714870940056121526e+03 1.381887764660082007e+00 3.670083283082828645e-03
3.718585810996179134e+03 1.390152350702964723e+00 3.686135149655067524e-03
3.722304396807176545e+03 1.399749056466106811e+00 3.794735403449473951e-03
3.726026701203984885e+03 1.409036196859915657e+00 3.965782082522007618e-03
3.729752727905190113e+03 1.418428966617341080e+00 4.587903933463450580e-03
3.733482480633096657e+03 1.426725961679970345e+00 4.855579142948923156e-03
3.737215963113731050e+03 1.432495022492403791e+00 4.941334860041156699e-03
3.740953179076846027e+03 1.439098016727667462e+00 4.562284836229986082e-03
3.744694132255923705e+03 1.442874501812940746e+00 3.801066146699531075e-03
3.748438826388181042e+03 1.441014424653746850e+00 3.943516938252535770e-03
3.752187265214570289e+03 1.434408492834292392e+00 4.434160929260556015e-03
3.755939452479786269e+03 1.425964994843661460e+00 4.758107181917159423e-03
3.759695391932267285e+03 1.416246900532169173e+00 4.997715102451586074e-03
3.763455087324201031e+03 1.404724978800962587e+00 5.178293102002686291e-03
3.767218542411526414e+03 1.394069202831596632e+00 5.212583123327090527e-03
3.770985760953939007e+03 1.382282363552195470e+00 4.940279617643980777e-03
3.774756746714894234e+03 1.369885242557704164e+00 4.195919737626693444e-03
3.778531503461610555e+03 1.359479851219508095e+00 3.813720485889024805e-03
3.782310034965073100e+03 1.351161899176704706e+00 4.066933130639806271e-03
3.786092345000039586e+03 1.347646777117293970e+00 4.574469872029945060e-03
3.789878437345040766e+03 1.344555116251538340e+00 3.926941520792214674e-03
3.793668315782387253e+03 1.340787714802557984e+00 2.858787167574978853e-03
3.797461984098170888e+03 1.336045858620588112e+00 2.481019138679849828e-03
3.801259446082270188e+03 1.329804939203149461e+00 2.797316919933121211e-03
3.805060705528353537e+03 1.323226123607766036e+00 2.783011912832420061e-03
3.808865766233883278e+03 1.316299856056530659e+00 2.582443855853447379e-03
3.812674632000118436e+03 1.309107194983338829e+00 2.857743332220515683e-03
3.816487306632119726e+03 1.303315388149454135e+00 2.430732899958808549e-03
3.820303793938753188e+03 1.299480045365908776e+00 2.281603916518705651e-03
3.824124097732693372e+03 1.297412424860091118e+00 2.061380032550966940e-03
3.827948221830427428e+03 1.300613666654359735e+00 2.083322409865597923e-03
3.831776170052258749e+03 1.305621563555290354e+00 1.983187634692818672e-03
3.835607946222312421e+03 1.314180323905874470e+00 2.070010715524479676e-03
3.839443554168536139e+03 1.326016809976734434e+00 2.088626580488508067e-03
3.843282997722705659e+03 1.338984537402016617e+00 1.953164089889715318e-03
3.847126280720429804e+03 1.353383111859701282e+00 1.965558780991262609e-03
3.850973407001151372e+03 1.368952774350121748e+00 1.947532085842357827e-03
3.854824380408153957e+03 1.383635006140617296e+00 2.044439833867557794e-03
3.858679204788563311e+03 1.399214869816900242e+00 2.225534043846860537e-03
3.862537883993353262e+03 1.413255766558465520e+00 2.228234711913972595e-03
3.866400421877347981e+03 1.425314391670987835e+00 2.204268411205094827e-03
3.870266822299226533e+03 1.435867072489050544e+00 2.197508424363652218e-03
3.874137089121526969e+03 1.442933920639174028e+00 2.116216497614460245e-03
3.878011226210649966e+03 1.447564274887319868e+00 2.062523335722386657e-03
3.881889237436861549e+03 1.449587708719885848e+00 2.034916742097412929e-03
3.885771126674299921e+03 1.450447172901373039e+00 1.931622274187903311e-03
3.889656897800975457e+03 1.449362006730445795e+00 1.857829389796292327e-03
3.893546554698777527e+03 1.445081412796660469e+00 1.867593421869360049e-03
3.897440101253477678e+03 1.440005086924743827e+00 2.210309807621025323e-03
3.901337541354732366e+03 1.433732001044575988e+00 2.458644092485049847e-03
3.905238878896088409e+03 1.429899194827727760e+00 2.392060321848305925e-03
3.909144117774985716e+03 1.426876383024757056e+00 2.184448399224217345e-03
3.913053261892762293e+03 1.426622481813581089e+00 2.763869838085530623e-03
3.916966315154656058e+03 1.427366089001186111e+00 3.397406297833025987e-03
3.920883281469812118e+03 1.426802329823752435e+00 3.600565401922372136e-03
3.924804164751283224e+03 1.426003571054929697e+00 3.439710904371211936e-03
3.928728968916035683e+03 1.424008604561650904e+00 3.130788332230312505e-03
3.932657697884953450e+03 1.421492311932563979e+00 2.616762218029336246e-03
3.936590355582839493e+03 1.415644517738657848e+00 3.360267460895875833e-03
3.940526945938423523e+03 1.407647727160051154e+00 3.661490328979730060e-03
3.944467472884363360e+03 1.402224829203451373e+00 3.555584694026784048e-03
3.948411940357249023e+03 1.396810991995906193e+00 3.330997015050091419e-03
3.952360352297607733e+03 1.392111147514770053e+00 3.352929038085129387e-03
3.956312712649906643e+03 1.387923108953325713e+00 3.384582658809158397e-03
3.960269025362557841e+03 1.385142616645169245e+00 3.325585089699006295e-03
3.964229294387921527e+03 1.384530816175137735e+00 3.001261698107757225e-03
3.968193523682310570e+03 1.384298393270576799e+00 3.272294119105234166e-03
3.972161717205994591e+03 1.385799775500321962e+00 3.377401712011666567e-03
3.976133878923201792e+03 1.388118927020230320e+00 3.227475108640028446e-03
3.980110012802126221e+03 1.392537206230420876e+00 3.166719313651978219e-03
3.984090122814929600e+03 1.397275108574873803e+00 2.962858595006945695e-03
3.988074212937745870e+03 1.404485314677666130e+00 3.385825184452141787e-03
3.992062287150684824e+03 1.411948617322898558e+00 3.545026171071341287e-03
3.996054349437837118e+03 1.418190011058791722e+00 3.379499011018640645e-03
4.000050403787276082e+03 1.423564813400888696e+00 3.069411140191213427e-03
4.004050454191064546e+03 1.427411366789515634e+00 2.928253775020430664e-03
4.008054504645257111e+03 1.429885189107155563e+00 2.979247491260397784e-03
4.012062559149903791e+03 1.428314997910938411e+00 3.149907257615327475e-03
4.016074621709055009e+03 1.426722309173220182e+00 2.222536543303633635e-03
4.020090696330765240e+03 1.425834577433387373e+00 2.366630027614263082e-03
4.024110787027097558e+03 1.423898541423860742e+00 2.355322732085701493e-03
4.028134897814125907e+03 1.421718552533625113e+00 2.336313147496652063e-03
4.032163032711941469e+03 1.420046637567877523e+00 2.248856572328549602e-03
4.036195195744654484e+03 1.417401742208360460e+00 2.260423208034006808e-03
4.040231390940400615e+03 1.415381724099160410e+00 2.160264112062853636e-03
4.044271622331342314e+03 1.411428921964799077e+00 2.259085771193928248e-03
4.048315893953675186e+03 1.406465307987561308e+00 2.340282508452587278e-03
4.052364209847629809e+03 1.399180710119148463e+00 2.328492196287092197e-03
4.056416574057479011e+03 1.390301565565998487e+00 2.348563559342447052e-03
4.060472990631537868e+03 1.379709460346655314e+00 2.493566087223475849e-03
4.064533463622170530e+03 1.369418622246994843e+00 2.701137600698049618e-03
4.068597997085794304e+03 1.360190526855588056e+00 2.686080987212733848e-03
4.072666595082881486e+03 1.351091898237244182e+00 2.677778102213413097e-03
4.076739261677965715e+03 1.342429449783224982e+00 2.669669058578513082e-03
4.080816000939644709e+03 1.333942567340054453e+00 2.644045858347342671e-03
4.084896816940585722e+03 1.326064337880731747e+00 2.616622783211122998e-03
4.088981713757527814e+03 1.319740952030284964e+00 2.366555527477455165e-03
4.093070695471286854e+03 1.316941177795589279e+00 2.261387631751286386e-03
4.097163766166759160e+03 1.315401152885483649e+00 2.259865894096633760e-03
4.101260929932927866e+03 1.315159017414771370e+00 2.523722483956685435e-03
4.105362190862862008e+03 1.317323235568636397e+00 2.444801508647952669e-03
4.109467553053726078e+03 1.321789030705854184e+00 2.645870711249466260e-03
4.113577020606780934e+03 1.325543485114160536e+00 2.361313070443605243e-03
4.117690597627389252e+03 1.332074032959863930e+00 2.902054241501217293e-03
4.121808288225018259e+03 1.339080943172820115e+00 3.481337308870133609e-03
4.125930096513244280e+03 1.343791065091514136e+00 2.952550629441915223e-03
4.130056026609759101e+03 1.346184744420200197e+00 2.565655872827169066e-03
4.134186082636369974e+03 1.345076651534262480e+00 3.127245087168788965e-03
4.138320268719007800e+03 1.341595289022645909e+00 3.264193911965720257e-03
4.142458588987728035e+03 1.336528219230383563e+00 2.969869077603388540e-03
4.146601047576717065e+03 1.330730793715904081e+00 3.015188114183229087e-03
4.150747648624294925e+03 1.322624602155483498e+00 2.963615292943285687e-03
4.154898396272920763e+03 1.313525601714695901e+00 2.931311386358101140e-03
4.159053294669195566e+03 1.302946520496011784e+00 2.950049285461283678e-03
4.163212347963865795e+03 1.292951316647684923e+00 2.925376175659272649e-03
4.167375560311830668e+03 1.283876483316688910e+00 2.780601291565940828e-03
4.171542935872143971e+03 1.275255736243342763e+00 2.644918275948889615e-03
4.175714478808017702e+03 1.265460620517233181e+00 2.750159723482695912e-03
4.179890193286827525e+03 1.256547258267482814e+00 2.621938502763980060e-03
4.184070083480115500e+03 1.249508098203087503e+00 2.567156645282037131e-03
4.188254153563597356e+03 1.243841358981339740e+00 2.624215850574944300e-03
4.192442407717161586e+03 1.238210165875542002e+00 2.520077951972711072e-03
4.196634850124880359e+03 1.235413083028280123e+00 2.660159302214272319e-03
4.200831484975006788e+03 1.233396713862421556e+00 1.832544820527561014e-03
4.205032316459983122e+03 1.229330844497514619e+00 1.764610149905198504e-03
4.209237348776444378e+03 1.224833122866406887e+00 1.914731895455381964e-03
4.213446586125221984e+03 1.219127899144019089e+00 1.687938252443362593e-03
4.217660032711349231e+03 1.214015619375817145e+00 1.624054772427572851e-03
4.221877692744061278e+03 1.208825840113892047e+00 1.615354890067632497e-03
4.226099570436806971e+03 1.203991475667928412e+00 1.606303657171385567e-03
4.230325670007245208e+03 1.198519942643431424e+00 1.662098740997582829e-03
4.234555995677254032e+03 1.194065799010115780e+00 1.851911184952085253e-03
4.238790551672932452e+03 1.190998377436890188e+00 1.619865007020861603e-03
4.243029342224606808e+03 1.190223383784439370e+00 1.744928722767152092e-03
4.247272371566832589e+03 1.190215110865516790e+00 1.834221700273094531e-03
4.251519643938400804e+03 1.190914745508211192e+00 1.821846710351132962e-03
4.255771163582340705e+03 1.190236429472854018e+00 1.871623922369700576e-03
4.260026934745924336e+03 1.189849141416778000e+00 1.881733295627919297e-03
4.264286961680671993e+03 1.189736402245729963e+00 1.866577436769140726e-03
4.268551248642354039e+03 1.189630385663243972e+00 1.945639665504260516e-03
4.272819799890998183e+03 1.188274706858307495e+00 1.936320551070038398e-03
4.277092619690890388e+03 1.186471828492992486e+00 1.961522378522477517e-03
4.281369712310583054e+03 1.184117633426361227e+00 1.946908594491563197e-03
4.285651082022895025e+03 1.180203026973100311e+00 1.852636822840431161e-03
4.289936733104918858e+03 1.175440973587047466e+00 2.048074349256661774e-03
4.294226669838025373e+03 1.169868243891854176e+00 2.295599413563285344e-03
4.298520896507864563e+03 1.162751563563787949e+00 1.961300998769822078e-03
4.302819417404373780e+03 1.153515236138903388e+00 2.108084026941869828e-03
4.307122236821779552e+03 1.143349698156112426e+00 2.489109020320245252e-03
4.311429359058603040e+03 1.132167951126948235e+00 2.724090795384293343e-03
4.315740788417662770e+03 1.121170926371684917e+00 2.433753814872159204e-03
4.320056529206081905e+03 1.113092405345474489e+00 2.290690377123812821e-03
4.324376585735290064e+03 1.106409328275392401e+00 2.202765563077761692e-03
4.328700962321026054e+03 1.102041633694197609e+00 2.243740001473580516e-03
4.333029663283348782e+03 1.100007524446566798e+00 2.295320674485016449e-03
4.337362692946633615e+03 1.098654922547858126e+00 2.276478410023684024e-03
4.341700055639581478e+03 1.099599801971333779e+00 2.233707448729715418e-03
4.346041755695222491e+03 1.102389841502751766e+00 2.047509610941861645e-03
4.350387797450919606e+03 1.106085291726932152e+00 1.552199551230264325e-03
4.354738185248371337e+03 1.107873888142358210e+00 1.704164658323637340e-03
4.359092923433621763e+03 1.109098537262433792e+00 1.566684094815601162e-03
4.363452016357056891e+03 1.110465574697396374e+00 1.615470237182090301e-03
4.367815468373414660e+03 1.111138793249594192e+00 1.747946402473549718e-03
4.372183283841789489e+03 1.111008991006016355e+00 1.703214424882661376e-03
4.376555467125633186e+03 1.110289428771812137e+00 1.465476275008364667e-03
4.380932022592760404e+03 1.108117282433135786e+00 1.506181451051032778e-03
4.385312954615354101e+03 1.105090475423905039e+00 1.533827898131909532e-03
4.389698267569970994e+03 1.100601728251670908e+00 2.042949985311773211e-03
4.394087965837542470e+03 1.096564781818322176e+00 1.844807401214555243e-03
4.398482053803381859e+03 1.093076241061667009e+00 1.496479881154497886e-03
4.402880535857186260e+03 1.092028523456502365e+00 1.571326127581044963e-03
4.407283416393044718e+03 1.091314946679224240e+00 1.557482298422802535e-03
4.411690699809440048e+03 1.091991191804028372e+00 1.656298186471272076e-03
4.416102390509250654e+03 1.093483879950026383e+00 1.686862404864337929e-03
4.420518492899761441e+03 1.094439260490656762e+00 1.667868766249561933e-03
4.424939011392662906e+03 1.096139381842208049e+00 1.593033033998173410e-03
4.429363950404056595e+03 1.097816092358687934e+00 1.369497399687927188e-03
4.433793314354462382e+03 1.098088499043557098e+00 1.135997786798626820e-03
4.438227107668818462e+03 1.095993847837163582e+00 1.063471500766105093e-03
4.442665334776488635e+03 1.093318020885776010e+00 1.069405493311891822e-03
4.447108000111265937e+03 1.089338973929079524e+00 1.183687576735043727e-03
4.451555108111379013e+03 1.084496304863515226e+00 1.399524137309637699e-03
4.456006663219492111e+03 1.079523435347758742e+00 1.334538123883055203e-03
4.460462669882713271e+03 1.075180894594447656e+00 1.282035263271539280e-03
4.464923132552597053e+03 1.071604150175957892e+00 1.294544283023066475e-03
4.469388055685150903e+03 1.068392581624351800e+00 1.410085158596751992e-03
4.473857443740837880e+03 1.065439132831345725e+00 1.277735251175163679e-03
4.478331301184580298e+03 1.065107900110545458e+00 1.258347311421704117e-03
4.482809632485766087e+03 1.066199392756998598e+00 1.236485512765717965e-03
4.487292442118253348e+03 1.069712966530656173e+00 1.458218882635078581e-03
4.491779734560373072e+03 1.073952026668824500e+00 1.491166343206539943e-03
4.496271514294934605e+03 1.079109877764431680e+00 1.382349027189910644e-03
4.500767785809231100e+03 1.084515741475579498e+00 1.283002465683966316e-03
4.505268553595042249e+03 1.089302512505838871e+00 1.398010342707352825e-03
4.509773822148638828e+03 1.095342474031477886e+00 1.387439250381139076e-03
4.514283595970789065e+03 1.101711505653131029e+00 1.378756760873402556e-03
4.518797879566761367e+03 1.107510798938811769e+00 1.391694236223511199e-03
4.523316677446328868e+03 1.113683321182614927e+00 1.377266335793301405e-03
4.527839994123776705e+03 1.120125808390561195e+00 1.374043452234604288e-03
4.532367834117902021e+03 1.125892596445805305e+00 1.318453359858892063e-03
