# starting wavelength: 3460.580
# ending wavelength: 7345.560
# wav flux eflux
3.463843857910266706e+03 3.172683603424327203e-01 9.419681610133718783e-03
3.467307701768178049e+03 3.052272046224200897e-01 7.977077924763605055e-03
3.470775009469947236e+03 2.980038426365183013e-01 6.338140172948761135e-03
3.474245784479418489e+03 2.930387047118753752e-01 4.757759091050533726e-03
3.477720030263898934e+03 2.902865586763749284e-01 3.658892132560012406e-03
3.481197750294164052e+03 2.896730019938152934e-01 3.005911400693417682e-03
3.484678948044459503e+03 2.902794001693634329e-01 2.440053290455131921e-03
3.488163626992504760e+03 2.917718260278681086e-01 2.160823070549908447e-03
3.491651790619498570e+03 2.950906316869724155e-01 1.763685560775067520e-03
3.495143442410119405e+03 2.995701008323397030e-01 1.492698907156197585e-03
3.498638585852530468e+03 3.053034873505043878e-01 1.384087997878285419e-03
3.502137224438384237e+03 3.118805182593693548e-01 1.233335181390206358e-03
3.505639361662823831e+03 3.188311682830723970e-01 1.129886295470435096e-03
3.509145001024487556e+03 3.267030850273259235e-01 1.078055195746701472e-03
3.512654146025513455e+03 3.356120813103140588e-01 1.320646512186300506e-03
3.516166800171540217e+03 3.438802737426636114e-01 1.259306500304708870e-03
3.519682966971712631e+03 3.521031275486262158e-01 1.224552840219455272e-03
3.523202649938685681e+03 3.599645662520669087e-01 1.192043953967588787e-03
3.526725852588625457e+03 3.675650100901437511e-01 1.201164333575739955e-03
3.530252578441215064e+03 3.743594078393444602e-01 1.225554312069601940e-03
3.533782831019657806e+03 3.807145292361022726e-01 1.201722538640476309e-03
3.537316613850678550e+03 3.859328373479993246e-01 1.289368277342938266e-03
3.540853930464530094e+03 3.905429393623006673e-01 1.423943956235753554e-03
3.544394784394995895e+03 3.943028125003657514e-01 1.683529497052939838e-03
3.547939179179392340e+03 3.972646367369150888e-01 1.995052816565882382e-03
3.551487118358572843e+03 4.000892604350224646e-01 2.131358348769002257e-03
3.555038605476932389e+03 4.026660145980421324e-01 2.148647090136146000e-03
3.558593644082410719e+03 4.060011635052190870e-01 2.114561779071879970e-03
3.562152237726494150e+03 4.085884143098914567e-01 1.968107068317384925e-03
3.565714389964221937e+03 4.114122961156125302e-01 1.877662284007445377e-03
3.569280104354187188e+03 4.145162854619555137e-01 1.888278165351893381e-03
3.572849384458542772e+03 4.171168727341788007e-01 1.911750226836100939e-03
3.576422233843002232e+03 4.199442513316206660e-01 1.889467458539451127e-03
3.579998656076846601e+03 4.232581848460173490e-01 2.002558075468159268e-03
3.583578654732924406e+03 4.267764399133715525e-01 2.050756474570507391e-03
3.587162233387658489e+03 4.310859456762811681e-01 1.915346284293833979e-03
3.590749395621047370e+03 4.342837353675976231e-01 1.920906241949796572e-03
3.594340145016669794e+03 4.379033914801958582e-01 1.870096110278325879e-03
3.597934485161687462e+03 4.415325595185315422e-01 1.831734499923012068e-03
3.601532419646850485e+03 4.451011228343408899e-01 1.836427889421209493e-03
3.605133952066498296e+03 4.482296900308596066e-01 1.905056186964966536e-03
3.608739086018566013e+03 4.516857013444265379e-01 1.913643236542650079e-03
3.612347825104585809e+03 4.554010400980616491e-01 1.979573795635693276e-03
3.615960172929691907e+03 4.581686407910326997e-01 1.940182247220927905e-03
3.619576133102622407e+03 4.615776661789445234e-01 1.948120040931684057e-03
3.623195709235726554e+03 4.642329413856587372e-01 1.815481582409509808e-03
3.626818904944963379e+03 4.670111372058041721e-01 1.922552789920913083e-03
3.630445723849909427e+03 4.703295869714729793e-01 1.991072891936077928e-03
3.634076169573760581e+03 4.729862681028498272e-01 2.066997960781198629e-03
3.637710245743335690e+03 4.759104054649027082e-01 2.059532105343244747e-03
3.641347955989080219e+03 4.783324247836358012e-01 1.872268216800148429e-03
3.644989303945070333e+03 4.802125085594730058e-01 1.623056746445163600e-03
3.648634293249016537e+03 4.821321088326612769e-01 1.486150598822765781e-03
3.652282927542266862e+03 4.825061700966702949e-01 1.680426617397579080e-03
3.655935210469810499e+03 4.824599112766444486e-01 1.897845463773968448e-03
3.659591145680281443e+03 4.810044827669210377e-01 2.468056833047675269e-03
3.663250736825963031e+03 4.789588695202843249e-01 2.230773436949017897e-03
3.666913987562790226e+03 4.785923534467325102e-01 2.035805497821770258e-03
3.670580901550354156e+03 4.792553423900849929e-01 2.240353238624441436e-03
3.674251482451905758e+03 4.789026323337598479e-01 2.151680422000663145e-03
3.677925733934358959e+03 4.791977653497633272e-01 2.273255609986031805e-03
3.681603659668294313e+03 4.797189899154781223e-01 2.395756806355635229e-03
3.685285263327964003e+03 4.802053008984924487e-01 2.501887625216477496e-03
3.688970548591293209e+03 4.802995801931435604e-01 2.403578253488896505e-03
3.692659519139885560e+03 4.803977094058026198e-01 2.326053114027254887e-03
3.696352178659026777e+03 4.795364953003254382e-01 2.196744606255231821e-03
3.700048530837686940e+03 4.776854158909883408e-01 2.066915887053235451e-03
3.703748579368525952e+03 4.752873337037164525e-01 1.855255864998234380e-03
3.707452327947895355e+03 4.705946452215740705e-01 1.967521110075140696e-03
3.711159780275844696e+03 4.639952679836741867e-01 2.249663155117893627e-03
3.714870940056121526e+03 4.569024392937267032e-01 2.319943699779781956e-03
3.718585810996179134e+03 4.490578178387568675e-01 2.078928913921964435e-03
3.722304396807176545e+03 4.416400523235380904e-01 1.962709933940970548e-03
3.726026701203984885e+03 4.343881073522776748e-01 1.687519827284774494e-03
3.729752727905190113e+03 4.275148990934802273e-01 1.706815752567546456e-03
3.733482480633096657e+03 4.214925437619317372e-01 1.747764590192337668e-03
3.737215963113731050e+03 4.167114795937957306e-01 1.848142265053360871e-03
3.740953179076846027e+03 4.135448998354517847e-01 1.734881792304774056e-03
3.744694132255923705e+03 4.102964228858565487e-01 1.620897202377337160e-03
3.748438826388181042e+03 4.074817487607419464e-01 1.536648435936541256e-03
3.752187265214570289e+03 4.042448286845859995e-01 2.018111247891747444e-03
3.755939452479786269e+03 4.013414549691182165e-01 1.957651595526767145e-03
3.759695391932267285e+03 4.012028482091212211e-01 1.974961933757920715e-03
3.763455087324201031e+03 4.029935724238415951e-01 1.977937019167228926e-03
3.767218542411526414e+03 4.063145941489793578e-01 2.075806266258706841e-03
3.770985760953939007e+03 4.099926403688557985e-01 1.782181810067680339e-03
3.774756746714894234e+03 4.157457302490294437e-01 1.753894417623701229e-03
3.778531503461610555e+03 4.236430239369737283e-01 2.587306763097840280e-03
3.782310034965073100e+03 4.334376748307535721e-01 3.378692934661234673e-03
3.786092345000039586e+03 4.427842315704646481e-01 3.348349202404745338e-03
3.789878437345040766e+03 4.517755284006502725e-01 2.852304826890137042e-03
3.793668315782387253e+03 4.584622788429212892e-01 2.560683277396308844e-03
3.797461984098170888e+03 4.637685435046354776e-01 2.755387718792436363e-03
3.801259446082270188e+03 4.674930436072780027e-01 3.184124861210154388e-03
3.805060705528353537e+03 4.706613434214927394e-01 3.499012809917169051e-03
3.808865766233883278e+03 4.746557075754626043e-01 3.436220462291613657e-03
3.812674632000118436e+03 4.783804963961200141e-01 3.067279960832595357e-03
3.816487306632119726e+03 4.823496939415423679e-01 2.282624132628487644e-03
3.820303793938753188e+03 4.908752327206442612e-01 1.958008042940274831e-03
3.824124097732693372e+03 5.035907420730220130e-01 1.893038839734235155e-03
3.827948221830427428e+03 5.214049500346856769e-01 2.002976253488175824e-03
3.831776170052258749e+03 5.433836151807458492e-01 2.087026919710726486e-03
3.835607946222312421e+03 5.681147957102697932e-01 2.142622155995140693e-03
3.839443554168536139e+03 5.959662191726782243e-01 1.968258365622770414e-03
3.843282997722705659e+03 6.262014079660613852e-01 1.591603275478141195e-03
3.847126280720429804e+03 6.569886948115696290e-01 1.599208317820679029e-03
3.850973407001151372e+03 6.875839689494311902e-01 1.626251247927907153e-03
3.854824380408153957e+03 7.176049046524537456e-01 1.600496857310362972e-03
3.858679204788563311e+03 7.485336412937614314e-01 2.008099465388282334e-03
3.862537883993353262e+03 7.776010515194781147e-01 1.677606475660444081e-03
3.866400421877347981e+03 8.034017223564939858e-01 1.718757019796917371e-03
3.870266822299226533e+03 8.270152469365952275e-01 2.149047269952413138e-03
3.874137089121526969e+03 8.478373073338291155e-01 2.257828634672151558e-03
3.878011226210649966e+03 8.680799932155153220e-01 2.059527131110237483e-03
3.881889237436861549e+03 8.873323504409170726e-01 1.878479695455610374e-03
3.885771126674299921e+03 9.059705013427873377e-01 1.804042672643401757e-03
3.889656897800975457e+03 9.244826048288971032e-01 1.813150096138430901e-03
3.893546554698777527e+03 9.424047911505963881e-01 1.827043962810019845e-03
3.897440101253477678e+03 9.603387708051033256e-01 1.799845332562309726e-03
3.901337541354732366e+03 9.787433846409996363e-01 1.763303885452521336e-03
3.905238878896088409e+03 9.980443210174153590e-01 1.738710903757616352e-03
3.909144117774985716e+03 1.017781361657105199e+00 1.805462859738307755e-03
3.913053261892762293e+03 1.036870923114216803e+00 2.247143955918092569e-03
3.916966315154656058e+03 1.053994807763512176e+00 2.579071968799280003e-03
3.920883281469812118e+03 1.068903807168922304e+00 3.091429389088268687e-03
3.924804164751283224e+03 1.080035627683839650e+00 3.049799789148101205e-03
3.928728968916035683e+03 1.086919961012077440e+00 2.926550060421492447e-03
3.932657697884953450e+03 1.091124076333728210e+00 2.864875156083118886e-03
3.936590355582839493e+03 1.091100869948268270e+00 4.663195855772745389e-03
3.940526945938423523e+03 1.089804680053034325e+00 5.213266538985215220e-03
3.944467472884363360e+03 1.089428539391674944e+00 4.497062316787488190e-03
3.948411940357249023e+03 1.091227757966488188e+00 3.595093255630643549e-03
3.952360352297607733e+03 1.096601610644837965e+00 3.601772406180144687e-03
3.956312712649906643e+03 1.105254244666641128e+00 4.151591816518510406e-03
3.960269025362557841e+03 1.116118154406297247e+00 4.191855554049780420e-03
3.964229294387921527e+03 1.129211971356075539e+00 3.970494010394862681e-03
3.968193523682310570e+03 1.142957674087088815e+00 3.451910951072027865e-03
3.972161717205994591e+03 1.156503133253992566e+00 3.402081544058489174e-03
3.976133878923201792e+03 1.169446517879330294e+00 3.652108698147971989e-03
3.980110012802126221e+03 1.181307014555033730e+00 3.569927195740530638e-03
3.984090122814929600e+03 1.192706815291058042e+00 3.532767205107506525e-03
3.988074212937745870e+03 1.202517649538096922e+00 4.180307648513520956e-03
3.992062287150684824e+03 1.209167700620035868e+00 4.786358752131515161e-03
3.996054349437837118e+03 1.212799387781905214e+00 4.759552622378365218e-03
4.000050403787276082e+03 1.211341683940726277e+00 4.144709910448186353e-03
4.004050454191064546e+03 1.204536636487711254e+00 3.803835052694545110e-03
4.008054504645257111e+03 1.191959964246196879e+00 4.388638693489169129e-03
4.012062559149903791e+03 1.173376711622804658e+00 4.592910896918987393e-03
4.016074621709055009e+03 1.152038142303600132e+00 4.130174986533169737e-03
4.020090696330765240e+03 1.128420658125409926e+00 3.669760083938468798e-03
4.024110787027097558e+03 1.102815769941555057e+00 3.199075280711655752e-03
4.028134897814125907e+03 1.077401972358095872e+00 3.121835899949171496e-03
4.032163032711941469e+03 1.052720481398542018e+00 3.107726742488694117e-03
4.036195195744654484e+03 1.028092706669622824e+00 3.297573632430537884e-03
4.040231390940400615e+03 1.006566378614071722e+00 3.028693249877723818e-03
4.044271622331342314e+03 9.859876366968253203e-01 2.950075361055364345e-03
4.048315893953675186e+03 9.656085882724843028e-01 3.017842768987065612e-03
4.052364209847629809e+03 9.451373913776536240e-01 3.286880353650778637e-03
4.056416574057479011e+03 9.238165440276852047e-01 3.436927649105152652e-03
4.060472990631537868e+03 9.025137038797131916e-01 3.432919473812920744e-03
4.064533463622170530e+03 8.815278943529641920e-01 3.256526060657925770e-03
4.068597997085794304e+03 8.602469214716513823e-01 2.954398159439276892e-03
4.072666595082881486e+03 8.382266580797030908e-01 3.016411869701242539e-03
4.076739261677965715e+03 8.155569408197087533e-01 3.453672509079990481e-03
4.080816000939644709e+03 7.931721605376730322e-01 3.441547499720713690e-03
4.084896816940585722e+03 7.719116929090003021e-01 2.831207827985825383e-03
4.088981713757527814e+03 7.538100371858494908e-01 1.976372104251612662e-03
4.093070695471286854e+03 7.403866806643289999e-01 2.265610744577663347e-03
4.097163766166759160e+03 7.304504658691368668e-01 2.444623623264119069e-03
4.101260929932927866e+03 7.238772815858931509e-01 2.377822690163919860e-03
4.105362190862862008e+03 7.205507087900465679e-01 1.666131095019819219e-03
4.109467553053726078e+03 7.188559280489579262e-01 1.679504322755091816e-03
4.113577020606780934e+03 7.181407946776290352e-01 1.769603027301958672e-03
4.117690597627389252e+03 7.207796275124285224e-01 1.808457480042410196e-03
4.121808288225018259e+03 7.251596025757551800e-01 2.283115397388656761e-03
4.125930096513244280e+03 7.300212723596058995e-01 2.521519882220480107e-03
4.130056026609759101e+03 7.354677216644582849e-01 2.615177957679275071e-03
4.134186082636369974e+03 7.396522763910474696e-01 2.531593533468030986e-03
4.138320268719007800e+03 7.428592929354620455e-01 2.511546249922785943e-03
4.142458588987728035e+03 7.458850514842488844e-01 2.435514062540370620e-03
4.146601047576717065e+03 7.480092594550246110e-01 2.628673632068025297e-03
4.150747648624294925e+03 7.489209621921532056e-01 2.958345493819519376e-03
4.154898396272920763e+03 7.499670811467815668e-01 2.944032749685774036e-03
4.159053294669195566e+03 7.518595466559510054e-01 2.570833982788736909e-03
4.163212347963865795e+03 7.552655657866508276e-01 1.834351559261179158e-03
4.167375560311830668e+03 7.615594469713804493e-01 2.323972979155635148e-03
4.171542935872143971e+03 7.699016102767928249e-01 2.856138212513476687e-03
4.175714478808017702e+03 7.786372940639746387e-01 2.782370448941550323e-03
4.179890193286827525e+03 7.871630935996069001e-01 2.029767227230766351e-03
4.184070083480115500e+03 7.932412603971744636e-01 1.601250991319796892e-03
4.188254153563597356e+03 7.968434936760625531e-01 1.940432888912906788e-03
4.192442407717161586e+03 7.986111484316968934e-01 2.002561883403267129e-03
4.196634850124880359e+03 7.998706740477411481e-01 1.968772846043901313e-03
4.200831484975006788e+03 8.003951482249477278e-01 1.901869497104117027e-03
4.205032316459983122e+03 7.997936589812310038e-01 1.664178247440236801e-03
4.209237348776444378e+03 7.994493634054516962e-01 1.605541387757895714e-03
4.213446586125221984e+03 7.990017158594518998e-01 1.617044263592983151e-03
4.217660032711349231e+03 7.989144639691531102e-01 1.641357210121621030e-03
4.221877692744061278e+03 7.993560151481771126e-01 1.440725770826892889e-03
4.226099570436806971e+03 7.998561236519381445e-01 1.210580365157242063e-03
4.230325670007245208e+03 7.996468210051859149e-01 1.548853911802119260e-03
4.234555995677254032e+03 7.997496452449771587e-01 1.626356884807567084e-03
4.238790551672932452e+03 7.998128444326920716e-01 1.378022734653918009e-03
4.243029342224606808e+03 8.012777907828155799e-01 1.415910144108634139e-03
4.247272371566832589e+03 8.036743694084901302e-01 1.697183105088280854e-03
4.251519643938400804e+03 8.064274217315825499e-01 1.773874611544790873e-03
4.255771163582340705e+03 8.093689822533145506e-01 1.634196714836926934e-03
4.260026934745924336e+03 8.121833649489589302e-01 1.334023038920984644e-03
4.264286961680671993e+03 8.137287806544378777e-01 1.695333218713827687e-03
4.268551248642354039e+03 8.155640858158257345e-01 1.834042359635397771e-03
4.272819799890998183e+03 8.176325902935799306e-01 1.879708137472194335e-03
4.277092619690890388e+03 8.200953120982383826e-01 1.875069395724617612e-03
4.281369712310583054e+03 8.231281923568535275e-01 1.687151353948494661e-03
4.285651082022895025e+03 8.271511606686940965e-01 1.962907062376136654e-03
4.289936733104918858e+03 8.313672728166053849e-01 2.497367932602956135e-03
4.294226669838025373e+03 8.353644804809693403e-01 2.971342687224306188e-03
4.298520896507864563e+03 8.370469661910399095e-01 2.698532087488142613e-03
4.302819417404373780e+03 8.364863996071695285e-01 2.086933498437709960e-03
4.307122236821779552e+03 8.323839394598526731e-01 1.737076272045266680e-03
4.311429359058603040e+03 8.241888884746083610e-01 2.190864967174264554e-03
4.315740788417662770e+03 8.136754125595144771e-01 2.273724086863594847e-03
4.320056529206081905e+03 8.006401426291672729e-01 1.999505583007524581e-03
4.324376585735290064e+03 7.874107503487475235e-01 1.870249793231824453e-03
4.328700962321026054e+03 7.741116791013653575e-01 1.496855616897018121e-03
4.333029663283348782e+03 7.621481944806508535e-01 1.209921785273666709e-03
4.337362692946633615e+03 7.523708244589780714e-01 1.161194104459636195e-03
4.341700055639581478e+03 7.453073614600855823e-01 1.153370023718323228e-03
4.346041755695222491e+03 7.408228776484461209e-01 1.197190143328414995e-03
4.350387797450919606e+03 7.403120709665836907e-01 1.202466189528876442e-03
4.354738185248371337e+03 7.420944010074460584e-01 1.251479297222326181e-03
4.359092923433621763e+03 7.453740752121653657e-01 1.321067842902681234e-03
4.363452016357056891e+03 7.504251698171584550e-01 1.612675507041693183e-03
4.367815468373414660e+03 7.571701144686335816e-01 1.704763185768823049e-03
4.372183283841789489e+03 7.642004620487745647e-01 1.636652506026052816e-03
4.376555467125633186e+03 7.714633063647656774e-01 1.153919871047472860e-03
4.380932022592760404e+03 7.775749467565427064e-01 1.197865752429796418e-03
4.385312954615354101e+03 7.835756806241273020e-01 1.228017956639824299e-03
4.389698267569970994e+03 7.885819667805537003e-01 1.255480199154800731e-03
4.394087965837542470e+03 7.936125305444142741e-01 1.036610098751851406e-03
4.398482053803381859e+03 7.990633511669305022e-01 9.917695821659848910e-04
4.402880535857186260e+03 8.047175725485459230e-01 9.268522247479367687e-04
4.407283416393044718e+03 8.116172893221870188e-01 1.118622126128607014e-03
4.411690699809440048e+03 8.209412387708335812e-01 1.101633043705294674e-03
4.416102390509250654e+03 8.325407794736884304e-01 1.158407264908879524e-03
4.420518492899761441e+03 8.468265779282050376e-01 1.139731580659552072e-03
4.424939011392662906e+03 8.636795870625919580e-01 1.131527559266891705e-03
4.429363950404056595e+03 8.825144830948979946e-01 1.012589725049899830e-03
4.433793314354462382e+03 9.050117489630469247e-01 1.446714573594599105e-03
4.438227107668818462e+03 9.289250767579091406e-01 1.689616218317764812e-03
4.442665334776488635e+03 9.537865316268705485e-01 1.721572238744299059e-03
4.447108000111265937e+03 9.794666967271804525e-01 1.548440573552223613e-03
4.451555108111379013e+03 1.005672504281245772e+00 1.567168713548336379e-03
4.456006663219492111e+03 1.032375310561352233e+00 1.620888302444551841e-03
4.460462669882713271e+03 1.058998138266628475e+00 1.659475688597469075e-03
4.464923132552597053e+03 1.085601457554181914e+00 1.495941437068771564e-03
4.469388055685150903e+03 1.112274083190694984e+00 1.476776329335185382e-03
4.473857443740837880e+03 1.138718070954714001e+00 1.603043348557568618e-03
4.478331301184580298e+03 1.165135693004407225e+00 1.628281921080144100e-03
4.482809632485766087e+03 1.190363969627132201e+00 1.498036158020161525e-03
4.487292442118253348e+03 1.214121410824091862e+00 1.506998661902868514e-03
4.491779734560373072e+03 1.236725305467161196e+00 1.549393379656563603e-03
4.496271514294934605e+03 1.258535294296462270e+00 1.585707234476729484e-03
4.500767785809231100e+03 1.278855194756588709e+00 1.612873841525576564e-03
4.505268553595042249e+03 1.298287176242346463e+00 1.594400491458902594e-03
4.509773822148638828e+03 1.316758405873918125e+00 1.311292034959475779e-03
