# starting wavelength: 3405.680
# ending wavelength: 7214.580
# wav flux eflux
3.408890625824114522e+03 1.228094094260610281e-01 4.670033257986350855e-02
3.412299516449939802e+03 1.048583962910314554e-01 3.422192158328818401e-02
3.415711815966390986e+03 8.884393119477920764e-02 2.571291827682085224e-02
3.419127527782358356e+03 7.678034007341172362e-02 2.057683406262821035e-02
3.422546655310141887e+03 6.027046600808057264e-02 1.739688907017260949e-02
3.425969201965453522e+03 5.089649817052778469e-02 1.387635368049299801e-02
3.429395171167419903e+03 4.487390774868071919e-02 1.131435927040809822e-02
3.432824566338588284e+03 4.310655614395850210e-02 9.253509897020135294e-03
3.436257390904928343e+03 4.541703461250168328e-02 7.852133449300449999e-03
3.439693648295834464e+03 5.289527221346954078e-02 7.068744682689921156e-03
3.443133341944131189e+03 6.579507147437094194e-02 6.720103608752680049e-03
3.446576475286076402e+03 8.430700111362142424e-02 6.949894681661279369e-03
3.450023051761363604e+03 1.067886623113409178e-01 7.148077486009922488e-03
3.453473074813126004e+03 1.311804685711250029e-01 7.079995564130572502e-03
3.456926547887940615e+03 1.542344060568699715e-01 6.694848381544497157e-03
3.460383474435829612e+03 1.773777684331593885e-01 6.428792829670924858e-03
3.463843857910266706e+03 2.009392988296191118e-01 6.231604307025872570e-03
3.467307701768178049e+03 2.261788999191260419e-01 5.879499196193723430e-03
3.470775009469947236e+03 2.518493720251697154e-01 5.729488101423647721e-03
3.474245784479418489e+03 2.762884663822176012e-01 5.596637132181689865e-03
3.477720030263898934e+03 2.995051257299251035e-01 5.586128518518588409e-03
3.481197750294164052e+03 3.226536697989399460e-01 6.354442764880832359e-03
3.484678948044459503e+03 3.418260721949079040e-01 6.783309804457850548e-03
3.488163626992504760e+03 3.571466940191739825e-01 7.355964652490493486e-03
3.491651790619498570e+03 3.678102189423309021e-01 7.909429256156744192e-03
3.495143442410119405e+03 3.753698921414490020e-01 7.898781710521081759e-03
3.498638585852530468e+03 3.761888187065339784e-01 7.132510944698021958e-03
3.502137224438384237e+03 3.677551243198746711e-01 7.151061059817283294e-03
3.505639361662823831e+03 3.519755250038609784e-01 7.887610444880894037e-03
3.509145001024487556e+03 3.310679657074371285e-01 8.436532133106085241e-03
3.512654146025513455e+03 3.084045811106078117e-01 8.673626534966900892e-03
3.516166800171540217e+03 2.795067790111938622e-01 9.005529080502750264e-03
3.519682966971712631e+03 2.468669793241558830e-01 9.554186379008492228e-03
3.523202649938685681e+03 2.116448630215405635e-01 1.012020805989428431e-02
3.526725852588625457e+03 1.746894284081722259e-01 1.131635559700897367e-02
3.530252578441215064e+03 1.375161285464232830e-01 1.165437588703409529e-02
3.533782831019657806e+03 1.028344266515224814e-01 1.160534013060897374e-02
3.537316613850678550e+03 7.059308924937353347e-02 1.097765584204732706e-02
3.540853930464530094e+03 4.342310398565796259e-02 9.795211890711528688e-03
3.544394784394995895e+03 2.477029190591403807e-02 9.613061927564392484e-03
3.547939179179392340e+03 6.848447782403233042e-03 8.728239878379492889e-03
3.551487118358572843e+03 -2.932194812563682085e-03 8.376417153441810190e-03
3.555038605476932389e+03 -4.973541551547389084e-03 9.062252965117818804e-03
3.558593644082410719e+03 2.078416002456173750e-03 1.061388808931550132e-02
3.562152237726494150e+03 2.066369641765739007e-02 1.012850737689602147e-02
3.565714389964221937e+03 3.860094951445255940e-02 8.201257229236327828e-03
3.569280104354187188e+03 5.723554798320680537e-02 6.336332461948867255e-03
3.572849384458542772e+03 7.467150045842578521e-02 6.291445966581812529e-03
3.576422233843002232e+03 9.562377405770113026e-02 6.028051455237638800e-03
3.579998656076846601e+03 1.153804380354610110e-01 5.980494134213802659e-03
3.583578654732924406e+03 1.349512944288525917e-01 6.087257009764508210e-03
3.587162233387658489e+03 1.511112785478971321e-01 6.278914045549141738e-03
3.590749395621047370e+03 1.669210458768263239e-01 6.577103513127010442e-03
3.594340145016669794e+03 1.815551816934097007e-01 6.959992311343006846e-03
3.597934485161687462e+03 1.900021511914251893e-01 6.990205841675389310e-03
3.601532419646850485e+03 1.960074033665237248e-01 7.124770252045324603e-03
3.605133952066498296e+03 1.973686119290349317e-01 7.423217614531216896e-03
3.608739086018566013e+03 1.947210661199915427e-01 7.695492301146061170e-03
3.612347825104585809e+03 1.882054231341779849e-01 7.779020898354044138e-03
3.615960172929691907e+03 1.809016148605406826e-01 7.794759243094776142e-03
3.619576133102622407e+03 1.751432424452672165e-01 7.827098923740226019e-03
3.623195709235726554e+03 1.690204884266498508e-01 7.895646126505737397e-03
3.626818904944963379e+03 1.630228333921437955e-01 8.198796425890010273e-03
3.630445723849909427e+03 1.559410834282035641e-01 8.170657204058519654e-03
3.634076169573760581e+03 1.495594404589401516e-01 7.999453896423038349e-03
3.637710245743335690e+03 1.423329931267093840e-01 8.115393145770120192e-03
3.641347955989080219e+03 1.375708431105335805e-01 8.347655306399614714e-03
3.644989303945070333e+03 1.350790168873350905e-01 8.844115906697974996e-03
3.648634293249016537e+03 1.334671063597800966e-01 8.848797938488070502e-03
3.652282927542266862e+03 1.308019296713174573e-01 8.759226283454076348e-03
3.655935210469810499e+03 1.313804746900363862e-01 7.818679993517064011e-03
3.659591145680281443e+03 1.322388003448210503e-01 6.441134728252362329e-03
3.663250736825963031e+03 1.310743849722301735e-01 7.110154530978388468e-03
3.666913987562790226e+03 1.318013456648213788e-01 7.385484070533274853e-03
3.670580901550354156e+03 1.284202599749900975e-01 7.426756989305547708e-03
3.674251482451905758e+03 1.266641616388594627e-01 6.005899196258717918e-03
3.677925733934358959e+03 1.256462163808278187e-01 3.814472294475707015e-03
3.681603659668294313e+03 1.342605837317619732e-01 2.842666354374421504e-03
3.685285263327964003e+03 1.503848075013007324e-01 2.640695094938958366e-03
3.688970548591293209e+03 1.744289194717280611e-01 3.170355285932252402e-03
3.692659519139885560e+03 2.030578896256719224e-01 3.670390627204641459e-03
3.696352178659026777e+03 2.374798500452630634e-01 5.084148542628184712e-03
3.700048530837686940e+03 2.747379805751958837e-01 5.870429021985851432e-03
3.703748579368525952e+03 3.114645463811603343e-01 5.380942901230934168e-03
3.707452327947895355e+03 3.491687309292120789e-01 5.103188471309064514e-03
3.711159780275844696e+03 3.847398029265226560e-01 4.271702475836837432e-03
3.714870940056121526e+03 4.168478635005883337e-01 2.841632220980622441e-03
3.718585810996179134e+03 4.404110249450868264e-01 2.814037074323648500e-03
3.722304396807176545e+03 4.569978072772445943e-01 2.507973829267213205e-03
3.726026701203984885e+03 4.663948106340506383e-01 2.863687506885900184e-03
3.729752727905190113e+03 4.653085714867368217e-01 3.063157549730093424e-03
3.733482480633096657e+03 4.569044619007243124e-01 3.196257949535590004e-03
3.737215963113731050e+03 4.406004352359545462e-01 3.319946577987786373e-03
3.740953179076846027e+03 4.195587633261573246e-01 3.316425745387433649e-03
3.744694132255923705e+03 3.946306653252463770e-01 3.643117833779922678e-03
3.748438826388181042e+03 3.646568250710689463e-01 5.639619761410506055e-03
3.752187265214570289e+03 3.339517334138302762e-01 6.701867088947056558e-03
3.755939452479786269e+03 3.110872842699335394e-01 7.096146993870592820e-03
3.759695391932267285e+03 2.949422068812502795e-01 5.993734808230850863e-03
3.763455087324201031e+03 2.889692534185096529e-01 5.342241542620889370e-03
3.767218542411526414e+03 2.935908393799840921e-01 5.841453112343919681e-03
3.770985760953939007e+03 3.090834964025346854e-01 7.522151166341903283e-03
3.774756746714894234e+03 3.336386021637595123e-01 9.637369052251201426e-03
3.778531503461610555e+03 3.634192590752413632e-01 8.882952487820170925e-03
3.782310034965073100e+03 3.926675297835193201e-01 7.633249839185432019e-03
3.786092345000039586e+03 4.210276110126758842e-01 6.447427392973845671e-03
3.789878437345040766e+03 4.457031851340778617e-01 6.962409795341781282e-03
3.793668315782387253e+03 4.666188388912282936e-01 7.798707908341931394e-03
3.797461984098170888e+03 4.856039486299603136e-01 7.803612980429877610e-03
3.801259446082270188e+03 5.027453741030950551e-01 7.374854019124284753e-03
3.805060705528353537e+03 5.177278891836297747e-01 7.389881230896450451e-03
3.808865766233883278e+03 5.269590507238961496e-01 6.669796736728307238e-03
3.812674632000118436e+03 5.382552262723103720e-01 6.975865694633278345e-03
3.816487306632119726e+03 5.491111988830965629e-01 6.622605504699358853e-03
3.820303793938753188e+03 5.589666711196090709e-01 5.804922118040826799e-03
3.824124097732693372e+03 5.649234693805897933e-01 6.759592947859347466e-03
3.827948221830427428e+03 5.725134505654414507e-01 7.163402815626765049e-03
3.831776170052258749e+03 5.823929092308961497e-01 7.045517404729403042e-03
3.835607946222312421e+03 5.942396764736820325e-01 6.649491664812332350e-03
3.839443554168536139e+03 6.102009439221849352e-01 5.615896605177928165e-03
3.843282997722705659e+03 6.333891657794489261e-01 4.656986186324404801e-03
3.847126280720429804e+03 6.652776325253352274e-01 4.724821559368825273e-03
3.850973407001151372e+03 7.085052153052486812e-01 5.128367567472126576e-03
3.854824380408153957e+03 7.545537131230641847e-01 3.860323105503000573e-03
3.858679204788563311e+03 8.013428247122164061e-01 3.524652572356620512e-03
3.862537883993353262e+03 8.482320488050950624e-01 3.740845678332422805e-03
3.866400421877347981e+03 8.967637821322813618e-01 3.844511657636176093e-03
3.870266822299226533e+03 9.456535117111927180e-01 4.854219912986187414e-03
3.874137089121526969e+03 9.925453232690208960e-01 4.896381103987275385e-03
3.878011226210649966e+03 1.031704390446640085e+00 4.833914821315404495e-03
3.881889237436861549e+03 1.064061746848806056e+00 5.299551282522865780e-03
3.885771126674299921e+03 1.095343652177612981e+00 5.163893823992357981e-03
3.889656897800975457e+03 1.120622793513267990e+00 5.221824903323232098e-03
3.893546554698777527e+03 1.139363778552121564e+00 5.714310752469174866e-03
3.897440101253477678e+03 1.154253757961026361e+00 5.210921688972999614e-03
3.901337541354732366e+03 1.168714305054775249e+00 5.245236285966851236e-03
3.905238878896088409e+03 1.180281212165747773e+00 5.251357504427696561e-03
3.909144117774985716e+03 1.188458690801901918e+00 5.344654966224647932e-03
3.913053261892762293e+03 1.192946902523972286e+00 5.323857107164433992e-03
3.916966315154656058e+03 1.195569422135466020e+00 5.289545784831092140e-03
3.920883281469812118e+03 1.194228232451872040e+00 5.451206533342843955e-03
3.924804164751283224e+03 1.194908688221285820e+00 4.640496423521116645e-03
3.928728968916035683e+03 1.187993252559371493e+00 5.215556517708585735e-03
3.932657697884953450e+03 1.178603349131622569e+00 4.970257554650529992e-03
3.936590355582839493e+03 1.166839013812016157e+00 4.221325759995225337e-03
3.940526945938423523e+03 1.155552351051666982e+00 4.798076172044318105e-03
3.944467472884363360e+03 1.143077801502303092e+00 4.601158939900953232e-03
3.948411940357249023e+03 1.128990020057698107e+00 4.229628138500457664e-03
3.952360352297607733e+03 1.109593092235469758e+00 4.712110832095651319e-03
3.956312712649906643e+03 1.089483173354562462e+00 4.888966097368948639e-03
3.960269025362557841e+03 1.072093712053518999e+00 4.672936445010838873e-03
3.964229294387921527e+03 1.052244971248184058e+00 4.961809412895553002e-03
3.968193523682310570e+03 1.032190305532918018e+00 4.269613803644288497e-03
3.972161717205994591e+03 1.014936308795794773e+00 3.895121876424467375e-03
3.976133878923201792e+03 1.001839370197179502e+00 4.002519861829547353e-03
3.980110012802126221e+03 9.911897292575315710e-01 4.345083446253279573e-03
3.984090122814929600e+03 9.833739154201849297e-01 4.216470082416239572e-03
3.988074212937745870e+03 9.767733791502477558e-01 4.440077600420740643e-03
3.992062287150684824e+03 9.738273467812232909e-01 4.404680559408137228e-03
3.996054349437837118e+03 9.714986617645641198e-01 4.421526443362936050e-03
4.000050403787276082e+03 9.737687221801012427e-01 4.290849731873523816e-03
4.004050454191064546e+03 9.724032206576984638e-01 3.749151355132824236e-03
4.008054504645257111e+03 9.727053681573771815e-01 4.704202034317779731e-03
4.012062559149903791e+03 9.720307009107383989e-01 5.576455985571872505e-03
4.016074621709055009e+03 9.679517767401137895e-01 5.128094916352224711e-03
4.020090696330765240e+03 9.580718774394646475e-01 5.414974201478481818e-03
4.024110787027097558e+03 9.460212630674670331e-01 5.299898297352745660e-03
4.028134897814125907e+03 9.280182292976102421e-01 5.203748903818463008e-03
4.032163032711941469e+03 9.065430474031515029e-01 5.286203680644750366e-03
4.036195195744654484e+03 8.828139906244036883e-01 5.332979757456487134e-03
4.040231390940400615e+03 8.554944883583531778e-01 4.520075407404975341e-03
4.044271622331342314e+03 8.286312060079236153e-01 3.990612681608230947e-03
4.048315893953675186e+03 8.013869363390246914e-01 3.696234886394138275e-03
4.052364209847629809e+03 7.786362669196400521e-01 3.680329870552288656e-03
4.056416574057479011e+03 7.583352622467443016e-01 3.454041438384684599e-03
4.060472990631537868e+03 7.392354649875538808e-01 3.885662685303052817e-03
4.064533463622170530e+03 7.236844559235060537e-01 3.837914126486126690e-03
4.068597997085794304e+03 7.109840027113306649e-01 4.280931773043128614e-03
4.072666595082881486e+03 6.994846258924339866e-01 5.765282534050276270e-03
4.076739261677965715e+03 6.866706183842079536e-01 6.177432615912858971e-03
4.080816000939644709e+03 6.701437313294437148e-01 6.048714855415417493e-03
4.084896816940585722e+03 6.519923018968692974e-01 5.240828301287641863e-03
4.088981713757527814e+03 6.309282319365223657e-01 4.953821879821194811e-03
4.093070695471286854e+03 6.052692890743771592e-01 5.987940667584554233e-03
4.097163766166759160e+03 5.765325054658763104e-01 6.176680940290408400e-03
4.101260929932927866e+03 5.513518795999671207e-01 5.725151137244079320e-03
4.105362190862862008e+03 5.283229711235758463e-01 5.557838090495547528e-03
4.109467553053726078e+03 5.060099493058756170e-01 5.161843268974102700e-03
4.113577020606780934e+03 4.873888121285930852e-01 5.085561021368242840e-03
4.117690597627389252e+03 4.734185460637770904e-01 5.050177733587275439e-03
4.121808288225018259e+03 4.644820264207597527e-01 4.824658276037455812e-03
4.125930096513244280e+03 4.596543342848463110e-01 4.733887646035038824e-03
4.130056026609759101e+03 4.599910430829895480e-01 4.368544385243566461e-03
4.134186082636369974e+03 4.616930347678246394e-01 4.434785488905193356e-03
4.138320268719007800e+03 4.662418719303966785e-01 3.921352439057396687e-03
4.142458588987728035e+03 4.745768404424271503e-01 4.548105309828050571e-03
4.146601047576717065e+03 4.847438433184733664e-01 5.624580573839976089e-03
4.150747648624294925e+03 4.963028225166503660e-01 5.534332192855929457e-03
4.154898396272920763e+03 5.048218802522563831e-01 4.907164159192607331e-03
4.159053294669195566e+03 5.112010588319968463e-01 4.935873358160941353e-03
4.163212347963865795e+03 5.159797928757207108e-01 5.431927975802957990e-03
4.167375560311830668e+03 5.187184317241299025e-01 5.970147835344710371e-03
4.171542935872143971e+03 5.197947027289893107e-01 5.441610975623533721e-03
4.175714478808017702e+03 5.218111302577194133e-01 3.995548337315326520e-03
4.179890193286827525e+03 5.270711802754559638e-01 4.228142684005010456e-03
4.184070083480115500e+03 5.340412233745014392e-01 4.631953722211463662e-03
4.188254153563597356e+03 5.407247103240118147e-01 4.629117382418763624e-03
4.192442407717161586e+03 5.486257113379126027e-01 4.334454449184997095e-03
4.196634850124880359e+03 5.572155868200824314e-01 3.937143945119023561e-03
4.200831484975006788e+03 5.652727764958614953e-01 3.673507402493411331e-03
4.205032316459983122e+03 5.728550050911276337e-01 3.529398922317908242e-03
4.209237348776444378e+03 5.775252481128868576e-01 3.464730500802981183e-03
4.213446586125221984e+03 5.802672399638098000e-01 3.122054784687922253e-03
4.217660032711349231e+03 5.813457387492954043e-01 3.083760984874155814e-03
4.221877692744061278e+03 5.830876178424546641e-01 3.072156138490926124e-03
4.226099570436806971e+03 5.874229541536161170e-01 2.981261296610984279e-03
4.230325670007245208e+03 5.918776013289830384e-01 3.479243565902623726e-03
4.234555995677254032e+03 5.979095172947445080e-01 3.473537657382019979e-03
4.238790551672932452e+03 6.057786362743230457e-01 3.390716303699073918e-03
4.243029342224606808e+03 6.152022870105890995e-01 3.254997846895339372e-03
4.247272371566832589e+03 6.268885959187521228e-01 3.045727808172915985e-03
4.251519643938400804e+03 6.403528343888527097e-01 3.215604158654079402e-03
4.255771163582340705e+03 6.575791131106714094e-01 4.833342648745037745e-03
4.260026934745924336e+03 6.722588722151120466e-01 4.266249613151352343e-03
4.264286961680671993e+03 6.854909797805188720e-01 3.387552446699678820e-03
4.268551248642354039e+03 6.951250610511410244e-01 3.085227603163901485e-03
4.272819799890998183e+03 6.993039639650655559e-01 2.959260039660126761e-03
4.277092619690890388e+03 6.988843026243728440e-01 3.027289488515101049e-03
4.281369712310583054e+03 6.935981381100673193e-01 3.338892267825052055e-03
4.285651082022895025e+03 6.858951622864104536e-01 4.186431951306233447e-03
4.289936733104918858e+03 6.783327789122305385e-01 4.179897301554762190e-03
4.294226669838025373e+03 6.727999439772462953e-01 4.360816300828143643e-03
4.298520896507864563e+03 6.683928711536175626e-01 4.051270964549290310e-03
4.302819417404373780e+03 6.720873932219897373e-01 3.651301338595515367e-03
4.307122236821779552e+03 6.822462591780210639e-01 4.144712152276440638e-03
4.311429359058603040e+03 6.954277012764454868e-01 4.432918346291623950e-03
4.315740788417662770e+03 7.145342720270336789e-01 5.015506102863240799e-03
4.320056529206081905e+03 7.342123678658122321e-01 4.878767759716653302e-03
4.324376585735290064e+03 7.523077558050873526e-01 4.582944681949673200e-03
4.328700962321026054e+03 7.695305591715821958e-01 4.292183752315088460e-03
4.333029663283348782e+03 7.813303273358445100e-01 3.915252096815123768e-03
4.337362692946633615e+03 7.899443632281383243e-01 2.996041143287716396e-03
4.341700055639581478e+03 7.896143543154564570e-01 2.862060861276751345e-03
4.346041755695222491e+03 7.857196485674071695e-01 2.906594515496106930e-03
4.350387797450919606e+03 7.771391677909363915e-01 2.938572290136959135e-03
4.354738185248371337e+03 7.628228545570030494e-01 3.515517799871324678e-03
4.359092923433621763e+03 7.475101856327834859e-01 4.474806255460403275e-03
4.363452016357056891e+03 7.323274134464510254e-01 5.745570183002533457e-03
4.367815468373414660e+03 7.205688027723693434e-01 6.439855291872660994e-03
4.372183283841789489e+03 7.173739481946520558e-01 6.231879486619809616e-03
4.376555467125633186e+03 7.209748942634560676e-01 5.787684126093977678e-03
4.380932022592760404e+03 7.303048494525135048e-01 5.232733799138710763e-03
4.385312954615354101e+03 7.497052930692730266e-01 6.443279122878262793e-03
4.389698267569970994e+03 7.747169881937785441e-01 7.696411215554700182e-03
4.394087965837542470e+03 8.014961033713141614e-01 7.847296787397218740e-03
4.398482053803381859e+03 8.290739819420404055e-01 6.390940050536951696e-03
4.402880535857186260e+03 8.529835616425046618e-01 5.215668199043375225e-03
4.407283416393044718e+03 8.721971333986480168e-01 4.521335660145582754e-03
4.411690699809440048e+03 8.841041457964008421e-01 4.186455178242056915e-03
4.416102390509250654e+03 8.862340323659639862e-01 4.944507520007926371e-03
4.420518492899761441e+03 8.847035491275248020e-01 4.393354062037818815e-03
4.424939011392662906e+03 8.806626452710981656e-01 2.668009165630891213e-03
4.429363950404056595e+03 8.781604260469864087e-01 2.501225264629230571e-03
4.433793314354462382e+03 8.767615793112866207e-01 3.028596621740621813e-03
4.438227107668818462e+03 8.782025700325728490e-01 3.340887256905431240e-03
