# starting wavelength: 3143.950
# ending wavelength: 9244.160
# wav flux eflux
3.146928450510986750e+03 1.282823832175108647e+00 1.207066552232975154e-01
3.150075378961498700e+03 1.205182895037223645e+00 1.046319368044906495e-01
3.153225454340461056e+03 1.142985152669394822e+00 8.845370127209166433e-02
3.156378679794802792e+03 1.122944347578436641e+00 8.654281503018616817e-02
3.159535058474598372e+03 1.148123782493395417e+00 8.631880932604987788e-02
3.162694593533074112e+03 1.200667410844403538e+00 8.276667296384557226e-02
3.165857288126608182e+03 1.273666667679433484e+00 8.081619854049676421e-02
3.169023145414736064e+03 1.337774354581620750e+00 7.572796527258475463e-02
3.172192168560151458e+03 1.385396582454553105e+00 7.248717092882057955e-02
3.175364360728712654e+03 1.431579654961533832e+00 6.946093207071342424e-02
3.178539725089442527e+03 1.444176604894324756e+00 6.743707334587384361e-02
3.181718264814533086e+03 1.415210674472632491e+00 7.336930218100386203e-02
3.184899983079348658e+03 1.393608915410900817e+00 7.630251535061560730e-02
3.188084883062429071e+03 1.365652156255562799e+00 7.874008087263890954e-02
3.191272967945492383e+03 1.336436466809707291e+00 7.894197090346018186e-02
3.194464240913438971e+03 1.306749119679866178e+00 7.846590712553055957e-02
3.197658705154353811e+03 1.245981909750313532e+00 7.845811651056908143e-02
3.200856363859509202e+03 1.159510616498068858e+00 7.662228179910048065e-02
3.204057220223369768e+03 1.092751193520512754e+00 7.810189680250879951e-02
3.207261277443593826e+03 1.020934955320615956e+00 8.060217106841147117e-02
3.210468538721038840e+03 9.121874419806448309e-01 8.057864249782861754e-02
3.213679007259760965e+03 7.607062206398770288e-01 8.007689508422058400e-02
3.216892686267021418e+03 6.157782401454421350e-01 8.081630945363932339e-02
3.220109578953289656e+03 4.587006318108308722e-01 8.409097078863661534e-02
3.223329688532243836e+03 2.966935293258965989e-01 8.578573291298127734e-02
3.226553018220777176e+03 1.525108914310797370e-01 8.552686768835461584e-02
3.229779571238999324e+03 5.383359069522142271e-03 8.412066117071562155e-02
3.233009350810239084e+03 -1.197320814080058970e-01 8.664563369293354356e-02
3.236242360161050783e+03 -2.454365888280553576e-01 8.655549565802092560e-02
3.239478602521212906e+03 -3.695162322514303765e-01 8.591255573359388165e-02
3.242718081123734919e+03 -4.901608629666041606e-01 8.508733353931639820e-02
3.245960799204859995e+03 -5.592416493142018385e-01 8.505578700709322260e-02
3.249206760004065927e+03 -6.031660448025247812e-01 8.420324780149981980e-02
3.252455966764071036e+03 -6.432692752876589815e-01 8.373749490460360989e-02
3.255708422730835991e+03 -6.798549250361766161e-01 8.407378422934744244e-02
3.258964131153567905e+03 -7.367137158438896716e-01 8.498264894774673617e-02
3.262223095284722604e+03 -7.749104492722340698e-01 7.685918068943058123e-02
3.265485318380008266e+03 -7.636904234875310227e-01 7.539827152486877626e-02
3.268750803698389518e+03 -6.993960378067813899e-01 8.725433505944912849e-02
3.272019554502088795e+03 -6.068879620662009922e-01 9.289606740752084924e-02
3.275291574056592253e+03 -5.168031502220242768e-01 9.070922981853235534e-02
3.278566865630649772e+03 -4.234573989041600095e-01 8.442608319878301681e-02
3.281845432496281319e+03 -3.254624175592513158e-01 7.408562702680213108e-02
3.285127277928778767e+03 -2.468293646818032205e-01 7.103125021274432627e-02
3.288412405206708627e+03 -1.741446736852979293e-01 7.158735804720925411e-02
3.291700817611916591e+03 -1.286533986659373352e-01 7.593128279834281125e-02
3.294992518429529355e+03 -8.031164124861230047e-02 7.363890017133307986e-02
3.298287510947960072e+03 -4.726395724721364766e-02 7.464819583007628601e-02
3.301585798458909267e+03 -9.883542664153087062e-03 7.412798799021448615e-02
3.304887384257369376e+03 5.417390342103675649e-02 7.300366271993753708e-02
3.308192271641627485e+03 1.189226682914806127e-01 7.226627942524074810e-02
3.311500463913270323e+03 1.632864808672543633e-01 6.831768602030335868e-02
3.314811964377184722e+03 2.487980702277157175e-01 7.025314548069891418e-02
3.318126776341563072e+03 3.372902844982007542e-01 6.819040358421671333e-02
3.321444903117905596e+03 4.262238642362085050e-01 6.961064760172042121e-02
3.324766348021024896e+03 4.883058591593032460e-01 6.821190046661543271e-02
3.328091114369046863e+03 5.656619204572921333e-01 7.082548726724992305e-02
3.331419205483417045e+03 6.367049212089419541e-01 7.562609984470249069e-02
3.334750624688901553e+03 7.123134563318203050e-01 7.987149558014131068e-02
3.338085375313591612e+03 7.689757779963232176e-01 7.561995471244539746e-02
3.341423460688906289e+03 7.765379584159861626e-01 7.443331585102386239e-02
3.344764884149596128e+03 7.665040139047439860e-01 7.466281859945965438e-02
3.348109649033746791e+03 7.358758216484139192e-01 7.627582215701993185e-02
3.351457758682781787e+03 7.011625990895415939e-01 7.599203994121146721e-02
3.354809216441465651e+03 6.636017551447450646e-01 7.340599596137850624e-02
3.358164025657908041e+03 5.958285666801562686e-01 7.590175353763696509e-02
3.361522189683567376e+03 4.842585396360115646e-01 7.439300359396612550e-02
3.364883711873251741e+03 3.324061325144675449e-01 6.790224310660683549e-02
3.368248595585126168e+03 1.643076025385939998e-01 5.503380066192844339e-02
3.371616844180712633e+03 2.550764964000003243e-02 5.313782681843560313e-02
3.374988461024894150e+03 -1.043474964637438190e-01 5.287259849241841836e-02
3.378363449485920228e+03 -2.256758525537397864e-01 5.282197401836627448e-02
3.381741812935407324e+03 -3.617518018291289161e-01 6.119647105306931512e-02
3.385123554748343849e+03 -4.810523840111579075e-01 6.744413874631245698e-02
3.388508678303093347e+03 -5.671782977041989193e-01 6.869726768626911728e-02
3.391897186981397681e+03 -6.282104115321147653e-01 6.697208519061452481e-02
3.395289084168380214e+03 -6.425064399832871587e-01 6.629226667593988986e-02
3.398684373252549449e+03 -6.138294319844272984e-01 7.271578227838498831e-02
3.402083057625803121e+03 -5.648331895505590561e-01 7.793399514883320167e-02
3.405485140683430018e+03 -4.980850722285712906e-01 7.986063801092097014e-02
3.408890625824114522e+03 -4.036974339179725257e-01 7.671729246197399321e-02
3.412299516449939802e+03 -3.152533089401023392e-01 7.623641211171135190e-02
3.415711815966390986e+03 -2.101431334414046170e-01 7.941784846160600264e-02
3.419127527782358356e+03 -1.116720111585369629e-01 7.952495599863658449e-02
3.422546655310141887e+03 -2.489966634433951609e-02 8.074876501069315482e-02
3.425969201965453522e+03 6.909003292662496687e-02 8.095191790326874970e-02
3.429395171167419903e+03 1.326060741144811372e-01 7.919013413607596530e-02
3.432824566338588284e+03 1.935371582369403987e-01 7.255303902433320185e-02
3.436257390904928343e+03 2.224404729482541976e-01 7.152305567118015517e-02
3.439693648295834464e+03 2.190481856703468400e-01 7.667185828867184583e-02
3.443133341944131189e+03 1.587659746645483372e-01 7.146317262238033319e-02
3.446576475286076402e+03 8.751742538375829883e-02 6.882230757348180294e-02
3.450023051761363604e+03 1.055095857773938328e-02 6.176769031322992126e-02
3.453473074813126004e+03 -3.360033161413417124e-02 5.818883429265230001e-02
3.456926547887940615e+03 -5.243261446281684279e-02 6.135842726362124994e-02
3.460383474435829612e+03 -6.058357351976528804e-02 6.940550777592115195e-02
3.463843857910266706e+03 -7.302837004397232101e-02 7.298944741581499251e-02
3.467307701768178049e+03 -5.666343661125152614e-02 7.489092342996742091e-02
3.470775009469947236e+03 -5.908011225508206371e-02 6.505148674039580581e-02
3.474245784479418489e+03 -7.892620081295037560e-02 6.912804489289652021e-02
3.477720030263898934e+03 -1.008018797008678885e-01 7.683173490422050278e-02
3.481197750294164052e+03 -9.698887481166311442e-02 7.915036173678077769e-02
3.484678948044459503e+03 -9.759795876294546924e-02 7.813304115302052710e-02
3.488163626992504760e+03 -7.484508867186932812e-02 7.869185295692203430e-02
3.491651790619498570e+03 -4.317034835469513165e-02 8.243526954276274299e-02
3.495143442410119405e+03 -1.151602185010154600e-03 8.557814571505112378e-02
3.498638585852530468e+03 4.396277624138616308e-02 8.632386986601429946e-02
3.502137224438384237e+03 2.672603008340686953e-02 8.972538601192080188e-02
3.505639361662823831e+03 -9.214247616605848040e-03 9.031140242187248035e-02
3.509145001024487556e+03 -4.153339799206498539e-02 9.027110961657197619e-02
3.512654146025513455e+03 -4.506328384849785790e-02 8.944631500563612891e-02
3.516166800171540217e+03 -5.759818113373173232e-02 8.955783404295866723e-02
3.519682966971712631e+03 -5.849876929923542024e-02 8.893897439079528899e-02
3.523202649938685681e+03 -5.929947454518824657e-02 8.915738582180340877e-02
3.526725852588625457e+03 -3.758817886265498898e-02 8.931365724530307415e-02
3.530252578441215064e+03 -9.298462818880706693e-03 9.415693419536079467e-02
3.533782831019657806e+03 -1.685730792971079639e-02 9.433762327835215622e-02
3.537316613850678550e+03 -4.593051132277115034e-02 9.592774840468908104e-02
3.540853930464530094e+03 -7.515866349722849504e-02 9.215838063736375707e-02
3.544394784394995895e+03 -8.015460337399471502e-02 9.209659246331750038e-02
3.547939179179392340e+03 -4.057968796327360295e-02 9.220460084743618834e-02
3.551487118358572843e+03 5.383492086919233754e-02 9.100809855547434268e-02
3.555038605476932389e+03 1.534840128355647870e-01 8.767600257498066318e-02
3.558593644082410719e+03 2.647714106909741516e-01 8.946428371878120678e-02
3.562152237726494150e+03 3.660051843378071545e-01 8.867491004096283991e-02
3.565714389964221937e+03 4.608453082321054550e-01 8.438553579265364868e-02
3.569280104354187188e+03 6.106019320920084148e-01 7.074937422223738503e-02
3.572849384458542772e+03 7.970340568967387851e-01 7.042826698579411626e-02
3.576422233843002232e+03 1.036621134665316024e+00 8.501478353586074121e-02
3.579998656076846601e+03 1.291113299170863815e+00 9.286803096127647927e-02
3.583578654732924406e+03 1.557064570869865383e+00 1.003435062265263245e-01
3.587162233387658489e+03 1.793176521842377857e+00 9.709243045877639922e-02
3.590749395621047370e+03 1.942493310239616244e+00 9.963956326957022769e-02
3.594340145016669794e+03 1.973052965009259196e+00 9.016902333662127345e-02
3.597934485161687462e+03 1.906855499501438622e+00 8.608262057440528581e-02
3.601532419646850485e+03 1.743719451165510081e+00 9.075748827079732628e-02
3.605133952066498296e+03 1.510836598520026275e+00 9.498434006345510272e-02
3.608739086018566013e+03 1.148754648582563931e+00 1.088175306676163051e-01
3.612347825104585809e+03 7.404048883578702167e-01 1.201050611280459063e-01
3.615960172929691907e+03 3.517976697863715030e-01 1.219425965480532836e-01
3.619576133102622407e+03 -2.007567393442322157e-03 1.194148827002581154e-01
3.623195709235726554e+03 -4.551271247582511781e-01 7.715491631128014449e-02
3.626818904944963379e+03 -7.435188892960133966e-01 6.626714415710908967e-02
3.630445723849909427e+03 -9.205184709978923019e-01 6.687110763521839085e-02
3.634076169573760581e+03 -9.917766071493570035e-01 6.390291606736578367e-02
3.637710245743335690e+03 -9.623736587540538956e-01 6.359078511680832380e-02
3.641347955989080219e+03 -7.913352685532251130e-01 7.252894971506243516e-02
3.644989303945070333e+03 -5.532721397649703610e-01 7.420690854001300851e-02
3.648634293249016537e+03 -2.685287364225146800e-01 7.929904355849715092e-02
3.652282927542266862e+03 6.614825136762064739e-02 7.384119789701833192e-02
3.655935210469810499e+03 3.923816196295402126e-01 8.352366060746013732e-02
3.659591145680281443e+03 6.985742498502842679e-01 8.467614118447476523e-02
3.663250736825963031e+03 9.530996700469513971e-01 8.810622331536362151e-02
3.666913987562790226e+03 1.148939685035483382e+00 8.510572618471574924e-02
3.670580901550354156e+03 1.293042606345662815e+00 7.392525654496007181e-02
3.674251482451905758e+03 1.358872012188343747e+00 6.677088650582814477e-02
3.677925733934358959e+03 1.278898747966219718e+00 1.146499346435796429e-01
3.681603659668294313e+03 1.141455151152642955e+00 1.367425639069507481e-01
3.685285263327964003e+03 1.019098374449695088e+00 1.190095222118802837e-01
3.688970548591293209e+03 9.329558616929738424e-01 8.774164336128026376e-02
3.692659519139885560e+03 9.550046473710236405e-01 8.072354716355230331e-02
3.696352178659026777e+03 1.092263556477743869e+00 9.550537886370510932e-02
3.700048530837686940e+03 1.265655696947987296e+00 1.027734781687076743e-01
3.703748579368525952e+03 1.520748191634045066e+00 1.006900800433180726e-01
3.707452327947895355e+03 1.821032364273563520e+00 1.059199073400020341e-01
3.711159780275844696e+03 2.078601321275513669e+00 1.042201130097814565e-01
3.714870940056121526e+03 2.280090393741195154e+00 9.154306623245277164e-02
3.718585810996179134e+03 2.440454150427552982e+00 6.546730561635023815e-02
3.722304396807176545e+03 2.446543349611598472e+00 7.650871616204561743e-02
3.726026701203984885e+03 2.369509602312363405e+00 7.720771524325020785e-02
3.729752727905190113e+03 2.197436682303583577e+00 7.321106155383891312e-02
3.733482480633096657e+03 1.943034077375886515e+00 6.711834663390338351e-02
3.737215963113731050e+03 1.623939421087640778e+00 6.615383183694319158e-02
3.740953179076846027e+03 1.341649430383393904e+00 6.592065037581559817e-02
3.744694132255923705e+03 1.104849966384631399e+00 6.551882364951898408e-02
3.748438826388181042e+03 9.158817336928688491e-01 6.618274356248914081e-02
3.752187265214570289e+03 7.063868830271625709e-01 5.715757635718324292e-02
3.755939452479786269e+03 5.499484900958058198e-01 6.012792650746964090e-02
3.759695391932267285e+03 4.784342001785470977e-01 5.992883037043049421e-02
3.763455087324201031e+03 4.404001345385368804e-01 6.174617741489541595e-02
3.767218542411526414e+03 4.839558646911449324e-01 6.139540351246638994e-02
3.770985760953939007e+03 5.855766949517302589e-01 6.774324526826107362e-02
3.774756746714894234e+03 6.851435032681320036e-01 8.706584006965356615e-02
3.778531503461610555e+03 7.693319876660141832e-01 1.024405160477705468e-01
3.782310034965073100e+03 8.195684347803677827e-01 9.350273820367153987e-02
3.786092345000039586e+03 7.743199023790762192e-01 8.607885928076704218e-02
3.789878437345040766e+03 6.151967372681994561e-01 1.108621778822929671e-01
3.793668315782387253e+03 4.472267568402983895e-01 1.241860521766569581e-01
3.797461984098170888e+03 2.306249643232609614e-01 1.336438344483608931e-01
3.801259446082270188e+03 8.668943539473422666e-02 1.332716326535255957e-01
3.805060705528353537e+03 -5.288359770862766096e-02 1.270311417898006001e-01
3.808865766233883278e+03 -1.423580783967698937e-01 9.831203197901351720e-02
3.812674632000118436e+03 -1.079228800090515361e-01 1.037414613543519992e-01
3.816487306632119726e+03 2.929373589461503613e-02 1.229267314562360464e-01
3.820303793938753188e+03 2.411668056976711549e-01 1.233709880792559083e-01
3.824124097732693372e+03 4.541482330734135098e-01 1.008933592496953635e-01
3.827948221830427428e+03 6.104326078482844586e-01 8.904314271138882853e-02
3.831776170052258749e+03 7.446918174986592032e-01 8.208950822756158616e-02
3.835607946222312421e+03 7.950375715874757887e-01 8.266590318484418054e-02
3.839443554168536139e+03 7.974227723770250797e-01 7.614627253365593984e-02
3.843282997722705659e+03 7.498097883589212032e-01 6.974070907669872865e-02
3.847126280720429804e+03 6.629535806867303815e-01 6.724640203603476918e-02
3.850973407001151372e+03 5.525954356718887350e-01 6.824260952793201329e-02
3.854824380408153957e+03 4.439364198808209427e-01 6.926901822190736913e-02
3.858679204788563311e+03 3.394126873690831436e-01 7.067004474479511578e-02
3.862537883993353262e+03 2.081721851987109184e-01 6.980426611028543726e-02
3.866400421877347981e+03 1.388897466357336685e-01 6.963562849315710346e-02
3.870266822299226533e+03 7.890687685711489374e-02 6.780658875325945578e-02
3.874137089121526969e+03 6.671182369510555987e-02 6.748998591896684940e-02
3.878011226210649966e+03 4.461208541742786582e-02 5.887805019011872754e-02
3.881889237436861549e+03 6.592246905673698754e-02 6.287524955315544617e-02
3.885771126674299921e+03 1.277285250981433085e-01 7.046917812470386566e-02
3.889656897800975457e+03 2.024778693452738698e-01 7.526292998702394099e-02
3.893546554698777527e+03 2.404614387502487793e-01 5.219347213008079800e-02
3.897440101253477678e+03 1.842581513897349199e-01 3.680253958031002443e-02
3.901337541354732366e+03 3.538247713590758625e-02 4.237403703241272857e-02
3.905238878896088409e+03 -1.872877592886347531e-01 6.019264118884846276e-02
3.909144117774985716e+03 -4.237976200884311928e-01 6.480256614450997932e-02
3.913053261892762293e+03 -6.445300891922161046e-01 6.670928026163545910e-02
3.916966315154656058e+03 -8.237371460816189650e-01 6.331727043863112636e-02
3.920883281469812118e+03 -9.585043120273715189e-01 5.565263288755033927e-02
3.924804164751283224e+03 -1.025569780788456065e+00 4.454766737045903757e-02
3.928728968916035683e+03 -9.869252383600035650e-01 4.553810465434207644e-02
3.932657697884953450e+03 -8.642804047625275432e-01 4.669168747678641845e-02
3.936590355582839493e+03 -6.535776857512434201e-01 5.273555756140031053e-02
3.940526945938423523e+03 -3.741464954165842904e-01 4.206407507228630133e-02
3.944467472884363360e+03 -5.507643184132544889e-02 4.500285966436375074e-02
3.948411940357249023e+03 2.328686106971392111e-01 3.634729179909246266e-02
3.952360352297607733e+03 4.958664207230419341e-01 4.153079700579092454e-02
3.956312712649906643e+03 7.014661119718410554e-01 4.330594148086511913e-02
3.960269025362557841e+03 8.350290702570986046e-01 4.325824321896828972e-02
3.964229294387921527e+03 9.185170480948506855e-01 4.516030312215401493e-02
3.968193523682310570e+03 9.431184107143444351e-01 5.030915152701467136e-02
3.972161717205994591e+03 9.121825858010528254e-01 5.168221536000124072e-02
3.976133878923201792e+03 8.596631244996262300e-01 5.221170622965066316e-02
3.980110012802126221e+03 7.614787449323080493e-01 4.532300712863241571e-02
3.984090122814929600e+03 6.998650749262745885e-01 4.193054442637653145e-02
3.988074212937745870e+03 6.458230260328600147e-01 4.039539058468531729e-02
3.992062287150684824e+03 6.097729060463914497e-01 4.264279871246012821e-02
3.996054349437837118e+03 6.134560358664669089e-01 4.248114953644899910e-02
4.000050403787276082e+03 6.532742546140581918e-01 4.226998991204344858e-02
4.004050454191064546e+03 7.452104932958747430e-01 4.309616962402938040e-02
4.008054504645257111e+03 8.346019732110616651e-01 4.351424473964116135e-02
4.012062559149903791e+03 9.454521386013834405e-01 4.538174149575619626e-02
4.016074621709055009e+03 1.043039685259775196e+00 4.946488729248031679e-02
4.020090696330765240e+03 1.145867105867938385e+00 5.124383504773381143e-02
4.024110787027097558e+03 1.182554037116774648e+00 5.166017050102000852e-02
4.028134897814125907e+03 1.211486036207543249e+00 4.174645436894910966e-02
4.032163032711941469e+03 1.182817137113059358e+00 4.424722303788142935e-02
4.036195195744654484e+03 1.109375246348573540e+00 5.301849891903641365e-02
4.040231390940400615e+03 1.010674219101792559e+00 5.832160471617930247e-02
4.044271622331342314e+03 9.205283440416838214e-01 5.517704308401263219e-02
4.048315893953675186e+03 8.364083201754144437e-01 5.292930241885696746e-02
4.052364209847629809e+03 8.056604691535896867e-01 4.258705205405192984e-02
4.056416574057479011e+03 8.209616866748286057e-01 3.288228647872212806e-02
4.060472990631537868e+03 9.283469375860253781e-01 4.045860016222994210e-02
4.064533463622170530e+03 1.055566564598883206e+00 3.996400194124762051e-02
4.068597997085794304e+03 1.190172325720330715e+00 4.063949504509570265e-02
4.072666595082881486e+03 1.354153777480908927e+00 4.641320213953482876e-02
4.076739261677965715e+03 1.475477745906885074e+00 4.132301692465694537e-02
4.080816000939644709e+03 1.559327913886353834e+00 2.854756685190004348e-02
4.084896816940585722e+03 1.556009622929720670e+00 3.266088132672387984e-02
4.088981713757527814e+03 1.499189216453764795e+00 3.554197672139473158e-02
4.093070695471286854e+03 1.391714753294689633e+00 3.557126362050920532e-02
