# starting wavelength: 3851.220
# ending wavelength: 9198.080
# wav flux eflux
3.854824380408153957e+03 -7.145323133773075597e+00 2.216527050357040896e+00
3.858679204788563311e+03 -7.122423803603767922e+00 1.617051617292078136e+00
3.862537883993353262e+03 -7.354747564244479285e+00 1.209591117761182666e+00
3.866400421877347981e+03 -7.773349845347095055e+00 9.362767064337731426e-01
3.870266822299226533e+03 -8.202424398969156982e+00 7.317594524100463627e-01
3.874137089121526969e+03 -8.641108273329786371e+00 5.890248425300251833e-01
3.878011226210649966e+03 -8.999552705943957065e+00 5.747615712869345028e-01
3.881889237436861549e+03 -9.122705371817243503e+00 5.889256467909061987e-01
3.885771126674299921e+03 -8.967328332485662301e+00 6.208027757905096866e-01
3.889656897800975457e+03 -8.610283795073979007e+00 5.930672942842749595e-01
3.893546554698777527e+03 -8.265729672944006623e+00 5.213382229533304324e-01
3.897440101253477678e+03 -7.600905393950739608e+00 5.414058168580038188e-01
3.901337541354732366e+03 -6.965834773004484504e+00 5.268963736257146202e-01
3.905238878896088409e+03 -6.417205217718064070e+00 5.020808318209410981e-01
3.909144117774985716e+03 -5.925981497792856878e+00 4.834759577188648128e-01
3.913053261892762293e+03 -5.712429278358641227e+00 4.665661000988981510e-01
3.916966315154656058e+03 -5.510737416695749680e+00 4.482423715296245947e-01
3.920883281469812118e+03 -5.401562024204972445e+00 4.332361662003931246e-01
3.924804164751283224e+03 -5.279689328881359778e+00 4.048128577374275894e-01
3.928728968916035683e+03 -5.325123897169059539e+00 4.114576093787924438e-01
3.932657697884953450e+03 -5.540914333056816687e+00 4.633796411651699976e-01
3.936590355582839493e+03 -5.858090930314255651e+00 5.232903083393365407e-01
3.940526945938423523e+03 -6.261543539487013810e+00 5.738927243013184354e-01
3.944467472884363360e+03 -6.597593905185425989e+00 6.039732729762554708e-01
3.948411940357249023e+03 -6.788590572199635353e+00 6.027876572479000661e-01
3.952360352297607733e+03 -7.184649764812481187e+00 5.744561674269157425e-01
3.956312712649906643e+03 -7.476132021234256797e+00 5.151572901737289101e-01
3.960269025362557841e+03 -7.591905608753654278e+00 4.485446731214444149e-01
3.964229294387921527e+03 -7.521741729444473279e+00 4.308389620973347989e-01
3.968193523682310570e+03 -7.291895709546414750e+00 4.582298829427708942e-01
3.972161717205994591e+03 -6.908592164694576709e+00 4.806547437008997781e-01
3.976133878923201792e+03 -6.439093951282590211e+00 4.895947250500696790e-01
3.980110012802126221e+03 -5.845086443010513833e+00 4.825067518497446195e-01
3.984090122814929600e+03 -5.194534398214210924e+00 4.721231604485695010e-01
3.988074212937745870e+03 -4.444043546671341716e+00 4.534778122877589079e-01
3.992062287150684824e+03 -3.644319622982131524e+00 3.855580930080167446e-01
3.996054349437837118e+03 -2.758134341797146227e+00 3.428705897046667728e-01
4.000050403787276082e+03 -1.960563106445373904e+00 3.135893595819050361e-01
4.004050454191064546e+03 -1.318464638590379323e+00 3.038540966675638000e-01
4.008054504645257111e+03 -7.792214105686157133e-01 3.016980074910152188e-01
4.012062559149903791e+03 -5.347341357562149788e-01 3.007311316817929958e-01
4.016074621709055009e+03 -4.465627376182657038e-01 2.998732175185577775e-01
4.020090696330765240e+03 -4.504979109478317589e-01 3.008383510009432493e-01
4.024110787027097558e+03 -5.916083451791771530e-01 3.042980908725045341e-01
4.028134897814125907e+03 -8.693855808723340850e-01 3.000193313367869874e-01
4.032163032711941469e+03 -1.206931212661457753e+00 3.021470505382397032e-01
4.036195195744654484e+03 -1.679519284591739492e+00 3.010700789636774899e-01
4.040231390940400615e+03 -2.243287641015608180e+00 3.088486723157758962e-01
4.044271622331342314e+03 -2.861381935902615137e+00 3.314583777730448766e-01
4.048315893953675186e+03 -3.575101578710361938e+00 3.498989999554203978e-01
4.052364209847629809e+03 -4.063201088208588274e+00 3.640362389069419780e-01
4.056416574057479011e+03 -4.384334581443793510e+00 3.762883502773539113e-01
4.060472990631537868e+03 -4.633931964652021840e+00 3.750485094402437047e-01
4.064533463622170530e+03 -4.769481039539252620e+00 3.870397034353266208e-01
4.068597997085794304e+03 -4.980092596411443751e+00 3.763488558846268539e-01
4.072666595082881486e+03 -5.134413730286750521e+00 3.719259507499163009e-01
4.076739261677965715e+03 -5.235139892678921214e+00 3.922643596470979377e-01
4.080816000939644709e+03 -5.177122575471148735e+00 4.220327352587703862e-01
4.084896816940585722e+03 -5.068118722173679203e+00 4.268044607404273272e-01
4.088981713757527814e+03 -4.845746442535595833e+00 3.970463444020318478e-01
4.093070695471286854e+03 -4.675307318463473472e+00 3.349264212702327548e-01
4.097163766166759160e+03 -4.578447681139553360e+00 2.729216936009327688e-01
4.101260929932927866e+03 -4.697787107384457705e+00 2.794585010303781702e-01
4.105362190862862008e+03 -4.873473266268918636e+00 2.872426649233727480e-01
4.109467553053726078e+03 -5.067055927381874270e+00 2.977757546021240209e-01
4.113577020606780934e+03 -5.498792084492252208e+00 3.274331303052321895e-01
4.117690597627389252e+03 -5.955018626568127971e+00 3.294548228678437218e-01
4.121808288225018259e+03 -6.476129283328518227e+00 3.074268717511799420e-01
4.125930096513244280e+03 -6.928390886745793509e+00 3.368912120327025583e-01
4.130056026609759101e+03 -7.440437485530531525e+00 3.081890976523552483e-01
4.134186082636369974e+03 -7.733988278256411775e+00 2.486711493792213845e-01
4.138320268719007800e+03 -7.777434147163613254e+00 2.912424103513439611e-01
4.142458588987728035e+03 -7.678179264164260331e+00 3.525634261824961424e-01
4.146601047576717065e+03 -7.570015384219878740e+00 3.477039701534361815e-01
4.150747648624294925e+03 -7.400811834843984194e+00 3.335963804609287653e-01
4.154898396272920763e+03 -7.160514271855358714e+00 2.999062753308160967e-01
4.159053294669195566e+03 -6.839078412477070046e+00 2.700482590742322442e-01
4.163212347963865795e+03 -6.637057105866394302e+00 2.556339853134178552e-01
4.167375560311830668e+03 -6.500847970553096822e+00 2.653729078112508910e-01
4.171542935872143971e+03 -6.450060091072863599e+00 2.628854711955162515e-01
4.175714478808017702e+03 -6.369928719523828775e+00 2.624600917040952885e-01
4.179890193286827525e+03 -6.276417706377472427e+00 2.456802399880636811e-01
4.184070083480115500e+03 -6.487244601906749786e+00 2.665466553863253263e-01
4.188254153563597356e+03 -6.844285536651206314e+00 2.838462697026652992e-01
4.192442407717161586e+03 -7.176108453967196432e+00 2.980649016418502883e-01
4.196634850124880359e+03 -7.517379754739191178e+00 3.174430844952454422e-01
4.200831484975006788e+03 -7.811535826254107917e+00 3.216841846572516816e-01
4.205032316459983122e+03 -7.863637102761249054e+00 3.131644070497667798e-01
4.209237348776444378e+03 -7.769341216881811008e+00 2.956121120421599802e-01
4.213446586125221984e+03 -7.377917938867004644e+00 3.140539519671044499e-01
4.217660032711349231e+03 -6.988315223187590242e+00 3.238035836501877429e-01
4.221877692744061278e+03 -6.259902533644556399e+00 3.687411394342581805e-01
4.226099570436806971e+03 -5.515898172734880589e+00 3.964889774417039714e-01
4.230325670007245208e+03 -4.688463651823362000e+00 4.149983758624425367e-01
4.234555995677254032e+03 -3.994188171807953047e+00 4.333034912283975637e-01
4.238790551672932452e+03 -3.442712370073249151e+00 4.213388761223367251e-01
4.243029342224606808e+03 -2.981344950735709709e+00 3.777230705624806117e-01
4.247272371566832589e+03 -2.701928225601697431e+00 3.121079387324473542e-01
4.251519643938400804e+03 -2.678194688779313992e+00 3.116503722913948615e-01
4.255771163582340705e+03 -2.983474358985160446e+00 3.276412141225765740e-01
4.260026934745924336e+03 -3.491348805239523845e+00 3.264892304706526471e-01
4.264286961680671993e+03 -4.208094829464597453e+00 3.054262452616474666e-01
4.268551248642354039e+03 -5.036589745100183535e+00 2.886937252819918309e-01
4.272819799890998183e+03 -5.877468891854414679e+00 1.916101866755018368e-01
4.277092619690890388e+03 -6.578258029457905387e+00 1.625688592920728759e-01
4.281369712310583054e+03 -7.113496358340011483e+00 1.759587331248339270e-01
4.285651082022895025e+03 -7.478637277657210980e+00 1.735113113325097156e-01
4.289936733104918858e+03 -7.792321504714931457e+00 1.601708479655379880e-01
4.294226669838025373e+03 -7.952378879375307186e+00 1.266788602760763049e-01
4.298520896507864563e+03 -8.131418892516700581e+00 1.479649334943576588e-01
4.302819417404373780e+03 -8.228115724645620688e+00 1.608121291864432201e-01
4.307122236821779552e+03 -8.150692878939405972e+00 1.574855201248513692e-01
4.311429359058603040e+03 -7.928313545229139336e+00 1.494327175104396555e-01
4.315740788417662770e+03 -7.510877603166321137e+00 1.726757342787819394e-01
4.320056529206081905e+03 -7.035152918466994088e+00 1.869344839310452810e-01
4.324376585735290064e+03 -6.589256134539780874e+00 1.857046021235521371e-01
4.328700962321026054e+03 -6.048688753829025266e+00 1.851184557523388452e-01
4.333029663283348782e+03 -5.536268923787782015e+00 1.851037430802432993e-01
4.337362692946633615e+03 -5.046168049645935128e+00 1.983158880477650376e-01
4.341700055639581478e+03 -4.491353383457393988e+00 2.090478865078914394e-01
4.346041755695222491e+03 -3.972309824683526003e+00 2.097194840152951656e-01
4.350387797450919606e+03 -3.552861199249517377e+00 2.069037339201033887e-01
4.354738185248371337e+03 -3.227515899309063130e+00 2.064209892679061964e-01
4.359092923433621763e+03 -3.008489463277417286e+00 2.283631560681497197e-01
4.363452016357056891e+03 -2.972844768436638141e+00 2.547862159191337517e-01
4.367815468373414660e+03 -3.113771517709433390e+00 2.350919813747032183e-01
4.372183283841789489e+03 -3.511009571098453463e+00 2.530252462538247760e-01
4.376555467125633186e+03 -4.062612847188440846e+00 3.190678290212033974e-01
4.380932022592760404e+03 -4.505635418687265137e+00 3.379571393410270019e-01
4.385312954615354101e+03 -5.015442137078391482e+00 3.467764431795720692e-01
4.389698267569970994e+03 -5.604131588124948493e+00 3.234604168069737939e-01
4.394087965837542470e+03 -6.031507593611695306e+00 2.640577707646659666e-01
4.398482053803381859e+03 -6.117751919138289196e+00 2.392388720075561415e-01
4.402880535857186260e+03 -5.875058652281309080e+00 2.696066431365037874e-01
4.407283416393044718e+03 -5.361307230161491688e+00 2.765150925600619036e-01
4.411690699809440048e+03 -4.679149825277940877e+00 2.495805759696146098e-01
4.416102390509250654e+03 -3.887566625882548088e+00 2.415789396340579098e-01
4.420518492899761441e+03 -2.909427101163218232e+00 2.402813335345253820e-01
4.424939011392662906e+03 -1.953552193103005763e+00 2.659787062621038478e-01
4.429363950404056595e+03 -1.000995566173678242e+00 2.768859724661065225e-01
4.433793314354462382e+03 -4.717628847615307208e-01 2.860287642020395427e-01
4.438227107668818462e+03 -2.133439582483833696e-01 3.106934386244606938e-01
4.442665334776488635e+03 -4.093539445940663768e-02 3.096266521793067383e-01
4.447108000111265937e+03 2.101255208414636311e-01 3.113782780239798265e-01
4.451555108111379013e+03 3.716806502342173690e-01 3.069541555956386003e-01
4.456006663219492111e+03 3.368923264660735883e-01 3.104982171668396740e-01
4.460462669882713271e+03 2.181137534270261025e-01 3.036156650152324055e-01
4.464923132552597053e+03 3.269544604272844879e-02 2.990954811534304314e-01
4.469388055685150903e+03 -5.127074645615659065e-02 3.243258613153055525e-01
4.473857443740837880e+03 -4.105084168080036511e-01 3.284451645336463055e-01
4.478331301184580298e+03 -8.276824780216118782e-01 3.845229571233590438e-01
4.482809632485766087e+03 -9.564357283813440525e-01 3.890832094531190277e-01
4.487292442118253348e+03 -9.684318105340126159e-01 3.983020267358729494e-01
4.491779734560373072e+03 -7.833485860469958650e-01 3.986600750366165458e-01
4.496271514294934605e+03 -6.272873300712373812e-01 3.702917424128011059e-01
4.500767785809231100e+03 -2.819881212251578173e-01 3.807145088110721054e-01
4.505268553595042249e+03 3.057829297391823076e-01 4.289476843629668190e-01
4.509773822148638828e+03 9.159316536623263172e-01 3.952212476270973163e-01
4.514283595970789065e+03 1.666194735022009432e+00 3.208323082043825214e-01
4.518797879566761367e+03 2.210971211100975609e+00 3.443332734164344378e-01
4.523316677446328868e+03 2.724257386323885477e+00 3.727700957302131357e-01
4.527839994123776705e+03 3.349704209560140367e+00 3.659380450066543333e-01
4.532367834117902021e+03 4.075003438962414570e+00 3.624802519845206628e-01
4.536900201952022144e+03 4.754233677894277754e+00 3.412554016114140443e-01
4.541437102153975502e+03 5.374312386585769374e+00 2.951432629688726106e-01
4.545978539256130716e+03 6.218751048820206684e+00 3.332945007352642874e-01
4.550524517795388419e+03 7.196258587812778273e+00 4.068230921635277997e-01
4.555075042313184895e+03 8.063021798773455373e+00 2.915603587115400686e-01
4.559630117355500261e+03 8.456331525035873042e+00 2.473791587126381863e-01
4.564189747472856652e+03 8.363635075994956480e+00 3.019885275807928648e-01
4.568753937220330954e+03 8.143018021208522583e+00 2.994526739784242331e-01
4.573322691157552981e+03 7.461563635818608375e+00 3.075133278492587774e-01
4.577896013848711846e+03 6.669403894412632816e+00 2.995298274822585927e-01
4.582473909862562323e+03 5.550186390173294626e+00 2.580450321661144630e-01
4.587056383772426670e+03 4.542480957779442718e+00 2.561573440990677075e-01
4.591643440156200086e+03 3.489346816691179409e+00 2.597346273697916375e-01
4.596235083596357981e+03 2.384486016982842571e+00 2.463236828473699125e-01
4.600831318679955984e+03 1.531989138299109765e+00 2.605206883357856218e-01
4.605432149998637215e+03 6.671936639784805667e-01 2.605912183601415411e-01
4.610037582148637739e+03 -1.716134606591146472e-01 2.702662855852072665e-01
4.614647619730787483e+03 -7.690054025161739970e-01 2.614432029824805825e-01
4.619262267350520233e+03 -1.344096958876889403e+00 2.774044269490570369e-01
4.623881529617872729e+03 -1.759776749509344373e+00 2.820832001436758829e-01
4.628505411147491941e+03 -2.163946614265688684e+00 3.071315930838305341e-01
4.633133916558640522e+03 -2.429112848670004432e+00 3.494132097202739540e-01
4.637767050475200449e+03 -2.723009434970082410e+00 2.993574331580480807e-01
4.642404817525677572e+03 -3.223472319357221227e+00 2.711239345571559989e-01
4.647047222343205249e+03 -3.957950205863673077e+00 3.061863000871610230e-01
4.651694269565549803e+03 -4.852060048009074755e+00 3.450853812321061365e-01
4.656345963835116891e+03 -5.551489795266100202e+00 3.517566726240473618e-01
4.661002309798953320e+03 -6.326468230854484176e+00 3.287478410449515831e-01
4.665663312108753416e+03 -6.855814230271860765e+00 3.282496628431218477e-01
4.670328975420864481e+03 -7.371625290264860020e+00 3.105756670709295397e-01
4.674999304396286789e+03 -7.658130139542445924e+00 3.208388426977502594e-01
4.679674303700684504e+03 -7.946744354839820446e+00 3.165311170091367199e-01
4.684353978004386590e+03 -7.960712207297929055e+00 3.147029419743093137e-01
4.689038331982392265e+03 -7.651155969359805908e+00 2.619585630365680595e-01
4.693727370314376458e+03 -7.330380620199846931e+00 2.432611447717751008e-01
4.698421097684692540e+03 -6.990013216982874589e+00 2.436140064806920358e-01
4.703119518782378691e+03 -6.606989249549862109e+00 2.444409196319428101e-01
4.707822638301162442e+03 -6.312987526161464302e+00 1.703369286680267713e-01
4.712530460939465229e+03 -5.769326950462374093e+00 1.769299457066654813e-01
4.717242991400406027e+03 -5.137312352354957312e+00 1.877911220868686559e-01
4.721960234391808626e+03 -4.443773511987872737e+00 1.722094309148754221e-01
4.726682194626201635e+03 -3.749822640753431635e+00 1.572412325937664057e-01
4.731408876820829391e+03 -3.069749304655635669e+00 1.438350517954607999e-01
4.736140285697651962e+03 -2.538475430626949247e+00 1.440107934303346271e-01
4.740876425983350600e+03 -2.092062143693587117e+00 1.466153875442507415e-01
4.745617302409335934e+03 -1.705000045100230732e+00 2.068849968396959393e-01
4.750362919711747054e+03 -1.601219942631338711e+00 2.247564079977123486e-01
4.755113282631459697e+03 -1.675537029232114339e+00 1.974905892524599638e-01
4.759868395914093526e+03 -2.077212902843188491e+00 2.103700902887812585e-01
4.764628264310008490e+03 -2.640555555984192448e+00 2.198031596263925747e-01
4.769392892574320285e+03 -3.483667853166054318e+00 2.313407811126700075e-01
4.774162285466896719e+03 -4.334109385192554953e+00 2.310219682924768148e-01
4.778936447752364984e+03 -5.181924803945202385e+00 2.268987823679538274e-01
4.783715384200118933e+03 -6.052516579185621026e+00 2.081478379407467050e-01
4.788499099584319993e+03 -6.716248533953062427e+00 1.913452971553424031e-01
4.793287598683906253e+03 -7.202050914253620206e+00 1.678467362881051750e-01
4.798080886282591564e+03 -7.409528882674408123e+00 1.562459773060641821e-01
4.802878967168876443e+03 -7.229519325882716174e+00 1.601625148789648234e-01
4.807681846136046261e+03 -6.842287228694181600e+00 1.418228959577099990e-01
4.812489527982183972e+03 -6.294976987958865067e+00 1.413263474036557665e-01
4.817302017510168298e+03 -5.685725120643243535e+00 1.497763125971381948e-01
4.822119319527679181e+03 -5.083002867426936078e+00 1.810122616850925459e-01
4.826941438847208701e+03 -4.631160380375812124e+00 1.955953379108339441e-01
4.831768380286057436e+03 -4.273260806660738709e+00 1.868917742907539314e-01
4.836600148666345376e+03 -4.069538174808487341e+00 1.429351183117976432e-01
4.841436748815013743e+03 -4.147948456251031146e+00 2.216730338249983390e-01
4.846278185563829538e+03 -4.345549579675187957e+00 2.687661284654086491e-01
4.851124463749395545e+03 -4.677830805102064282e+00 2.593649670827820053e-01
4.855975588213146693e+03 -4.856272640990805911e+00 2.325625028985378873e-01
4.860831563801360971e+03 -5.079264326797401807e+00 1.920109220588200050e-01
4.865692395365163975e+03 -5.096658216471826819e+00 1.955609726524906722e-01
4.870558087760530725e+03 -4.956818057583697090e+00 2.345325508456055641e-01
4.875428645848292945e+03 -4.793578950517607851e+00 2.513532502057253537e-01
4.880304074494142696e+03 -4.585950022788703784e+00 2.263362416085861195e-01
4.885184378568638749e+03 -4.518655238253169060e+00 2.298882987935484679e-01
4.890069562947209306e+03 -4.414681401707535535e+00 2.198088633094057998e-01
4.894959632510157462e+03 -4.397404267305618397e+00 2.200090714734445063e-01
4.899854592142669389e+03 -4.537249772873976461e+00 2.163088451601150597e-01
4.904754446734813428e+03 -4.715886416671528636e+00 2.009536600602994938e-01
4.909659201181550088e+03 -4.928889960448820773e+00 2.007751354614414618e-01
4.914568860382732964e+03 -5.115739329887006193e+00 2.455818599185941309e-01
4.919483429243117826e+03 -5.390205877197236539e+00 2.517848939422519527e-01
4.924402912672362618e+03 -5.750477768899306064e+00 2.175887613584513713e-01
4.929327315585036558e+03 -6.228932623363698795e+00 2.417109872324894049e-01
4.934256642900622865e+03 -6.799320928502421424e+00 3.068805347957499485e-01
4.939190899543525120e+03 -7.258055690718999031e+00 3.504540199844103920e-01
4.944130090443070912e+03 -7.524431576751490880e+00 3.404744804699288419e-01
4.949074220533515472e+03 -7.325924798704932961e+00 3.263658575928337080e-01
4.954023294754050767e+03 -6.960825314295018273e+00 2.612565587679642753e-01
4.958977318048806410e+03 -6.110043813394899104e+00 3.349345164805763719e-01
4.963936295366856939e+03 -4.954716732421641012e+00 3.764178319183824617e-01
4.968900231662225451e+03 -3.645843424981735748e+00 3.568243494005451377e-01
4.973869131893889062e+03 -2.333534494644530888e+00 2.912236498440561872e-01
4.978843001025784361e+03 -1.193947951136815622e+00 2.911574897919299021e-01
4.983821844026811959e+03 1.167613931185718101e-02 2.539940838248307409e-01
4.988805665870840130e+03 8.917108597234979506e-01 2.765041196059589979e-01
4.993794471536712990e+03 1.528138208287407318e+00 2.682427541188249220e-01
4.998788266008251412e+03 1.996290838586126881e+00 2.251235588070388816e-01
5.003787054274261209e+03 2.478487551031465230e+00 2.033731615700075657e-01
