# starting wavelength: 3663.470
# ending wavelength: 7419.350
# wav flux eflux
3.666913987562790226e+03 1.034775785815634119e+00 1.528720100097588630e-02
3.670580901550354156e+03 1.041126882241665497e+00 1.264216089588947670e-02
3.674251482451905758e+03 1.044183336347087376e+00 1.061594803908334252e-02
3.677925733934358959e+03 1.041248152354184997e+00 8.098639606453867518e-03
3.681603659668294313e+03 1.032989406530641086e+00 6.226245101706616263e-03
3.685285263327964003e+03 1.020526753014280530e+00 4.863520445181120783e-03
3.688970548591293209e+03 1.004490647545804194e+00 4.069864546580978688e-03
3.692659519139885560e+03 9.874129435123728538e-01 3.259360076592566699e-03
3.696352178659026777e+03 9.693541643401730745e-01 3.002822314870375476e-03
3.700048530837686940e+03 9.516844258222877384e-01 2.707141077280178065e-03
3.703748579368525952e+03 9.351206704527398328e-01 2.789271255620058391e-03
3.707452327947895355e+03 9.197418570495006218e-01 2.713440447354069276e-03
3.711159780275844696e+03 9.057821647123611708e-01 2.694590747205051050e-03
3.714870940056121526e+03 8.934461259158538171e-01 2.780971430871045143e-03
3.718585810996179134e+03 8.818560551176508611e-01 2.673899218246376681e-03
3.722304396807176545e+03 8.712634617412542415e-01 2.554090251911528275e-03
3.726026701203984885e+03 8.616187746711645445e-01 2.438627657887441642e-03
3.729752727905190113e+03 8.533075865228161305e-01 2.347776835670464454e-03
3.733482480633096657e+03 8.468578380477700396e-01 2.358410240173301840e-03
3.737215963113731050e+03 8.422372918524005936e-01 2.267198937798697855e-03
3.740953179076846027e+03 8.390340171910755096e-01 2.233482255349404123e-03
3.744694132255923705e+03 8.375496225129205330e-01 2.228800364311660231e-03
3.748438826388181042e+03 8.388937805726580654e-01 2.174984412464771137e-03
3.752187265214570289e+03 8.413506020510319594e-01 2.130735072472012687e-03
3.755939452479786269e+03 8.451468093115204194e-01 2.150859139189033754e-03
3.759695391932267285e+03 8.502804855503114378e-01 2.200620169094808821e-03
3.763455087324201031e+03 8.567893352240653071e-01 2.123111591141783536e-03
3.767218542411526414e+03 8.648625089146082523e-01 2.005265286526110129e-03
3.770985760953939007e+03 8.737268012167045406e-01 1.855684658327262952e-03
3.774756746714894234e+03 8.843228789452999283e-01 1.799745403854393451e-03
3.778531503461610555e+03 8.969329413705956489e-01 2.150407359179343832e-03
3.782310034965073100e+03 9.099181093972736889e-01 2.214362960512499499e-03
3.786092345000039586e+03 9.244831456150399696e-01 2.279863663435675782e-03
3.789878437345040766e+03 9.401469438291043534e-01 2.279342103748342122e-03
3.793668315782387253e+03 9.559843932915553788e-01 2.235961220934055624e-03
3.797461984098170888e+03 9.717248527085393661e-01 1.804137481136188544e-03
3.801259446082270188e+03 9.856761827881665994e-01 1.657730791881234685e-03
3.805060705528353537e+03 9.989963961466888920e-01 1.599936306154622423e-03
3.808865766233883278e+03 1.011919549810423868e+00 1.573235025608942135e-03
3.812674632000118436e+03 1.022639569477646448e+00 1.873413293861807705e-03
3.816487306632119726e+03 1.032380451325817239e+00 1.939626908788565952e-03
3.820303793938753188e+03 1.041389257063179974e+00 1.927493893001580192e-03
3.824124097732693372e+03 1.048858403660129390e+00 1.778534836797694089e-03
3.827948221830427428e+03 1.056272363576929996e+00 1.853576007871052559e-03
3.831776170052258749e+03 1.062097380419675385e+00 1.840883718261028751e-03
3.835607946222312421e+03 1.067168977480378089e+00 1.851629064382249133e-03
3.839443554168536139e+03 1.071406162494576542e+00 1.827330886370451919e-03
3.843282997722705659e+03 1.074126430846046309e+00 1.827376301491772650e-03
3.847126280720429804e+03 1.075930586805090572e+00 1.896161501338504505e-03
3.850973407001151372e+03 1.076322934746843707e+00 1.985699827748764121e-03
3.854824380408153957e+03 1.076650858577156589e+00 1.984975101489461300e-03
3.858679204788563311e+03 1.076849631058876655e+00 2.115591398189625803e-03
3.862537883993353262e+03 1.075977523001955261e+00 2.092917718419718808e-03
3.866400421877347981e+03 1.075087304702026403e+00 1.937130792614646891e-03
3.870266822299226533e+03 1.072226473072274588e+00 2.268963794439260179e-03
3.874137089121526969e+03 1.068584015160946254e+00 2.747350750419307822e-03
3.878011226210649966e+03 1.064981817678429366e+00 3.160948829981924564e-03
3.881889237436861549e+03 1.062801395329256771e+00 3.231401446503346080e-03
3.885771126674299921e+03 1.062824707968268889e+00 3.166379579367177913e-03
3.889656897800975457e+03 1.063962716913304796e+00 2.998335733642679569e-03
3.893546554698777527e+03 1.067348602262889079e+00 2.925114432892344293e-03
3.897440101253477678e+03 1.071409193092753176e+00 2.823594700458296417e-03
3.901337541354732366e+03 1.080306917249571175e+00 3.563946568522346949e-03
3.905238878896088409e+03 1.090493734625444633e+00 4.043774688086060332e-03
3.909144117774985716e+03 1.100234595077091759e+00 4.037692180714325292e-03
3.913053261892762293e+03 1.108537253223395913e+00 3.967964768063683006e-03
3.916966315154656058e+03 1.116515657201299305e+00 3.759930789050621152e-03
3.920883281469812118e+03 1.122889093991946696e+00 3.774094138436606335e-03
3.924804164751283224e+03 1.129439429302660614e+00 3.846032757446470659e-03
3.928728968916035683e+03 1.134300344388057047e+00 3.923593771032551566e-03
3.932657697884953450e+03 1.139065865411696077e+00 4.034930341165620868e-03
3.936590355582839493e+03 1.140820583870472804e+00 4.097869368918359914e-03
3.940526945938423523e+03 1.141190276297880946e+00 4.098861833750667115e-03
3.944467472884363360e+03 1.141264287619687456e+00 3.845083874259122136e-03
3.948411940357249023e+03 1.140492909288531420e+00 3.424455191186735140e-03
3.952360352297607733e+03 1.139527755563281008e+00 3.043053296523566976e-03
3.956312712649906643e+03 1.140570158068617612e+00 3.452302358630727087e-03
3.960269025362557841e+03 1.141526000777711713e+00 3.420733274337659380e-03
3.964229294387921527e+03 1.143694160809020310e+00 3.129425767625304382e-03
3.968193523682310570e+03 1.146174800336416055e+00 2.533968820628741767e-03
3.972161717205994591e+03 1.147504184717255127e+00 3.362413627315902643e-03
3.976133878923201792e+03 1.147712547962493002e+00 4.134680051070350158e-03
3.980110012802126221e+03 1.150673515815807901e+00 3.893786821767977226e-03
3.984090122814929600e+03 1.155297081623716693e+00 3.522638736090943218e-03
3.988074212937745870e+03 1.162564917528711605e+00 3.559719880472296451e-03
3.992062287150684824e+03 1.170726805069014276e+00 3.533447281809208671e-03
3.996054349437837118e+03 1.182311085385475691e+00 3.746563272297673188e-03
4.000050403787276082e+03 1.194200080886738791e+00 3.717942308408357568e-03
4.004050454191064546e+03 1.207338552825687472e+00 3.687971882048985024e-03
4.008054504645257111e+03 1.220637774219301530e+00 3.399562268736057349e-03
4.012062559149903791e+03 1.230915550639146705e+00 3.407290214849847867e-03
4.016074621709055009e+03 1.239668418501529645e+00 3.459415071585232940e-03
4.020090696330765240e+03 1.247728635480150450e+00 3.419162589058017104e-03
4.024110787027097558e+03 1.251344577354903009e+00 3.360590617002553321e-03
4.028134897814125907e+03 1.251541222051635760e+00 3.113310634930194134e-03
4.032163032711941469e+03 1.249461435144727517e+00 3.092567860990075735e-03
4.036195195744654484e+03 1.243952667626883724e+00 3.204270288662476249e-03
4.040231390940400615e+03 1.237659101678826756e+00 3.328418058543090603e-03
4.044271622331342314e+03 1.230404361229636034e+00 2.743944952605505659e-03
4.048315893953675186e+03 1.219338411348809936e+00 2.574527746825735867e-03
4.052364209847629809e+03 1.205548442602660364e+00 3.185752510413824082e-03
4.056416574057479011e+03 1.189551562374698168e+00 3.658777692422528378e-03
4.060472990631537868e+03 1.173332562350063446e+00 3.222186243816493618e-03
4.064533463622170530e+03 1.161073856308302288e+00 2.898685490271313368e-03
4.068597997085794304e+03 1.152092455119615666e+00 2.459049002069257136e-03
4.072666595082881486e+03 1.147957338065109134e+00 3.141533967494025172e-03
4.076739261677965715e+03 1.145230050989971327e+00 3.261296819401148829e-03
4.080816000939644709e+03 1.146600051273528376e+00 3.268326906739066427e-03
4.084896816940585722e+03 1.149646062663601143e+00 2.730966283197066961e-03
4.088981713757527814e+03 1.152624691725329331e+00 2.420993945689193377e-03
4.093070695471286854e+03 1.155142025868469258e+00 2.341924407560997540e-03
4.097163766166759160e+03 1.157499736721258943e+00 2.291581940118028998e-03
4.101260929932927866e+03 1.158982399568399213e+00 2.076835394775876018e-03
4.105362190862862008e+03 1.157203962769418615e+00 2.181434054684262651e-03
4.109467553053726078e+03 1.154856165482794239e+00 1.953135908299478540e-03
4.113577020606780934e+03 1.150998856209210830e+00 1.793543758062210534e-03
4.117690597627389252e+03 1.147590954948338071e+00 1.809142873163891579e-03
4.121808288225018259e+03 1.144659238950932245e+00 2.011022778066953644e-03
4.125930096513244280e+03 1.141709221432730237e+00 2.245208565786505159e-03
4.130056026609759101e+03 1.140402267358480382e+00 2.220725246156039345e-03
4.134186082636369974e+03 1.139612813207649289e+00 2.289654233419498482e-03
4.138320268719007800e+03 1.138627651150221576e+00 2.400217182671624417e-03
4.142458588987728035e+03 1.138242675619562938e+00 2.901094350299556618e-03
4.146601047576717065e+03 1.137420824133160036e+00 2.838733846400936286e-03
4.150747648624294925e+03 1.135746920993154552e+00 2.262748257832839470e-03
4.154898396272920763e+03 1.130942199424029404e+00 2.177346083733362834e-03
4.159053294669195566e+03 1.124388947937386085e+00 2.461804628211571033e-03
4.163212347963865795e+03 1.115539527734423775e+00 3.190411681095484467e-03
4.167375560311830668e+03 1.106207954387968595e+00 3.088218583246700715e-03
4.171542935872143971e+03 1.097336885322778732e+00 2.662913380099808658e-03
4.175714478808017702e+03 1.089858979213790269e+00 2.627130941819596794e-03
4.179890193286827525e+03 1.082510709607772181e+00 2.524791022189329555e-03
4.184070083480115500e+03 1.076089912699817797e+00 2.519176581881314974e-03
4.188254153563597356e+03 1.072391487087907214e+00 2.285441169215206552e-03
4.192442407717161586e+03 1.068349358272302929e+00 2.078783472243801202e-03
4.196634850124880359e+03 1.065180685229607516e+00 1.627564051266825818e-03
4.200831484975006788e+03 1.060822564477919894e+00 1.562368857845610696e-03
4.205032316459983122e+03 1.054987674506715489e+00 1.558432196014708374e-03
4.209237348776444378e+03 1.048694690908987148e+00 1.553919335131157377e-03
4.213446586125221984e+03 1.041268612443456920e+00 1.514291353143844970e-03
4.217660032711349231e+03 1.033012365198674010e+00 1.428803395308046037e-03
4.221877692744061278e+03 1.025032079126236395e+00 1.522856528398967759e-03
4.226099570436806971e+03 1.016382134473573950e+00 1.498938027363547632e-03
4.230325670007245208e+03 1.007387487845343932e+00 1.913385046008425888e-03
4.234555995677254032e+03 9.988175843564180978e-01 2.446900115510819342e-03
4.238790551672932452e+03 9.906624716506637895e-01 2.880133409897038619e-03
4.243029342224606808e+03 9.854630047660771774e-01 2.371141931701661355e-03
4.247272371566832589e+03 9.829271701395942973e-01 2.404263094623182787e-03
4.251519643938400804e+03 9.831506461474984748e-01 2.876834562531631941e-03
4.255771163582340705e+03 9.853585778118264527e-01 2.962732707981744883e-03
4.260026934745924336e+03 9.877771866800101330e-01 2.874906128268989603e-03
4.264286961680671993e+03 9.910419604885245537e-01 2.723342273599457016e-03
4.268551248642354039e+03 9.954315073655367607e-01 2.523616765771959525e-03
4.272819799890998183e+03 9.987743612782875591e-01 2.537138867268642732e-03
4.277092619690890388e+03 1.002420529034734109e+00 2.524501851937579686e-03
4.281369712310583054e+03 1.005253071462985925e+00 2.659979319812889528e-03
4.285651082022895025e+03 1.007768042177279666e+00 2.527569266734492909e-03
4.289936733104918858e+03 1.011445973766792239e+00 2.355228981584891502e-03
4.294226669838025373e+03 1.015128164724864668e+00 2.147535762064386317e-03
4.298520896507864563e+03 1.020564229560563474e+00 2.135473890539747992e-03
4.302819417404373780e+03 1.027847696163243230e+00 1.967186770065733076e-03
4.307122236821779552e+03 1.036245232156811857e+00 1.752476917409835589e-03
4.311429359058603040e+03 1.044661374163994294e+00 1.787718295621720669e-03
4.315740788417662770e+03 1.052710043520766581e+00 1.827046171588785854e-03
4.320056529206081905e+03 1.059754976513179958e+00 1.887656675878987686e-03
4.324376585735290064e+03 1.067456194149734472e+00 2.050739835550845734e-03
4.328700962321026054e+03 1.072942627067501764e+00 1.935603382022006410e-03
4.333029663283348782e+03 1.077122959100875077e+00 1.644478777615351233e-03
4.337362692946633615e+03 1.079438604010259928e+00 1.629502107468101379e-03
4.341700055639581478e+03 1.079228532282439090e+00 2.054161670318326981e-03
4.346041755695222491e+03 1.078476592495569708e+00 2.064846787835293053e-03
4.350387797450919606e+03 1.078363073130640837e+00 2.065978771065650563e-03
4.354738185248371337e+03 1.077982035666607885e+00 1.830970815265606667e-03
4.359092923433621763e+03 1.079240133530755985e+00 1.766215038488887223e-03
4.363452016357056891e+03 1.081178394763420147e+00 1.611395571865007880e-03
4.367815468373414660e+03 1.085509970942645008e+00 1.914756591385701357e-03
4.372183283841789489e+03 1.091667944128932755e+00 1.455231517788769515e-03
4.376555467125633186e+03 1.098470319831760689e+00 1.481003740087699291e-03
4.380932022592760404e+03 1.107201860171632024e+00 1.430228426862942531e-03
4.385312954615354101e+03 1.116783988138582817e+00 1.504621514461013760e-03
4.389698267569970994e+03 1.128008358105143216e+00 1.420286908021416942e-03
4.394087965837542470e+03 1.140832853093521670e+00 1.373719301775700808e-03
4.398482053803381859e+03 1.154669027149096028e+00 1.225876784388189042e-03
4.402880535857186260e+03 1.170067808719428504e+00 1.220516814373371738e-03
4.407283416393044718e+03 1.187293749896188411e+00 1.186688471852454657e-03
4.411690699809440048e+03 1.205133882915249366e+00 1.206239695336740669e-03
4.416102390509250654e+03 1.223673039057989742e+00 1.250720491065156290e-03
4.420518492899761441e+03 1.242251352229389205e+00 1.461921493989471214e-03
4.424939011392662906e+03 1.258458778951469625e+00 1.601511956758277979e-03
4.429363950404056595e+03 1.272594837525383271e+00 1.531518751273459400e-03
4.433793314354462382e+03 1.283336811887384465e+00 1.551949516904776744e-03
4.438227107668818462e+03 1.291229712715028288e+00 1.554373868749733345e-03
4.442665334776488635e+03 1.296696239683817309e+00 1.532302277075647508e-03
4.447108000111265937e+03 1.298670836485734670e+00 1.753903843089424461e-03
4.451555108111379013e+03 1.299581616909251114e+00 1.743650203128084683e-03
4.456006663219492111e+03 1.296769424421552408e+00 1.684331569221772214e-03
4.460462669882713271e+03 1.292562555582935646e+00 1.543038901340127150e-03
4.464923132552597053e+03 1.286831512768706220e+00 1.533165716743663297e-03
4.469388055685150903e+03 1.280513218591710745e+00 1.572784508794103234e-03
4.473857443740837880e+03 1.275003208214652517e+00 1.833286542229331907e-03
4.478331301184580298e+03 1.271094907588196543e+00 1.897246711945918454e-03
4.482809632485766087e+03 1.268790557709917222e+00 1.877578874653730058e-03
4.487292442118253348e+03 1.267691775874811411e+00 1.781848669298744187e-03
4.491779734560373072e+03 1.268202874262469804e+00 1.719479614492406714e-03
4.496271514294934605e+03 1.270702421592976306e+00 2.093657049805284533e-03
4.500767785809231100e+03 1.274700211512447057e+00 2.741205383267518014e-03
4.505268553595042249e+03 1.279308674022736181e+00 2.746129113113628204e-03
4.509773822148638828e+03 1.282594487425993579e+00 2.289180826848693281e-03
4.514283595970789065e+03 1.283818215253808237e+00 2.275175968124918281e-03
4.518797879566761367e+03 1.283148495916039522e+00 2.707677358128518508e-03
4.523316677446328868e+03 1.282080165888891177e+00 2.853132570108073574e-03
4.527839994123776705e+03 1.279561850573821769e+00 2.870009284105656724e-03
4.532367834117902021e+03 1.276354273419093355e+00 2.184296681689102803e-03
4.536900201952022144e+03 1.275231610788701619e+00 2.374163106984045202e-03
4.541437102153975502e+03 1.273217387587799232e+00 2.345212141534514742e-03
4.545978539256130716e+03 1.272198813402817263e+00 2.355752797026777930e-03
4.550524517795388419e+03 1.270379729788686962e+00 2.309540971701627265e-03
4.555075042313184895e+03 1.268111764570225564e+00 2.240073554982943693e-03
4.559630117355500261e+03 1.263721865296804081e+00 2.065199897823306787e-03
4.564189747472856652e+03 1.257523650379367419e+00 1.803494149133703971e-03
4.568753937220330954e+03 1.248908542131890398e+00 1.690568850801176188e-03
4.573322691157552981e+03 1.236712847400167181e+00 1.692059937246525279e-03
4.577896013848711846e+03 1.221618152953173553e+00 1.353165298420544926e-03
4.582473909862562323e+03 1.206003839302838720e+00 1.428092597275312271e-03
4.587056383772426670e+03 1.189122172223564311e+00 1.421290588247995203e-03
4.591643440156200086e+03 1.171500244961422244e+00 1.780264874436839496e-03
4.596235083596357981e+03 1.153871647433351466e+00 2.386142987993444819e-03
4.600831318679955984e+03 1.137093896453159170e+00 2.518608756891841174e-03
4.605432149998637215e+03 1.123535933680894772e+00 2.299432202726111631e-03
4.610037582148637739e+03 1.113162212204546808e+00 2.151053663288076800e-03
4.614647619730787483e+03 1.106241568203763626e+00 2.007894103508359521e-03
4.619262267350520233e+03 1.102961917036734851e+00 2.251758801743412083e-03
4.623881529617872729e+03 1.103602988081863856e+00 2.191842929480410443e-03
4.628505411147491941e+03 1.106057057950314615e+00 2.375009885466300950e-03
4.633133916558640522e+03 1.109545248445505283e+00 2.179116787179208141e-03
4.637767050475200449e+03 1.113284646949763035e+00 1.955907402850970249e-03
4.642404817525677572e+03 1.116314948171755583e+00 1.401130693418275053e-03
4.647047222343205249e+03 1.116934800116445636e+00 1.451274491317001850e-03
4.651694269565549803e+03 1.115694774361744912e+00 1.508669647465535639e-03
4.656345963835116891e+03 1.112871579798359045e+00 1.502568321288834646e-03
4.661002309798953320e+03 1.107171843948604018e+00 1.243978348941388338e-03
4.665663312108753416e+03 1.100147700087305225e+00 1.210184791912051342e-03
4.670328975420864481e+03 1.092467992069027671e+00 9.646360854440114022e-04
4.674999304396286789e+03 1.082564748105545815e+00 1.423573808154098138e-03
4.679674303700684504e+03 1.071729341799668500e+00 1.884807731487808755e-03
4.684353978004386590e+03 1.060960284176785562e+00 2.017564291310957464e-03
4.689038331982392265e+03 1.051184387577271950e+00 1.861706817324544063e-03
4.693727370314376458e+03 1.043643904428580571e+00 1.777644068066027306e-03
4.698421097684692540e+03 1.037564898110733491e+00 1.818343985249332466e-03
4.703119518782378691e+03 1.033847038339341884e+00 2.193791455309901817e-03
4.707822638301162442e+03 1.030546337317943317e+00 2.177514919506464211e-03
4.712530460939465229e+03 1.028403023658224447e+00 2.139187373410616957e-03
4.717242991400406027e+03 1.028241098918142971e+00 2.005348437784075163e-03
4.721960234391808626e+03 1.027907172111874656e+00 1.913281391933429687e-03
4.726682194626201635e+03 1.027956430003527322e+00 1.884877469301716492e-03
4.731408876820829391e+03 1.027593112355296601e+00 1.972804405299066755e-03
4.736140285697651962e+03 1.027044436620917045e+00 1.782851976776201816e-03
4.740876425983350600e+03 1.026673090697650892e+00 1.765562402545576550e-03
4.745617302409335934e+03 1.026817366865673709e+00 2.297482482638485597e-03
4.750362919711747054e+03 1.025401286300522408e+00 2.324551528878230928e-03
4.755113282631459697e+03 1.023896126763685910e+00 2.022221714751875135e-03
4.759868395914093526e+03 1.021176907115739940e+00 1.934150588736286650e-03
4.764628264310008490e+03 1.016985851149415643e+00 2.253377720796168396e-03
4.769392892574320285e+03 1.012389257391952402e+00 2.346403805631255227e-03
4.774162285466896719e+03 1.007282758274838042e+00 2.228682112355181641e-03
