# starting wavelength: 3519.890
# ending wavelength: 8908.520
# wav flux eflux
3.523202649938685681e+03 1.147127596440993269e-01 3.425662734149414329e-02
3.526725852588625457e+03 1.303281590858930972e-01 2.449841811378930881e-02
3.530252578441215064e+03 1.408054956849582318e-01 1.867476642182857791e-02
3.533782831019657806e+03 1.480355082377008413e-01 1.479820118349233979e-02
3.537316613850678550e+03 1.582937646208935067e-01 1.212970045714059988e-02
3.540853930464530094e+03 1.653275310285051147e-01 9.512432407301363996e-03
3.544394784394995895e+03 1.695469653179696445e-01 8.036316327019236289e-03
3.547939179179392340e+03 1.740889051038078117e-01 6.771120731410224317e-03
3.551487118358572843e+03 1.789070775085089271e-01 5.634949744748171327e-03
3.555038605476932389e+03 1.828416246468203832e-01 4.768777591676138725e-03
3.558593644082410719e+03 1.862957289648477233e-01 4.138053350691740448e-03
3.562152237726494150e+03 1.890947366922708095e-01 3.632833330457481500e-03
3.565714389964221937e+03 1.912199184300687194e-01 3.283457990843853622e-03
3.569280104354187188e+03 1.913497309852886241e-01 3.359710471981651372e-03
3.572849384458542772e+03 1.905085977189107382e-01 3.597754445836088416e-03
3.576422233843002232e+03 1.897122134779856972e-01 3.755556796143144204e-03
3.579998656076846601e+03 1.899684269321736674e-01 3.740972059251850348e-03
3.583578654732924406e+03 1.930156060506101334e-01 3.654066918719168101e-03
3.587162233387658489e+03 1.967431384097143021e-01 3.668955433541447753e-03
3.590749395621047370e+03 2.008260721158431905e-01 3.672529296913796398e-03
3.594340145016669794e+03 2.053940038253023737e-01 3.632360104969933196e-03
3.597934485161687462e+03 2.095200634666052886e-01 3.826641875707874254e-03
3.601532419646850485e+03 2.151051041712579992e-01 3.880788835476215587e-03
3.605133952066498296e+03 2.222303206983999857e-01 3.822123271086155447e-03
3.608739086018566013e+03 2.302176065467201882e-01 3.656529925890982750e-03
3.612347825104585809e+03 2.400860912444058026e-01 3.710262986266603738e-03
3.615960172929691907e+03 2.515694265119781670e-01 4.096145995599848044e-03
3.619576133102622407e+03 2.623803163287642959e-01 4.204732571959097359e-03
3.623195709235726554e+03 2.761427810276751993e-01 4.389854766193935012e-03
3.626818904944963379e+03 2.897439864266781462e-01 4.311744400185981742e-03
3.630445723849909427e+03 3.025862966257132913e-01 4.130772718769483605e-03
3.634076169573760581e+03 3.148818500371856066e-01 3.994922650967476681e-03
3.637710245743335690e+03 3.266760386526694759e-01 3.916023251734070468e-03
3.641347955989080219e+03 3.382269165981064973e-01 3.888323300681389896e-03
3.644989303945070333e+03 3.478293566130542525e-01 3.822336670395078823e-03
3.648634293249016537e+03 3.566835694736971707e-01 3.779618693671554872e-03
3.652282927542266862e+03 3.632105758631632431e-01 3.724008475214984990e-03
3.655935210469810499e+03 3.673827444217107052e-01 3.721041441835310545e-03
3.659591145680281443e+03 3.698400952581104573e-01 3.715532174639785395e-03
3.663250736825963031e+03 3.697321876364397797e-01 3.772291333316609221e-03
3.666913987562790226e+03 3.665141402589258135e-01 3.558334561828265137e-03
3.670580901550354156e+03 3.632495555487604832e-01 3.542555454593394361e-03
3.674251482451905758e+03 3.593411277660868430e-01 3.646697229556776325e-03
3.677925733934358959e+03 3.532228702432529399e-01 3.681365864823179894e-03
3.681603659668294313e+03 3.456845526032128468e-01 3.675122407120120453e-03
3.685285263327964003e+03 3.378190628646248195e-01 3.739602230422511657e-03
3.688970548591293209e+03 3.292212073209311307e-01 3.811011197169101791e-03
3.692659519139885560e+03 3.195760479162460532e-01 3.762621400730603496e-03
3.696352178659026777e+03 3.067772187284021901e-01 3.026674930597703529e-03
3.700048530837686940e+03 2.958889310136356698e-01 2.822855230873859075e-03
3.703748579368525952e+03 2.870905970721571165e-01 2.826685643824440597e-03
3.707452327947895355e+03 2.805961869170417455e-01 2.595785051066130684e-03
3.711159780275844696e+03 2.742841516265416835e-01 2.521569173411276638e-03
3.714870940056121526e+03 2.680562043642026882e-01 2.621897488929355972e-03
3.718585810996179134e+03 2.615379090422010333e-01 2.751503473251501117e-03
3.722304396807176545e+03 2.546054437906462575e-01 2.814458605388722376e-03
3.726026701203984885e+03 2.476222040227044341e-01 2.905338887428809188e-03
3.729752727905190113e+03 2.415049889917012804e-01 2.885458696541462129e-03
3.733482480633096657e+03 2.354518281025900217e-01 2.803195232583026702e-03
3.737215963113731050e+03 2.306132248777224003e-01 2.366728285067337591e-03
3.740953179076846027e+03 2.258875158741425193e-01 1.990992759492858817e-03
3.744694132255923705e+03 2.206045703554290194e-01 1.860326956261656268e-03
3.748438826388181042e+03 2.141619041458198425e-01 1.888558826797365415e-03
3.752187265214570289e+03 2.074858471578271135e-01 1.964191099353575828e-03
3.755939452479786269e+03 2.014088451549820857e-01 1.980658738062216102e-03
3.759695391932267285e+03 1.958118186892863488e-01 1.934441771284248993e-03
3.763455087324201031e+03 1.909516234551276170e-01 1.897930266302586032e-03
3.767218542411526414e+03 1.871640798289456453e-01 1.893147415413552704e-03
3.770985760953939007e+03 1.833583630920891661e-01 1.821377209343844669e-03
3.774756746714894234e+03 1.805308174188217374e-01 1.781090180621028481e-03
3.778531503461610555e+03 1.786654287304607069e-01 1.833373375070857739e-03
3.782310034965073100e+03 1.788569149334756081e-01 1.793684690932918118e-03
3.786092345000039586e+03 1.802469753832348365e-01 1.926325817530029133e-03
3.789878437345040766e+03 1.847427152296651220e-01 1.952023719626057308e-03
3.793668315782387253e+03 1.907912013181940203e-01 2.045506707231270396e-03
3.797461984098170888e+03 1.993343891806148016e-01 2.115152367083572658e-03
3.801259446082270188e+03 2.101465602588038495e-01 2.166813326097888782e-03
3.805060705528353537e+03 2.236515248152232127e-01 2.248143654362104189e-03
3.808865766233883278e+03 2.379977776853567650e-01 2.112196413417583799e-03
3.812674632000118436e+03 2.546408683489155833e-01 2.486136654021678296e-03
3.816487306632119726e+03 2.737362818200147485e-01 3.290170915066126852e-03
3.820303793938753188e+03 2.931375333557984519e-01 3.552789830872068837e-03
3.824124097732693372e+03 3.121674846682948590e-01 3.462926233152027050e-03
3.827948221830427428e+03 3.311191764436235419e-01 3.109415646118682350e-03
3.831776170052258749e+03 3.486325137371186766e-01 2.652722653111191584e-03
3.835607946222312421e+03 3.654628574474532154e-01 2.375572172360134685e-03
3.839443554168536139e+03 3.791962976651925832e-01 2.615218266876077110e-03
3.843282997722705659e+03 3.914130715462981192e-01 2.757691078663488098e-03
3.847126280720429804e+03 4.024359739066903918e-01 2.779715345230048852e-03
3.850973407001151372e+03 4.109818373600855335e-01 2.951226937226296074e-03
3.854824380408153957e+03 4.163497171347695369e-01 2.828995616794002105e-03
3.858679204788563311e+03 4.209097559804760857e-01 2.319669580498237484e-03
3.862537883993353262e+03 4.250786059592210897e-01 2.288277045449653175e-03
3.866400421877347981e+03 4.285376268183087589e-01 2.666732505932050811e-03
3.870266822299226533e+03 4.309914800996080819e-01 2.987161433863806323e-03
3.874137089121526969e+03 4.316741326304124327e-01 2.922417921135131349e-03
3.878011226210649966e+03 4.308120779037082904e-01 2.757346878341872688e-03
3.881889237436861549e+03 4.284478025062651296e-01 2.654892628129053387e-03
3.885771126674299921e+03 4.243257457292850532e-01 3.039103379275676867e-03
3.889656897800975457e+03 4.210910961631339489e-01 3.160726826598117198e-03
3.893546554698777527e+03 4.160656868359541849e-01 3.746316044799093223e-03
3.897440101253477678e+03 4.106548880754993247e-01 3.952208484237145630e-03
3.901337541354732366e+03 4.061408129785357701e-01 3.726989941056173521e-03
3.905238878896088409e+03 4.034832685991914802e-01 3.382148524879093499e-03
3.909144117774985716e+03 4.015479398062454797e-01 3.236021796031547920e-03
3.913053261892762293e+03 4.034345649635207032e-01 3.644669471253028908e-03
3.916966315154656058e+03 4.067652348533525308e-01 3.575337258486340885e-03
3.920883281469812118e+03 4.111847244348959540e-01 3.499569025530594683e-03
3.924804164751283224e+03 4.174755221787473936e-01 3.391916073259343498e-03
3.928728968916035683e+03 4.251923168454697644e-01 3.335232605343570883e-03
3.932657697884953450e+03 4.338687672359545777e-01 3.477464025347114587e-03
3.936590355582839493e+03 4.444479535276708027e-01 3.493278203204209370e-03
3.940526945938423523e+03 4.567751941934916071e-01 3.484084968350570442e-03
3.944467472884363360e+03 4.694753989587087672e-01 3.658436663581962536e-03
3.948411940357249023e+03 4.814050949265162860e-01 3.417667081927749408e-03
3.952360352297607733e+03 4.935965029216552447e-01 3.397544521934550005e-03
3.956312712649906643e+03 5.061279570513120829e-01 3.882377709645931652e-03
3.960269025362557841e+03 5.195762878337465418e-01 4.217171194830580082e-03
3.964229294387921527e+03 5.310634621755792040e-01 3.865184249758558260e-03
3.968193523682310570e+03 5.396783690404914902e-01 3.350335253371041454e-03
3.972161717205994591e+03 5.454766789615330680e-01 2.919099407853805069e-03
3.976133878923201792e+03 5.474420566889254269e-01 3.279815846749950265e-03
3.980110012802126221e+03 5.452891250876332752e-01 3.954578839790056331e-03
3.984090122814929600e+03 5.408617965619222367e-01 3.769883326707317798e-03
3.988074212937745870e+03 5.349766325731917238e-01 2.957220110779311059e-03
3.992062287150684824e+03 5.289143074624661489e-01 2.412412615825187349e-03
3.996054349437837118e+03 5.225294320230463585e-01 2.406502798855387690e-03
4.000050403787276082e+03 5.164102609465571758e-01 2.495709102916170846e-03
4.004050454191064546e+03 5.106372728496308966e-01 2.464621737538236820e-03
4.008054504645257111e+03 5.051885590950876415e-01 2.546624269047634802e-03
4.012062559149903791e+03 5.015037991656376981e-01 2.760231644918147674e-03
4.016074621709055009e+03 4.980167801990433851e-01 2.886171120956387143e-03
4.020090696330765240e+03 4.967453374594061888e-01 2.931775299941864060e-03
4.024110787027097558e+03 4.966331892308389895e-01 3.141651685586583243e-03
4.028134897814125907e+03 4.966292534552549376e-01 3.351349892479202081e-03
4.032163032711941469e+03 4.961388136298562346e-01 3.502701804093468017e-03
4.036195195744654484e+03 4.947597473051522643e-01 3.484399111329253111e-03
4.040231390940400615e+03 4.937395102228165911e-01 3.357210212305338035e-03
4.044271622331342314e+03 4.920735585091864372e-01 3.208576628142589902e-03
4.048315893953675186e+03 4.895279603889198805e-01 3.118768203972056320e-03
4.052364209847629809e+03 4.861913551987183113e-01 3.086400165154780904e-03
4.056416574057479011e+03 4.817296380853679505e-01 3.279226767650700487e-03
4.060472990631537868e+03 4.749034200877300105e-01 3.161352730974924773e-03
4.064533463622170530e+03 4.663923773744825252e-01 2.551212102565389092e-03
4.068597997085794304e+03 4.585153676911394305e-01 2.269406756861833043e-03
4.072666595082881486e+03 4.531819787666565014e-01 2.166602789843861000e-03
4.076739261677965715e+03 4.516420838177507835e-01 2.151351632046669040e-03
4.080816000939644709e+03 4.514091593015523984e-01 2.285116587561209552e-03
4.084896816940585722e+03 4.511073284536412098e-01 2.293813136430723938e-03
4.088981713757527814e+03 4.509716341134139550e-01 2.439314296243976984e-03
4.093070695471286854e+03 4.494350941479599570e-01 2.490928279728340643e-03
4.097163766166759160e+03 4.470366868433658936e-01 2.549173935338178067e-03
4.101260929932927866e+03 4.440961992420391358e-01 2.339242027028767303e-03
4.105362190862862008e+03 4.399940469790386555e-01 2.380507566546515887e-03
4.109467553053726078e+03 4.350821877472212940e-01 2.679119835069099145e-03
4.113577020606780934e+03 4.296189513548885897e-01 3.025326226633502386e-03
4.117690597627389252e+03 4.236900779541642459e-01 2.758136007899865232e-03
4.121808288225018259e+03 4.199321733249448685e-01 2.268096888398179935e-03
4.125930096513244280e+03 4.186260553744010071e-01 2.525944026107498994e-03
4.130056026609759101e+03 4.191521247545920148e-01 3.198417539308024728e-03
4.134186082636369974e+03 4.209122502598639515e-01 2.920328172190919322e-03
4.138320268719007800e+03 4.234040527053851144e-01 2.445283969202305570e-03
4.142458588987728035e+03 4.260444599617211336e-01 2.238908965440010879e-03
4.146601047576717065e+03 4.280139372704740430e-01 2.310431078287206955e-03
4.150747648624294925e+03 4.297104904309710371e-01 2.424151584544633007e-03
4.154898396272920763e+03 4.321112155447589531e-01 2.412748756298526125e-03
4.159053294669195566e+03 4.349611168840557540e-01 2.464557702212029876e-03
4.163212347963865795e+03 4.369647002058726915e-01 2.450344496172161216e-03
4.167375560311830668e+03 4.395019062528582876e-01 2.835282276482885364e-03
4.171542935872143971e+03 4.409818731790029478e-01 2.917917984064751467e-03
4.175714478808017702e+03 4.411422909189292030e-01 2.819462166612034075e-03
4.179890193286827525e+03 4.402927303389901903e-01 3.186789979657937439e-03
4.184070083480115500e+03 4.397126811915303413e-01 3.362794598157177982e-03
4.188254153563597356e+03 4.393544812995096027e-01 3.333649429873439089e-03
4.192442407717161586e+03 4.380216564862349227e-01 3.142677154688547098e-03
4.196634850124880359e+03 4.365796283726691707e-01 2.506914054520669073e-03
4.200831484975006788e+03 4.368237518306552492e-01 2.240175249343593581e-03
4.205032316459983122e+03 4.402646331020650394e-01 2.740885051502913675e-03
4.209237348776444378e+03 4.439952863520459925e-01 2.558905003305992406e-03
4.213446586125221984e+03 4.470893587564437888e-01 2.458953882545703452e-03
4.217660032711349231e+03 4.509780314079339658e-01 2.366720320084951708e-03
4.221877692744061278e+03 4.536990364513174834e-01 2.070780715219638218e-03
4.226099570436806971e+03 4.547171654002699070e-01 2.084046823382733945e-03
4.230325670007245208e+03 4.533168767108506358e-01 2.452438116665534799e-03
4.234555995677254032e+03 4.518965092720100274e-01 2.269781596223706920e-03
4.238790551672932452e+03 4.517543782296625787e-01 2.205831139887634140e-03
4.243029342224606808e+03 4.513482106196853305e-01 2.096149210133871517e-03
4.247272371566832589e+03 4.525205414487582511e-01 2.033482838636607726e-03
4.251519643938400804e+03 4.545620850135495550e-01 1.977401852349730885e-03
4.255771163582340705e+03 4.559136255404559468e-01 1.917922415898785753e-03
4.260026934745924336e+03 4.576878300141305478e-01 1.850434982016211814e-03
4.264286961680671993e+03 4.608606298133937074e-01 1.856156861543303794e-03
4.268551248642354039e+03 4.647505660217097212e-01 1.657971941492828198e-03
4.272819799890998183e+03 4.675531654428226047e-01 1.666929983652510076e-03
4.277092619690890388e+03 4.701652697179510842e-01 1.690555638093655657e-03
4.281369712310583054e+03 4.718387164780959431e-01 1.687729504172033124e-03
4.285651082022895025e+03 4.732693099751610899e-01 1.574022152863771345e-03
4.289936733104918858e+03 4.725640727549364484e-01 1.622898646358913880e-03
4.294226669838025373e+03 4.701652153936254908e-01 1.714471659109057661e-03
4.298520896507864563e+03 4.670600195938460208e-01 1.426600104321299736e-03
4.302819417404373780e+03 4.606843137049710935e-01 1.207638821760450946e-03
4.307122236821779552e+03 4.518352883386140828e-01 1.139843339340830585e-03
4.311429359058603040e+03 4.396182531884063605e-01 1.161669434815675809e-03
4.315740788417662770e+03 4.264290961971525240e-01 1.301341735360640782e-03
4.320056529206081905e+03 4.130335605945435473e-01 1.691026349864634647e-03
4.324376585735290064e+03 3.992623677613162392e-01 1.637791962599397747e-03
4.328700962321026054e+03 3.870490541938029216e-01 1.439697729895684022e-03
4.333029663283348782e+03 3.775913803127015078e-01 1.282062043860402985e-03
4.337362692946633615e+03 3.704512759542223366e-01 1.028076371404980935e-03
4.341700055639581478e+03 3.671440655809738440e-01 7.631759630446291204e-04
4.346041755695222491e+03 3.683659372203609284e-01 8.766262349440975214e-04
4.350387797450919606e+03 3.734421682068485571e-01 1.283474216900402530e-03
4.354738185248371337e+03 3.814864114889364166e-01 1.752018803264116615e-03
4.359092923433621763e+03 3.916525353289561084e-01 1.564021730446570708e-03
4.363452016357056891e+03 4.018111839117758932e-01 1.397266146653153686e-03
4.367815468373414660e+03 4.126668988464949894e-01 1.307985398331063670e-03
4.372183283841789489e+03 4.234449918238449295e-01 1.342406215878616397e-03
4.376555467125633186e+03 4.329277539331760072e-01 1.388015584193256526e-03
4.380932022592760404e+03 4.405652584662455018e-01 1.262055422039442014e-03
4.385312954615354101e+03 4.455850017977168176e-01 1.272238025362672437e-03
4.389698267569970994e+03 4.489496111151578539e-01 1.274225929848651559e-03
4.394087965837542470e+03 4.499001771960923213e-01 1.413031172816804843e-03
4.398482053803381859e+03 4.495680139308645962e-01 1.571866501584318239e-03
4.402880535857186260e+03 4.487172760805810401e-01 1.417520069439474374e-03
4.407283416393044718e+03 4.478845710670860680e-01 1.361821946537647345e-03
4.411690699809440048e+03 4.471254532462287656e-01 1.544310270063346379e-03
4.416102390509250654e+03 4.477946042417585426e-01 1.643539372384203185e-03
4.420518492899761441e+03 4.500853377451207726e-01 1.461814331657755161e-03
4.424939011392662906e+03 4.540436439704846894e-01 1.336173571973735697e-03
4.429363950404056595e+03 4.607257182404236873e-01 1.289843118294851064e-03
4.433793314354462382e+03 4.707162408990593350e-01 1.318016243669880910e-03
4.438227107668818462e+03 4.836374090519682256e-01 1.241803435997863988e-03
4.442665334776488635e+03 4.981864211462387337e-01 1.225718092981553436e-03
4.447108000111265937e+03 5.135143086534788015e-01 1.239320236357708497e-03
4.451555108111379013e+03 5.305211016670590141e-01 1.219990769845371919e-03
4.456006663219492111e+03 5.487042779529027747e-01 1.118223405840475596e-03
4.460462669882713271e+03 5.676046325655333957e-01 1.122923766755702830e-03
4.464923132552597053e+03 5.872572229479023909e-01 1.116221823437132206e-03
4.469388055685150903e+03 6.072927635376189626e-01 1.117024936289778446e-03
4.473857443740837880e+03 6.271936349933415755e-01 1.139049608180885478e-03
4.478331301184580298e+03 6.468088958984927750e-01 1.053309474583473534e-03
4.482809632485766087e+03 6.664832467394162796e-01 9.756052642905499971e-04
4.487292442118253348e+03 6.871632732011306866e-01 9.697791768196874045e-04
4.491779734560373072e+03 7.077680871145246577e-01 1.050751241534055285e-03
4.496271514294934605e+03 7.271480510188347290e-01 1.094489267661057520e-03
4.500767785809231100e+03 7.461372228414100416e-01 1.327501889924682802e-03
4.505268553595042249e+03 7.638105239145811520e-01 1.021811607434574718e-03
4.509773822148638828e+03 7.780125485516878880e-01 1.325078613094531890e-03
4.514283595970789065e+03 7.909435186406714724e-01 1.315811329289466201e-03
4.518797879566761367e+03 8.018603860015650620e-01 1.311158025623528241e-03
4.523316677446328868e+03 8.108937745218205428e-01 1.303198957998973322e-03
4.527839994123776705e+03 8.179506976152077780e-01 1.298562802531751841e-03
4.532367834117902021e+03 8.230439124340711565e-01 1.325314960573053353e-03
4.536900201952022144e+03 8.264869264978341734e-01 1.338549606841943958e-03
4.541437102153975502e+03 8.287745033839851727e-01 1.232039719095416987e-03
4.545978539256130716e+03 8.303063447483707282e-01 1.104466539826251320e-03
4.550524517795388419e+03 8.321742917982917209e-01 1.097691634223619183e-03
4.555075042313184895e+03 8.340807696326866250e-01 1.062074029430870809e-03
4.559630117355500261e+03 8.353191181089618667e-01 1.116127721072370611e-03
4.564189747472856652e+03 8.364810270039085838e-01 1.173654336978692666e-03
4.568753937220330954e+03 8.375808340255901374e-01 1.080046554152524303e-03
4.573322691157552981e+03 8.390952247383298701e-01 1.041120272281057489e-03
4.577896013848711846e+03 8.414477591723874550e-01 1.158053355927740006e-03
4.582473909862562323e+03 8.439850037781557734e-01 1.607855789872895220e-03
4.587056383772426670e+03 8.460879836165769996e-01 1.569174633073278482e-03
