# starting wavelength: 3526.930
# ending wavelength: 7214.580
# wav flux eflux
3.530252578441215064e+03 5.666347849795099201e-01 5.860491318235568070e-02
3.533782831019657806e+03 5.128301452820323014e-01 4.394240138338480206e-02
3.537316613850678550e+03 4.666509806952371386e-01 3.296275810131595735e-02
3.540853930464530094e+03 4.305003019516948082e-01 2.641920490965995322e-02
3.544394784394995895e+03 3.973749979934855792e-01 2.072831207933044720e-02
3.547939179179392340e+03 3.687514812016249310e-01 1.728522950825971474e-02
3.551487118358572843e+03 3.418636086590939316e-01 1.419448002772480226e-02
3.555038605476932389e+03 3.184372992687098947e-01 1.181578907241307742e-02
3.558593644082410719e+03 2.974898338204823300e-01 9.879809605151567559e-03
3.562152237726494150e+03 2.782102408211150624e-01 8.613874860926417493e-03
3.565714389964221937e+03 2.603459896160701392e-01 7.684293520543041857e-03
3.569280104354187188e+03 2.433210940986949566e-01 7.046738636950034690e-03
3.572849384458542772e+03 2.263334718476262275e-01 6.807532062230685702e-03
3.576422233843002232e+03 2.108966935188340552e-01 6.601688766740355756e-03
3.579998656076846601e+03 1.974876839098111958e-01 6.394614630279103068e-03
3.583578654732924406e+03 1.849371358800586118e-01 6.515214807219850066e-03
3.587162233387658489e+03 1.751714535667680261e-01 6.540623130914230594e-03
3.590749395621047370e+03 1.682081235158339461e-01 6.570537158527337517e-03
3.594340145016669794e+03 1.631043456359191346e-01 6.214309670523621328e-03
3.597934485161687462e+03 1.599755426847139783e-01 6.077039161041269955e-03
3.601532419646850485e+03 1.590461329083570630e-01 6.067880086827444862e-03
3.605133952066498296e+03 1.633108619031012898e-01 6.318724231730439046e-03
3.608739086018566013e+03 1.714402422138913973e-01 6.245384452746275891e-03
3.612347825104585809e+03 1.792981390503970429e-01 4.850024497175915543e-03
3.615960172929691907e+03 1.959014720394096354e-01 4.815667948530136418e-03
3.619576133102622407e+03 2.166658426623968015e-01 4.801032438148493398e-03
3.623195709235726554e+03 2.423186997832416645e-01 4.868112064033018431e-03
3.626818904944963379e+03 2.702420310618012800e-01 5.180867253663798758e-03
3.630445723849909427e+03 2.995285546837060942e-01 5.348810091423120659e-03
3.634076169573760581e+03 3.355949369180069031e-01 6.136633976349949518e-03
3.637710245743335690e+03 3.728262734340982987e-01 7.036084179796508152e-03
3.641347955989080219e+03 4.083512394359545827e-01 8.245913985697619561e-03
3.644989303945070333e+03 4.428044642837941081e-01 9.423201820882579766e-03
3.648634293249016537e+03 4.808059230019940955e-01 8.059777411757276452e-03
3.652282927542266862e+03 5.108556020995959068e-01 7.183307344641123686e-03
3.655935210469810499e+03 5.334572172025413561e-01 6.417745400135354411e-03
3.659591145680281443e+03 5.481384407964212668e-01 6.592578028147625703e-03
3.663250736825963031e+03 5.579909339163126036e-01 7.032405233589786656e-03
3.666913987562790226e+03 5.600912124604849884e-01 8.059799971837526555e-03
3.670580901550354156e+03 5.617641501055082864e-01 8.337125490072270009e-03
3.674251482451905758e+03 5.541088771881077513e-01 8.902683588028984657e-03
3.677925733934358959e+03 5.454575865677101509e-01 9.298602534653374954e-03
3.681603659668294313e+03 5.310252995174874480e-01 8.801884678775042520e-03
3.685285263327964003e+03 5.153265328099039255e-01 8.454589406255687278e-03
3.688970548591293209e+03 4.965090373655608458e-01 8.277759056270773616e-03
3.692659519139885560e+03 4.786419454733202294e-01 7.384779560623637093e-03
3.696352178659026777e+03 4.646276676983029374e-01 6.587567461530227132e-03
3.700048530837686940e+03 4.534969297167779079e-01 6.029651757183817837e-03
3.703748579368525952e+03 4.478285771608496169e-01 5.943022685460644036e-03
3.707452327947895355e+03 4.452477260384629654e-01 6.160506494689966563e-03
3.711159780275844696e+03 4.489631498067591653e-01 6.358239865548245828e-03
3.714870940056121526e+03 4.576266488463385240e-01 6.639441434210084821e-03
3.718585810996179134e+03 4.726947802826334533e-01 6.959189719162948984e-03
3.722304396807176545e+03 4.887509782450449869e-01 6.354694203922391267e-03
3.726026701203984885e+03 5.055255817411663521e-01 6.005230881879717111e-03
3.729752727905190113e+03 5.197812964301370409e-01 5.768621989075952902e-03
3.733482480633096657e+03 5.336269743249930642e-01 5.781578833000501801e-03
3.737215963113731050e+03 5.478500495996344588e-01 5.791248450062057643e-03
3.740953179076846027e+03 5.603129308263631314e-01 5.738584821140949206e-03
3.744694132255923705e+03 5.715768807206669244e-01 5.977654705303335481e-03
3.748438826388181042e+03 5.802813476647817881e-01 6.465752963094861631e-03
3.752187265214570289e+03 5.913042788833923202e-01 6.461389351499172325e-03
3.755939452479786269e+03 6.034117838286461311e-01 6.591815038818189983e-03
3.759695391932267285e+03 6.124848062262794324e-01 6.711723613104621927e-03
3.763455087324201031e+03 6.178757780889452267e-01 7.329112700902563025e-03
3.767218542411526414e+03 6.218582230250706555e-01 7.160794831827640462e-03
3.770985760953939007e+03 6.272177685595252683e-01 8.330079001767909386e-03
3.774756746714894234e+03 6.404820623419715808e-01 7.344798643860078573e-03
3.778531503461610555e+03 6.602983792027347087e-01 6.869192677437716693e-03
3.782310034965073100e+03 6.861568389770338339e-01 7.160979091357336235e-03
3.786092345000039586e+03 7.209275336345154495e-01 7.658003422427389108e-03
3.789878437345040766e+03 7.572586811434397491e-01 8.277877169167427787e-03
3.793668315782387253e+03 7.958447093474706469e-01 8.966910539220836196e-03
3.797461984098170888e+03 8.384904852831192024e-01 9.562168729624734992e-03
3.801259446082270188e+03 8.795535975409414231e-01 9.818510896914156572e-03
3.805060705528353537e+03 9.194449655062185700e-01 9.171361496241084085e-03
3.808865766233883278e+03 9.540462451392970333e-01 8.858964772973310781e-03
3.812674632000118436e+03 9.872945223579588925e-01 8.548167032037203364e-03
3.816487306632119726e+03 1.010932319561675508e+00 7.661232482143302304e-03
3.820303793938753188e+03 1.028699017026615481e+00 7.681341966597737998e-03
3.824124097732693372e+03 1.036045306840196023e+00 8.419157548082043321e-03
3.827948221830427428e+03 1.033249775211440458e+00 8.925094202114495015e-03
3.831776170052258749e+03 1.027484177579637725e+00 8.621009716712341175e-03
3.835607946222312421e+03 1.016292254585353216e+00 7.267603975287841023e-03
3.839443554168536139e+03 1.002188507305058929e+00 5.415810244668238863e-03
3.843282997722705659e+03 9.944586247674089829e-01 5.648674259637777653e-03
3.847126280720429804e+03 9.924872227236342104e-01 5.654607079915323353e-03
3.850973407001151372e+03 9.954708298322395565e-01 5.618581858232279611e-03
3.854824380408153957e+03 1.003098728589874922e+00 5.859259774647827997e-03
3.858679204788563311e+03 1.016869685997043415e+00 6.254440065851932413e-03
3.862537883993353262e+03 1.032313744953656576e+00 5.883600001077015328e-03
3.866400421877347981e+03 1.057895968363592454e+00 6.314257285177686356e-03
3.870266822299226533e+03 1.085659994444728493e+00 5.553755302679538181e-03
3.874137089121526969e+03 1.113846111358032465e+00 5.096451139473647148e-03
3.878011226210649966e+03 1.140934162840198107e+00 5.054554696263433358e-03
3.881889237436861549e+03 1.163895487775544080e+00 4.383261994651088331e-03
3.885771126674299921e+03 1.181409666922847768e+00 4.486515875168468025e-03
3.889656897800975457e+03 1.194805654717610688e+00 4.403784331803225517e-03
3.893546554698777527e+03 1.203291598612141078e+00 4.633528775144005879e-03
3.897440101253477678e+03 1.208795594412236163e+00 4.632737923876852244e-03
3.901337541354732366e+03 1.207058928481738791e+00 3.927082981372705464e-03
3.905238878896088409e+03 1.203265052176850869e+00 3.382915352215591122e-03
3.909144117774985716e+03 1.199903534166985031e+00 3.697359846652170570e-03
3.913053261892762293e+03 1.199593339673769909e+00 3.884149420769696798e-03
3.916966315154656058e+03 1.201328413307460874e+00 3.798026680712415608e-03
3.920883281469812118e+03 1.203771455168755944e+00 3.549078333754826942e-03
3.924804164751283224e+03 1.208641404510706563e+00 4.432324411514043834e-03
3.928728968916035683e+03 1.215019681196979784e+00 5.998379648113542732e-03
3.932657697884953450e+03 1.218878801489016173e+00 6.191524895551954108e-03
3.936590355582839493e+03 1.218967685210858187e+00 4.726232404113459191e-03
3.940526945938423523e+03 1.211908174280078576e+00 5.377747536813608752e-03
3.944467472884363360e+03 1.202464922171251560e+00 5.635403584487224879e-03
3.948411940357249023e+03 1.188020155542298228e+00 5.999047812478122514e-03
3.952360352297607733e+03 1.170921201320469285e+00 6.112625471602527866e-03
3.956312712649906643e+03 1.154246863168198800e+00 5.919240327170552894e-03
3.960269025362557841e+03 1.133145639385374936e+00 4.926096036006909727e-03
3.964229294387921527e+03 1.113709235403965492e+00 5.539206672728435969e-03
3.968193523682310570e+03 1.095274336129535619e+00 6.521516732974430054e-03
3.972161717205994591e+03 1.072810515458183067e+00 6.490214670369754725e-03
3.976133878923201792e+03 1.046887864843415894e+00 5.425548690044954860e-03
3.980110012802126221e+03 1.016726660722482078e+00 5.663073373977024066e-03
3.984090122814929600e+03 9.835332126650994100e-01 6.059423098550462475e-03
3.988074212937745870e+03 9.484377910497291397e-01 6.023549156473237583e-03
3.992062287150684824e+03 9.120982046799694931e-01 5.512800743181681985e-03
3.996054349437837118e+03 8.760102725570312332e-01 4.378378009362332568e-03
4.000050403787276082e+03 8.440916742453601351e-01 4.000192946434876287e-03
4.004050454191064546e+03 8.179644077024208482e-01 4.150167511180660046e-03
4.008054504645257111e+03 7.953349053655630607e-01 3.947828556097644943e-03
4.012062559149903791e+03 7.753233234445140454e-01 4.603768810278996947e-03
4.016074621709055009e+03 7.611927285969000145e-01 4.884646650853237057e-03
4.020090696330765240e+03 7.553236185037722761e-01 4.866847329079988620e-03
4.024110787027097558e+03 7.527819473533657879e-01 4.847213285454578767e-03
4.028134897814125907e+03 7.536980019172627721e-01 4.925076458826269966e-03
4.032163032711941469e+03 7.593884783501625435e-01 5.753368856236272880e-03
4.036195195744654484e+03 7.634547885576313808e-01 6.144678143436264374e-03
4.040231390940400615e+03 7.697315098565246094e-01 6.045374968200872834e-03
4.044271622331342314e+03 7.740229906745299537e-01 4.602158543098033849e-03
4.048315893953675186e+03 7.740573784399640278e-01 3.817229545719833146e-03
4.052364209847629809e+03 7.673478342520132500e-01 5.272053955680719092e-03
4.056416574057479011e+03 7.576152595534785261e-01 5.476133304218465739e-03
4.060472990631537868e+03 7.465017092693219114e-01 5.162610103594424474e-03
4.064533463622170530e+03 7.349728042221460589e-01 4.744189347578059435e-03
4.068597997085794304e+03 7.214856801221203320e-01 4.215960267818234970e-03
4.072666595082881486e+03 7.081892879564559706e-01 4.006312582741436423e-03
4.076739261677965715e+03 6.974223608915365302e-01 4.000394274957044978e-03
4.080816000939644709e+03 6.881762180609841684e-01 3.317629375770877846e-03
4.084896816940585722e+03 6.781630011621974097e-01 2.946883727478628954e-03
4.088981713757527814e+03 6.667127212616622556e-01 3.013403277552398601e-03
4.093070695471286854e+03 6.559183530978741627e-01 3.001980700801529234e-03
4.097163766166759160e+03 6.465617558427965150e-01 2.986657363337088915e-03
4.101260929932927866e+03 6.354877773973005572e-01 2.787466497328849272e-03
4.105362190862862008e+03 6.260886520509991726e-01 2.584610989305069061e-03
4.109467553053726078e+03 6.187494178879450191e-01 2.587504531749289152e-03
4.113577020606780934e+03 6.129007514713408211e-01 2.598000750342535983e-03
4.117690597627389252e+03 6.085071206146771550e-01 3.167808483527988737e-03
4.121808288225018259e+03 6.064491589197644750e-01 3.759044445033402071e-03
4.125930096513244280e+03 6.078574640371556814e-01 3.752249503167325115e-03
4.130056026609759101e+03 6.100859200089293610e-01 2.936956277278010563e-03
4.134186082636369974e+03 6.166836276465210709e-01 3.098900703192318962e-03
4.138320268719007800e+03 6.263057309724463506e-01 4.796793401260825498e-03
4.142458588987728035e+03 6.375027060908773358e-01 6.298105992324731089e-03
4.146601047576717065e+03 6.434496708675139232e-01 6.196890029130754270e-03
4.150747648624294925e+03 6.439095804251467881e-01 5.559313827005237484e-03
4.154898396272920763e+03 6.395130230785092129e-01 5.206500841603100768e-03
4.159053294669195566e+03 6.288728630357706129e-01 6.324176958795945346e-03
4.163212347963865795e+03 6.144537611886429218e-01 6.793849340383404864e-03
4.167375560311830668e+03 5.979543823229460653e-01 6.420631382438177041e-03
4.171542935872143971e+03 5.798813793276222928e-01 5.812864438317103151e-03
4.175714478808017702e+03 5.624106967688236036e-01 5.184524604083150939e-03
4.179890193286827525e+03 5.476108997881399265e-01 4.689380871252390483e-03
4.184070083480115500e+03 5.379385544718655598e-01 5.210777033514071496e-03
4.188254153563597356e+03 5.320874529186393476e-01 5.107755263174664634e-03
4.192442407717161586e+03 5.288492905287770496e-01 4.303045274081328947e-03
4.196634850124880359e+03 5.271712866348577942e-01 5.012163617914035078e-03
4.200831484975006788e+03 5.302308889581315299e-01 5.496425586609213557e-03
4.205032316459983122e+03 5.380317440510955507e-01 5.587953742427652880e-03
4.209237348776444378e+03 5.502772237338849903e-01 4.554452704405510984e-03
4.213446586125221984e+03 5.689665914428138072e-01 4.874759580006518718e-03
4.217660032711349231e+03 5.937942708546957160e-01 6.214183636811733413e-03
4.221877692744061278e+03 6.231591574491335273e-01 6.399548112375642341e-03
4.226099570436806971e+03 6.509929935463065753e-01 5.740134202400444530e-03
4.230325670007245208e+03 6.781162146207209140e-01 6.279794609558734218e-03
4.234555995677254032e+03 7.063660412542726030e-01 7.022368306485391072e-03
4.238790551672932452e+03 7.343452347695484939e-01 7.330709764718689771e-03
4.243029342224606808e+03 7.659136034579298036e-01 7.137805283008032478e-03
4.247272371566832589e+03 7.987314677989412193e-01 7.501941292685426060e-03
4.251519643938400804e+03 8.284247977411315356e-01 7.460905285775425340e-03
4.255771163582340705e+03 8.563103032673036186e-01 7.565666510875318149e-03
4.260026934745924336e+03 8.838348141494699606e-01 7.671862429691362131e-03
4.264286961680671993e+03 9.080977741139690806e-01 6.984318887174030197e-03
4.268551248642354039e+03 9.293502927291358295e-01 6.009452929181605986e-03
4.272819799890998183e+03 9.440332212448241389e-01 5.835522168427661679e-03
4.277092619690890388e+03 9.523438456044470701e-01 5.825675500843654521e-03
4.281369712310583054e+03 9.528829527474164118e-01 5.882847303207675189e-03
4.285651082022895025e+03 9.478955475064152481e-01 5.011975801852764853e-03
4.289936733104918858e+03 9.402129510075273311e-01 4.210191311630554975e-03
4.294226669838025373e+03 9.312277168936973215e-01 4.017235720645018562e-03
4.298520896507864563e+03 9.232232500928083674e-01 3.890735506834058430e-03
4.302819417404373780e+03 9.157194736503254662e-01 3.266454035268489316e-03
4.307122236821779552e+03 9.065881029634558219e-01 3.610555930953848833e-03
4.311429359058603040e+03 8.977462739458527130e-01 3.441034562134312989e-03
4.315740788417662770e+03 8.898592711868710259e-01 3.108398327321797334e-03
4.320056529206081905e+03 8.836052579442681409e-01 3.601663711808084437e-03
4.324376585735290064e+03 8.800521183011895676e-01 4.166557694364796116e-03
4.328700962321026054e+03 8.764658222496116702e-01 3.565126239220521055e-03
4.333029663283348782e+03 8.717583949280287570e-01 3.735919416391261186e-03
4.337362692946633615e+03 8.689118038777697839e-01 3.752954562933738004e-03
4.341700055639581478e+03 8.673207664648973081e-01 3.838534665860358387e-03
4.346041755695222491e+03 8.656105468669185177e-01 3.582383593430811617e-03
4.350387797450919606e+03 8.666971934091689533e-01 3.418588951791795300e-03
4.354738185248371337e+03 8.708205235837205294e-01 3.378542388626446132e-03
4.359092923433621763e+03 8.777636422998615906e-01 3.443781568611100404e-03
4.363452016357056891e+03 8.857327176585209072e-01 3.299428301660941101e-03
4.367815468373414660e+03 8.976558135954468831e-01 3.267161269979335959e-03
4.372183283841789489e+03 9.129609790213508713e-01 3.105392663434257405e-03
4.376555467125633186e+03 9.313183735568131283e-01 2.980175276049607056e-03
4.380932022592760404e+03 9.510826780507061207e-01 2.827851907973167721e-03
4.385312954615354101e+03 9.713229791241094757e-01 2.792461312623982679e-03
4.389698267569970994e+03 9.922885227809908892e-01 2.932540471409686433e-03
4.394087965837542470e+03 1.012610989861942867e+00 2.879785996204857479e-03
4.398482053803381859e+03 1.034054647390090231e+00 3.419321001148409398e-03
4.402880535857186260e+03 1.055247232857003281e+00 2.856770034898858772e-03
4.407283416393044718e+03 1.074630682056585185e+00 2.464580327033584310e-03
4.411690699809440048e+03 1.092462561749449446e+00 2.441587404639267243e-03
4.416102390509250654e+03 1.107819448315932487e+00 2.568280484298238707e-03
4.420518492899761441e+03 1.122562923855045192e+00 2.822782476197982331e-03
4.424939011392662906e+03 1.137425669984342802e+00 2.616140460424758521e-03
4.429363950404056595e+03 1.152396882317163973e+00 2.331832806750192954e-03
4.433793314354462382e+03 1.169629960582807104e+00 1.982074402453929025e-03
4.438227107668818462e+03 1.192216742872584723e+00 2.590984541587867604e-03
4.442665334776488635e+03 1.217718793804747568e+00 3.684918257434567721e-03
4.447108000111265937e+03 1.242989344332879442e+00 3.631443990924338502e-03
4.451555108111379013e+03 1.269236114291189210e+00 3.516479045078799073e-03
4.456006663219492111e+03 1.296331638226760008e+00 3.800482536793657259e-03
4.460462669882713271e+03 1.325363100276331529e+00 4.313722483018956298e-03
4.464923132552597053e+03 1.356020972074150954e+00 4.233107442518203346e-03
4.469388055685150903e+03 1.389818918589670993e+00 4.060173581688968081e-03
4.473857443740837880e+03 1.426059172096798555e+00 4.160563788562277911e-03
4.478331301184580298e+03 1.461987423540626274e+00 4.056528170193162731e-03
4.482809632485766087e+03 1.500379259448486602e+00 4.280149874065674459e-03
4.487292442118253348e+03 1.536699352399691687e+00 4.425706740464006687e-03
4.491779734560373072e+03 1.571670396475619125e+00 5.017071714272817659e-03
4.496271514294934605e+03 1.604083778952815287e+00 4.621771009782265488e-03
4.500767785809231100e+03 1.627930094093295921e+00 4.362868626245830148e-03
4.505268553595042249e+03 1.645908689920509094e+00 4.697959911347963924e-03
4.509773822148638828e+03 1.658478247886601142e+00 4.960102992363799729e-03
4.514283595970789065e+03 1.664251657098975601e+00 4.478953413874663635e-03
4.518797879566761367e+03 1.665343324287622329e+00 3.209393697023859692e-03
4.523316677446328868e+03 1.666471935503043289e+00 2.978750198069112388e-03
4.527839994123776705e+03 1.667789211425430240e+00 3.166198435272482830e-03
4.532367834117902021e+03 1.665560869952670497e+00 3.522843815601176334e-03
4.536900201952022144e+03 1.663841165727299121e+00 3.866474198472772891e-03
4.541437102153975502e+03 1.663564104549891454e+00 3.843781721836437085e-03
4.545978539256130716e+03 1.664516234640212922e+00 3.690608640530797409e-03
4.550524517795388419e+03 1.668784933441896712e+00 4.267843476499670781e-03
4.555075042313184895e+03 1.673629857239291807e+00 4.672779878336117548e-03
4.559630117355500261e+03 1.676395100879835454e+00 4.650590085502605449e-03
4.564189747472856652e+03 1.675790748804160346e+00 4.684689413567208818e-03
4.568753937220330954e+03 1.672454193908806674e+00 4.630258329211530376e-03
4.573322691157552981e+03 1.665215978765760996e+00 4.612506837860520272e-03
4.577896013848711846e+03 1.655480680009173033e+00 3.960262570722280183e-03
4.582473909862562323e+03 1.639304821039865523e+00 3.384773800464195136e-03
4.587056383772426670e+03 1.615092891917802698e+00 3.492505413604256228e-03
4.591643440156200086e+03 1.586724511463532217e+00 3.558408928226139498e-03
4.596235083596357981e+03 1.555654638192678574e+00 3.345847020225057623e-03
