# starting wavelength: 3663.470
# ending wavelength: 7419.350
# wav flux eflux
3.666913987562790226e+03 8.033031924505396049e-01 2.224927172227390490e-02
3.670580901550354156e+03 8.205104857657232742e-01 1.783365272027675683e-02
3.674251482451905758e+03 8.104358076169722036e-01 2.297915546594356956e-02
3.677925733934358959e+03 7.854762168748141704e-01 2.047948918996322920e-02
3.681603659668294313e+03 7.515139580813529063e-01 1.885587558420580290e-02
3.685285263327964003e+03 7.154340216433914268e-01 1.614954396270752365e-02
3.688970548591293209e+03 6.793188873799591576e-01 1.347974580485607372e-02
3.692659519139885560e+03 6.444278174434360240e-01 1.079549646195711830e-02
3.696352178659026777e+03 6.089417886532361157e-01 9.177198626728746284e-03
3.700048530837686940e+03 5.742627696357779365e-01 7.777894627440949497e-03
3.703748579368525952e+03 5.404007703448546751e-01 6.754215004584116985e-03
3.707452327947895355e+03 5.072304468614465822e-01 5.982666366522032542e-03
3.711159780275844696e+03 4.745599805319343223e-01 5.521971357515938379e-03
3.714870940056121526e+03 4.425673289460743121e-01 5.445961229790735950e-03
3.718585810996179134e+03 4.143378273405834422e-01 5.111395272648253281e-03
3.722304396807176545e+03 3.888222813412874346e-01 4.900462611296700285e-03
3.726026701203984885e+03 3.669081996369127907e-01 4.745086178214678180e-03
3.729752727905190113e+03 3.500186043219449816e-01 4.568320152821036921e-03
3.733482480633096657e+03 3.376453664352095929e-01 4.618313812844974248e-03
3.737215963113731050e+03 3.290720151560566631e-01 4.580768157068984374e-03
3.740953179076846027e+03 3.260080867532835214e-01 4.591090698516707945e-03
3.744694132255923705e+03 3.276774215182717276e-01 4.830772284634824061e-03
3.748438826388181042e+03 3.325296187278991566e-01 5.142076099396951372e-03
3.752187265214570289e+03 3.402176448170738943e-01 5.238729301237609638e-03
3.755939452479786269e+03 3.517305674420458383e-01 5.568335741948040110e-03
3.759695391932267285e+03 3.664774536216663381e-01 5.981160622144651023e-03
3.763455087324201031e+03 3.840533590922921570e-01 6.387224815590136599e-03
3.767218542411526414e+03 4.033757378121379800e-01 6.819469107367959020e-03
3.770985760953939007e+03 4.221328596329531058e-01 6.886482671616648774e-03
3.774756746714894234e+03 4.445674788085792750e-01 6.468257927855534418e-03
3.778531503461610555e+03 4.662052279476614491e-01 5.878345492884369701e-03
3.782310034965073100e+03 4.892774150092976670e-01 4.693922598450949932e-03
3.786092345000039586e+03 5.119542192432299244e-01 3.813586629656828732e-03
3.789878437345040766e+03 5.299586660315837028e-01 4.340065112117298673e-03
3.793668315782387253e+03 5.462634033008004764e-01 4.485109564483466191e-03
3.797461984098170888e+03 5.601978901419101264e-01 4.338953953332558289e-03
3.801259446082270188e+03 5.744411732333454257e-01 3.911171033944696625e-03
3.805060705528353537e+03 5.868751454805466450e-01 3.873620139018558312e-03
3.808865766233883278e+03 5.988439033650511112e-01 3.387344452505452411e-03
3.812674632000118436e+03 6.104697405265695487e-01 3.118789388026216910e-03
3.816487306632119726e+03 6.221193703291337807e-01 2.806870716110166329e-03
3.820303793938753188e+03 6.345845493346260469e-01 2.716030135726858492e-03
3.824124097732693372e+03 6.471736802023192459e-01 2.787224525391767457e-03
3.827948221830427428e+03 6.612432163529909923e-01 2.688427453202497843e-03
3.831776170052258749e+03 6.749743975454713940e-01 2.682968396993863549e-03
3.835607946222312421e+03 6.886576067649571309e-01 2.707765742076245069e-03
3.839443554168536139e+03 7.033175233014320460e-01 2.752994873366890020e-03
3.843282997722705659e+03 7.199175369962900195e-01 2.883650173724006723e-03
3.847126280720429804e+03 7.341411791213463545e-01 2.989669325061756946e-03
3.850973407001151372e+03 7.486324960494972203e-01 3.096743046173892292e-03
3.854824380408153957e+03 7.627286143511592398e-01 3.137840655575808296e-03
3.858679204788563311e+03 7.760098401143227242e-01 3.113159657852212700e-03
3.862537883993353262e+03 7.886643473275543048e-01 3.071236887481157765e-03
3.866400421877347981e+03 7.976228386531408754e-01 3.233560293381890736e-03
3.870266822299226533e+03 8.054204964228317554e-01 3.325180081594036711e-03
3.874137089121526969e+03 8.123073794916739754e-01 3.743912537599354204e-03
3.878011226210649966e+03 8.203725198037764565e-01 3.743841551479813561e-03
3.881889237436861549e+03 8.276579243197994540e-01 3.768983452332910333e-03
3.885771126674299921e+03 8.350682372298940948e-01 3.915877746690821053e-03
3.889656897800975457e+03 8.393963629134079119e-01 4.386880734087990168e-03
3.893546554698777527e+03 8.444481894657893672e-01 4.067094345173001557e-03
3.897440101253477678e+03 8.503194897718234779e-01 4.063940042965135183e-03
3.901337541354732366e+03 8.560461901779201632e-01 3.874835009417678094e-03
3.905238878896088409e+03 8.627258347688498974e-01 3.903052976428597002e-03
3.909144117774985716e+03 8.701919385043518362e-01 4.108511525574611196e-03
3.913053261892762293e+03 8.800607949835267396e-01 4.560256248331073098e-03
3.916966315154656058e+03 8.860620114498719557e-01 4.596833733020568545e-03
3.920883281469812118e+03 8.926664592129489595e-01 4.348760891974284490e-03
3.924804164751283224e+03 8.976156564445204600e-01 4.075893575851967376e-03
3.928728968916035683e+03 9.015814665252528393e-01 3.491359745942799585e-03
3.932657697884953450e+03 9.015297553070618086e-01 3.841697105673087288e-03
3.936590355582839493e+03 8.967547716509743916e-01 4.392898625496636372e-03
3.940526945938423523e+03 8.917776126610281739e-01 4.125770490115865385e-03
3.944467472884363360e+03 8.863161928432632397e-01 4.040638352040848771e-03
3.948411940357249023e+03 8.810444322930351957e-01 4.143145843067286976e-03
3.952360352297607733e+03 8.728332679174917175e-01 4.073670248018138734e-03
3.956312712649906643e+03 8.641945059524012152e-01 4.370132498372822707e-03
3.960269025362557841e+03 8.580636379061323815e-01 4.582635050017580189e-03
3.964229294387921527e+03 8.529072488110069905e-01 4.649685677860691813e-03
3.968193523682310570e+03 8.474538231076833572e-01 4.460686151743152063e-03
3.972161717205994591e+03 8.444048495785848596e-01 4.566267100326678111e-03
3.976133878923201792e+03 8.455949953264114693e-01 4.316515136219107977e-03
3.980110012802126221e+03 8.476554701023387706e-01 4.451201055274542004e-03
3.984090122814929600e+03 8.492097632917282590e-01 4.407487566245104488e-03
3.988074212937745870e+03 8.552484607649291082e-01 5.430854597917345560e-03
3.992062287150684824e+03 8.588724226516278870e-01 5.154081612762224235e-03
3.996054349437837118e+03 8.586365635110063677e-01 5.130389989857399996e-03
4.000050403787276082e+03 8.563971540913192237e-01 5.412488099879954155e-03
4.004050454191064546e+03 8.542411215928970014e-01 5.340020957982368789e-03
4.008054504645257111e+03 8.491352486076425565e-01 4.923942360678847628e-03
4.012062559149903791e+03 8.386534085488448476e-01 5.406521106768481279e-03
4.016074621709055009e+03 8.242780605784724157e-01 6.738877021538096715e-03
4.020090696330765240e+03 8.082670748647691195e-01 6.026568218170076131e-03
4.024110787027097558e+03 7.945158816790345302e-01 4.590889429532735676e-03
4.028134897814125907e+03 7.836091147257682188e-01 4.491165661619111148e-03
4.032163032711941469e+03 7.753217343961364971e-01 4.507967125417950208e-03
4.036195195744654484e+03 7.713274631845831175e-01 4.561772487348902949e-03
4.040231390940400615e+03 7.689545507213955133e-01 4.563948177335310462e-03
4.044271622331342314e+03 7.698332576047017817e-01 4.564073541056814891e-03
4.048315893953675186e+03 7.750175053334902309e-01 4.366741551226202209e-03
4.052364209847629809e+03 7.810987797953150569e-01 4.334219501311424930e-03
4.056416574057479011e+03 7.863170469671045826e-01 4.369426816103752324e-03
4.060472990631537868e+03 7.915929395038766581e-01 4.434222893050739078e-03
4.064533463622170530e+03 7.961879025915467034e-01 4.687744486828181699e-03
4.068597997085794304e+03 7.988039379693455677e-01 5.560317854348302558e-03
4.072666595082881486e+03 7.986433901166573035e-01 4.887699458564413561e-03
4.076739261677965715e+03 7.920955985810199662e-01 4.874197420127600495e-03
4.080816000939644709e+03 7.817383155227327629e-01 5.045388086394961974e-03
4.084896816940585722e+03 7.698226034553482533e-01 6.147186965187824426e-03
4.088981713757527814e+03 7.557684856741204715e-01 6.913149114048923460e-03
4.093070695471286854e+03 7.431024667934809091e-01 6.387379430728553839e-03
4.097163766166759160e+03 7.296592017185113965e-01 4.940831186311762588e-03
4.101260929932927866e+03 7.216899571563526461e-01 4.997905714713742585e-03
4.105362190862862008e+03 7.182532599577244881e-01 5.039979215485814942e-03
4.109467553053726078e+03 7.165866569220158411e-01 5.056191851416236803e-03
4.113577020606780934e+03 7.191131240731514218e-01 5.049487491431251668e-03
4.117690597627389252e+03 7.260068062832157887e-01 5.018057648443713034e-03
4.121808288225018259e+03 7.366070098197994298e-01 4.930072290864755645e-03
4.125930096513244280e+03 7.487027942043082973e-01 4.679196149311332445e-03
4.130056026609759101e+03 7.615350828253932836e-01 4.751674605045482468e-03
4.134186082636369974e+03 7.702784031683750365e-01 4.345265209957626870e-03
4.138320268719007800e+03 7.808439575411570965e-01 4.891648064140432725e-03
4.142458588987728035e+03 7.897323733022947323e-01 5.563894343370325880e-03
4.146601047576717065e+03 7.958264528866744181e-01 4.843930118033750072e-03
4.150747648624294925e+03 7.959727078184574145e-01 4.855521338643433403e-03
4.154898396272920763e+03 7.939052178531802451e-01 4.583726004051472472e-03
4.159053294669195566e+03 7.856209790965805739e-01 5.793758220149207439e-03
4.163212347963865795e+03 7.735455319516303385e-01 5.109007506437746385e-03
4.167375560311830668e+03 7.619502400145439225e-01 4.056701982590441534e-03
4.171542935872143971e+03 7.528558256863515652e-01 4.124626904139149126e-03
4.175714478808017702e+03 7.426167413396193018e-01 3.848316352141562501e-03
4.179890193286827525e+03 7.372484034055618585e-01 3.775484412720529585e-03
4.184070083480115500e+03 7.326761614664299982e-01 3.728188126528642933e-03
4.188254153563597356e+03 7.296595397846512565e-01 3.737700981312833126e-03
4.192442407717161586e+03 7.286698354148068990e-01 3.712470643418961606e-03
4.196634850124880359e+03 7.293639999515504346e-01 3.522568008571406832e-03
4.200831484975006788e+03 7.315106725380270403e-01 3.510261216059427924e-03
4.205032316459983122e+03 7.320355404957651357e-01 3.529639845001170811e-03
4.209237348776444378e+03 7.329166919417592352e-01 3.775863136186986997e-03
4.213446586125221984e+03 7.293960427147607728e-01 3.589904455234407127e-03
4.217660032711349231e+03 7.277842150560029921e-01 3.465906607031489679e-03
4.221877692744061278e+03 7.267630571548659990e-01 3.189739907203279976e-03
4.226099570436806971e+03 7.224972362589974217e-01 3.556545961693851222e-03
4.230325670007245208e+03 7.173383440922519450e-01 3.789984216609910712e-03
4.234555995677254032e+03 7.142713061090187887e-01 3.781764025543740693e-03
4.238790551672932452e+03 7.084561496169349271e-01 2.997075603649378400e-03
4.243029342224606808e+03 7.049583849997081986e-01 2.761618436578645603e-03
4.247272371566832589e+03 7.037238371245700952e-01 2.871326117049324226e-03
4.251519643938400804e+03 7.055703573300254883e-01 2.867072153216439993e-03
4.255771163582340705e+03 7.089419017669656986e-01 3.042439265635472900e-03
4.260026934745924336e+03 7.152939755988287907e-01 3.823887757815581760e-03
4.264286961680671993e+03 7.193945471017680893e-01 3.862000151994037130e-03
4.268551248642354039e+03 7.223191979624892234e-01 3.585497188522475832e-03
4.272819799890998183e+03 7.225250309788233682e-01 3.497492814493578534e-03
4.277092619690890388e+03 7.198904530439460547e-01 3.709040471541104594e-03
4.281369712310583054e+03 7.138012281150567517e-01 3.424157054576823685e-03
4.285651082022895025e+03 7.022672323259681049e-01 3.831717091935581219e-03
4.289936733104918858e+03 6.885216136125138497e-01 4.215147449520729485e-03
4.294226669838025373e+03 6.704131974139557748e-01 4.252266667017495262e-03
4.298520896507864563e+03 6.531660739645475111e-01 4.024195787297071662e-03
4.302819417404373780e+03 6.380663386926198610e-01 3.944483337265068668e-03
4.307122236821779552e+03 6.219068668789833332e-01 3.166846989025305301e-03
4.311429359058603040e+03 6.094811160579927112e-01 3.054082256909968623e-03
4.315740788417662770e+03 6.028382460631078743e-01 3.379624975843366960e-03
4.320056529206081905e+03 5.967473091071264779e-01 3.225965867328599475e-03
4.324376585735290064e+03 5.922804373921423116e-01 3.115406475923307092e-03
4.328700962321026054e+03 5.883289274014533721e-01 3.708945505081807925e-03
4.333029663283348782e+03 5.879737565569332913e-01 3.696986998933563234e-03
4.337362692946633615e+03 5.922762388811240175e-01 3.790075562684098922e-03
4.341700055639581478e+03 5.990095286705596767e-01 3.904334512662606567e-03
4.346041755695222491e+03 6.049279471401270980e-01 3.842355280500028576e-03
4.350387797450919606e+03 6.116632134112501840e-01 3.934122523527142611e-03
4.354738185248371337e+03 6.192829342834880180e-01 4.130248790946772046e-03
4.359092923433621763e+03 6.274690226491740352e-01 3.564574821687315452e-03
4.363452016357056891e+03 6.329362939660249099e-01 3.180713823044511394e-03
4.367815468373414660e+03 6.362102983399734457e-01 3.130867478178899106e-03
4.372183283841789489e+03 6.368117986872529057e-01 3.059045688913479902e-03
4.376555467125633186e+03 6.331625090823024271e-01 3.081317138603315974e-03
4.380932022592760404e+03 6.278650444964516408e-01 3.047448485344341883e-03
4.385312954615354101e+03 6.213128406498275025e-01 3.038915759929133181e-03
4.389698267569970994e+03 6.121141480569570748e-01 2.811824299699347465e-03
4.394087965837542470e+03 6.053178361197318891e-01 2.771483915449311341e-03
4.398482053803381859e+03 6.033932082377583273e-01 2.629075009050131986e-03
4.402880535857186260e+03 6.032196687701296689e-01 2.843214182149614994e-03
4.407283416393044718e+03 6.059970688421731921e-01 3.301791803686054440e-03
4.411690699809440048e+03 6.138830529156655835e-01 2.395432811119554625e-03
4.416102390509250654e+03 6.287711393334982635e-01 2.049839489543840276e-03
4.420518492899761441e+03 6.511559393664497764e-01 2.451250406135688752e-03
4.424939011392662906e+03 6.794907306361250843e-01 3.357122944382719739e-03
4.429363950404056595e+03 7.099118305705840459e-01 3.268980004895289358e-03
4.433793314354462382e+03 7.451174343797420940e-01 3.336992579748252006e-03
4.438227107668818462e+03 7.816777009424258349e-01 3.106629406775098922e-03
4.442665334776488635e+03 8.171391165722847738e-01 2.884842189932854042e-03
4.447108000111265937e+03 8.498575539078959684e-01 3.006415467969915552e-03
4.451555108111379013e+03 8.805404334526162335e-01 2.564357341611912117e-03
4.456006663219492111e+03 9.055774313157096689e-01 3.640769871332312588e-03
4.460462669882713271e+03 9.276569569396067028e-01 4.502266413210535660e-03
4.464923132552597053e+03 9.495329931916970390e-01 4.762546017385544707e-03
4.469388055685150903e+03 9.709462192873845598e-01 4.832169541646033455e-03
4.473857443740837880e+03 9.937678932992057845e-01 3.824316347683261869e-03
4.478331301184580298e+03 1.020071702157516746e+00 3.688570763123252046e-03
4.482809632485766087e+03 1.049268206799288672e+00 3.844063496864528681e-03
4.487292442118253348e+03 1.079859225447395765e+00 4.254318404446576912e-03
4.491779734560373072e+03 1.109907157255237697e+00 4.344857198436454480e-03
4.496271514294934605e+03 1.140900933693702157e+00 4.198319908797102512e-03
4.500767785809231100e+03 1.169809190519386588e+00 3.794833136786641102e-03
4.505268553595042249e+03 1.195850313106882723e+00 3.141502107652319360e-03
4.509773822148638828e+03 1.218593070532640210e+00 2.611804106137049358e-03
4.514283595970789065e+03 1.232854663584282084e+00 2.462470186234349580e-03
4.518797879566761367e+03 1.244007270938516374e+00 2.420128746849749702e-03
4.523316677446328868e+03 1.249579433361715175e+00 2.361294446428206361e-03
4.527839994123776705e+03 1.252325371323636638e+00 2.237772692199098239e-03
4.532367834117902021e+03 1.253802830209737706e+00 2.386833195211172844e-03
4.536900201952022144e+03 1.254434135476434120e+00 2.392016084154624089e-03
4.541437102153975502e+03 1.252124497991385699e+00 2.065087182601010006e-03
4.545978539256130716e+03 1.249604381872928549e+00 1.990310816130783523e-03
4.550524517795388419e+03 1.247484200598372839e+00 1.941928112508611035e-03
4.555075042313184895e+03 1.245309053508348196e+00 2.386765784601642664e-03
4.559630117355500261e+03 1.243170152840612941e+00 2.623993036550983406e-03
4.564189747472856652e+03 1.239187936328713491e+00 2.497322049776943588e-03
4.568753937220330954e+03 1.234515403744240736e+00 2.427657369209265323e-03
4.573322691157552981e+03 1.228668023454145386e+00 2.172543065553315250e-03
4.577896013848711846e+03 1.219035954295594193e+00 2.219529951049901625e-03
4.582473909862562323e+03 1.208208637194983615e+00 2.442182240063216041e-03
4.587056383772426670e+03 1.193475902900179575e+00 2.725764910779848987e-03
4.591643440156200086e+03 1.174489579960309227e+00 2.772887732131155102e-03
4.596235083596357981e+03 1.152907809148127516e+00 2.537280262611587688e-03
4.600831318679955984e+03 1.126536872850634641e+00 2.640338337922109885e-03
4.605432149998637215e+03 1.097919128936788002e+00 3.143499941796541047e-03
4.610037582148637739e+03 1.067603621942002201e+00 3.166626580828238880e-03
4.614647619730787483e+03 1.036964684717138985e+00 3.182407226104433298e-03
4.619262267350520233e+03 1.006843986226272580e+00 3.058959596700506264e-03
4.623881529617872729e+03 9.785058704912837912e-01 3.027346914699752777e-03
4.628505411147491941e+03 9.525405315478374657e-01 2.767079709411244138e-03
4.633133916558640522e+03 9.305176466733231511e-01 2.264946909283352058e-03
4.637767050475200449e+03 9.146025914967182979e-01 2.235607212031279819e-03
4.642404817525677572e+03 9.051339445627205604e-01 2.017804224809204450e-03
4.647047222343205249e+03 8.999356976212620207e-01 1.890678266755525892e-03
4.651694269565549803e+03 8.973538256746800279e-01 1.961946808096699801e-03
4.656345963835116891e+03 8.996304668484309541e-01 2.696693296321968705e-03
4.661002309798953320e+03 9.014610377824963106e-01 2.595127580481539162e-03
4.665663312108753416e+03 9.030131833754758697e-01 2.589505896989945620e-03
4.670328975420864481e+03 9.064768738881503474e-01 2.565387760371197565e-03
4.674999304396286789e+03 9.082438064527884602e-01 2.284859078867483486e-03
4.679674303700684504e+03 9.071600251318512331e-01 2.146552109624269220e-03
4.684353978004386590e+03 9.039010996720302504e-01 2.087516581536710044e-03
4.689038331982392265e+03 8.975094096061417837e-01 2.110869429935135697e-03
4.693727370314376458e+03 8.880847295240650308e-01 1.926142778639158620e-03
4.698421097684692540e+03 8.786214274550008252e-01 2.031937861858225565e-03
4.703119518782378691e+03 8.683054667211890232e-01 2.726940869921889044e-03
4.707822638301162442e+03 8.599781223596636437e-01 2.961790250903519484e-03
4.712530460939465229e+03 8.549092934949910072e-01 2.760632974935826357e-03
4.717242991400406027e+03 8.528549683203249243e-01 3.243050469690476108e-03
4.721960234391808626e+03 8.522045036701990650e-01 3.395975488232917932e-03
4.726682194626201635e+03 8.531405001953558109e-01 3.333953845838859200e-03
4.731408876820829391e+03 8.564441594529370594e-01 3.465221596464335054e-03
4.736140285697651962e+03 8.604553012120917943e-01 3.450638170857256090e-03
4.740876425983350600e+03 8.640104733613090948e-01 3.293833633413284414e-03
4.745617302409335934e+03 8.688161910944983690e-01 2.663105974091209416e-03
4.750362919711747054e+03 8.696858732186197871e-01 3.156658563187977277e-03
4.755113282631459697e+03 8.708372504511584511e-01 3.090905461347985550e-03
4.759868395914093526e+03 8.732361844604884515e-01 3.079474539833230214e-03
4.764628264310008490e+03 8.752019503063640515e-01 3.188686801744648140e-03
4.769392892574320285e+03 8.761943752171992283e-01 3.214971064508973311e-03
4.774162285466896719e+03 8.769234366767402200e-01 3.204507545110982930e-03
