# starting wavelength: 3484.880
# ending wavelength: 7294.350
# wav flux eflux
3.488163626992504760e+03 4.889011580601492213e-01 3.059732253864726539e-02
3.491651790619498570e+03 4.935557586337860347e-01 2.245470557083206059e-02
3.495143442410119405e+03 4.950312971874358814e-01 1.740130857171001688e-02
3.498638585852530468e+03 4.914756214139769375e-01 1.340685044962016889e-02
3.502137224438384237e+03 4.853958350951674827e-01 1.088212643540116369e-02
3.505639361662823831e+03 4.786016690566944343e-01 9.823281565284775266e-03
3.509145001024487556e+03 4.731514755008512929e-01 8.709789713542630263e-03
3.512654146025513455e+03 4.694400873340539015e-01 8.093228587923205833e-03
3.516166800171540217e+03 4.665056575910635495e-01 6.764944643109208414e-03
3.519682966971712631e+03 4.656023342923071850e-01 6.222278037849027221e-03
3.523202649938685681e+03 4.646408143806199376e-01 5.544078070621106212e-03
3.526725852588625457e+03 4.640607014170519684e-01 5.033000163099362288e-03
3.530252578441215064e+03 4.645779148445976503e-01 4.668021256721235045e-03
3.533782831019657806e+03 4.657386143043641402e-01 4.395916537251972657e-03
3.537316613850678550e+03 4.677824012043538815e-01 4.243561000962368067e-03
3.540853930464530094e+03 4.699221994921142787e-01 4.105445626113460658e-03
3.544394784394995895e+03 4.721200966317874448e-01 3.993077045952937894e-03
3.547939179179392340e+03 4.743461144207760105e-01 3.915961942780044058e-03
3.551487118358572843e+03 4.774696183819089890e-01 3.894246484520985045e-03
3.555038605476932389e+03 4.797555739919596718e-01 3.898844021269031075e-03
3.558593644082410719e+03 4.828911739842014494e-01 3.777499580379811185e-03
3.562152237726494150e+03 4.847486003853349601e-01 3.499291534968401469e-03
3.565714389964221937e+03 4.849215209645041380e-01 3.666962281131435578e-03
3.569280104354187188e+03 4.857183385209284943e-01 3.593685856162066265e-03
3.572849384458542772e+03 4.846799704129498565e-01 3.666353596728521430e-03
3.576422233843002232e+03 4.825934184195110332e-01 3.287875190850736255e-03
3.579998656076846601e+03 4.799097897900034271e-01 2.860026472665362900e-03
3.583578654732924406e+03 4.776570293300033687e-01 2.878818110442727882e-03
3.587162233387658489e+03 4.739948648363342398e-01 2.865763719970241749e-03
3.590749395621047370e+03 4.705345134299315779e-01 2.978411411230416292e-03
3.594340145016669794e+03 4.686453527959690835e-01 2.986799743165969353e-03
3.597934485161687462e+03 4.654868421997049310e-01 3.127348353264932778e-03
3.601532419646850485e+03 4.622841602541017392e-01 3.286128891394257592e-03
3.605133952066498296e+03 4.601100297784744830e-01 3.404505903214204328e-03
3.608739086018566013e+03 4.588017349063897576e-01 3.524071699719695094e-03
3.612347825104585809e+03 4.591635996481063242e-01 3.563904126327201421e-03
3.615960172929691907e+03 4.599796229629670719e-01 3.739196882944459486e-03
3.619576133102622407e+03 4.604052769418759405e-01 3.771405198794363159e-03
3.623195709235726554e+03 4.616893244606337654e-01 3.919589433444233863e-03
3.626818904944963379e+03 4.634894257805184936e-01 4.020540687165593922e-03
3.630445723849909427e+03 4.654247339679510320e-01 3.999141096132799097e-03
3.634076169573760581e+03 4.673570539498315690e-01 3.889590687996037372e-03
3.637710245743335690e+03 4.696106156709592971e-01 3.835398912478985012e-03
3.641347955989080219e+03 4.713120414390004065e-01 4.064595780469747698e-03
3.644989303945070333e+03 4.718911708326576360e-01 4.333815652398089954e-03
3.648634293249016537e+03 4.730095350658496955e-01 4.691609971897500210e-03
3.652282927542266862e+03 4.761247005620668493e-01 4.637050017694452006e-03
3.655935210469810499e+03 4.797168162662702739e-01 4.617336274316262944e-03
3.659591145680281443e+03 4.851559880762248977e-01 5.250592046069942238e-03
3.663250736825963031e+03 4.896365518291861396e-01 5.611569617303273014e-03
3.666913987562790226e+03 4.938767031597470769e-01 6.037137368509573263e-03
3.670580901550354156e+03 4.950955171070460792e-01 6.179247719449239458e-03
3.674251482451905758e+03 4.963412742531726485e-01 6.471302071658065723e-03
3.677925733934358959e+03 4.932359521686187631e-01 6.528286190880579036e-03
3.681603659668294313e+03 4.887633739045335046e-01 6.635267542462170917e-03
3.685285263327964003e+03 4.839622049356097078e-01 6.343801897587558573e-03
3.688970548591293209e+03 4.751807616834199943e-01 6.003823311101975056e-03
3.692659519139885560e+03 4.642441603983203935e-01 5.884649014656590654e-03
3.696352178659026777e+03 4.512793841197487166e-01 5.911491112914169822e-03
3.700048530837686940e+03 4.349127329675930853e-01 6.100021297865509777e-03
3.703748579368525952e+03 4.166811634191939784e-01 6.098619841138194254e-03
3.707452327947895355e+03 3.962610362870629399e-01 5.992053512418087785e-03
3.711159780275844696e+03 3.758565276125947485e-01 5.421343860333973676e-03
3.714870940056121526e+03 3.547764824647282600e-01 4.438888407087289434e-03
3.718585810996179134e+03 3.352566769302018357e-01 3.833101408100903981e-03
3.722304396807176545e+03 3.200345687698175068e-01 3.765745992634674140e-03
3.726026701203984885e+03 3.100430274264910357e-01 3.951954680737421871e-03
3.729752727905190113e+03 3.061074289133177695e-01 4.028997839025831758e-03
3.733482480633096657e+03 3.077980627957054849e-01 4.106817400171921227e-03
3.737215963113731050e+03 3.148519550948938872e-01 4.074262187484315768e-03
3.740953179076846027e+03 3.287881315788171999e-01 4.559491165734525647e-03
3.744694132255923705e+03 3.473344737594492582e-01 5.343067835120670489e-03
3.748438826388181042e+03 3.659863170905020557e-01 5.584804104015362800e-03
3.752187265214570289e+03 3.889948275454753746e-01 6.616659552629073140e-03
3.755939452479786269e+03 4.136964339154505788e-01 6.766872066557219102e-03
3.759695391932267285e+03 4.412438122739412161e-01 6.181390105926185506e-03
3.763455087324201031e+03 4.654988191626818761e-01 5.843200733155537799e-03
3.767218542411526414e+03 4.883764956432048998e-01 5.047251252845465046e-03
3.770985760953939007e+03 5.080422012909454610e-01 4.349072323801351017e-03
3.774756746714894234e+03 5.220893484423293485e-01 4.156302163130127202e-03
3.778531503461610555e+03 5.311978504959965486e-01 3.967139576874874861e-03
3.782310034965073100e+03 5.328587393394331739e-01 3.880758411377348630e-03
3.786092345000039586e+03 5.285465816154845120e-01 3.584916434181766986e-03
3.789878437345040766e+03 5.186605990440493752e-01 3.439532615890982664e-03
3.793668315782387253e+03 5.054978519805614079e-01 3.940296952661256555e-03
3.797461984098170888e+03 4.896311431545737336e-01 4.363976165294557001e-03
3.801259446082270188e+03 4.760956095469816018e-01 4.324974009185116736e-03
3.805060705528353537e+03 4.637245947055617656e-01 4.352472878472401184e-03
3.808865766233883278e+03 4.521317657845399518e-01 4.253775915247036583e-03
3.812674632000118436e+03 4.427622428185004622e-01 4.425038554134287996e-03
3.816487306632119726e+03 4.355505598047774152e-01 4.462348013922558081e-03
3.820303793938753188e+03 4.343062211903290226e-01 4.212967134562967293e-03
3.824124097732693372e+03 4.359020253894965169e-01 3.845611357403755978e-03
3.827948221830427428e+03 4.439625181251479202e-01 3.971935009621245863e-03
3.831776170052258749e+03 4.582437860747816671e-01 3.958284326527861455e-03
3.835607946222312421e+03 4.793270186379147146e-01 2.962140714691449510e-03
3.839443554168536139e+03 4.984850982809839182e-01 2.892085276772302961e-03
3.843282997722705659e+03 5.193197535333571313e-01 3.085012122964608371e-03
3.847126280720429804e+03 5.396746051486969176e-01 3.578403672419502857e-03
3.850973407001151372e+03 5.582742831924992766e-01 4.269077320989253001e-03
3.854824380408153957e+03 5.724656881717831158e-01 4.128780742138089127e-03
3.858679204788563311e+03 5.814296577397839449e-01 3.849865880782661707e-03
3.862537883993353262e+03 5.868523344161141742e-01 3.546727455369047544e-03
3.866400421877347981e+03 5.857106595585060971e-01 4.499259970005508452e-03
3.870266822299226533e+03 5.788572700163275853e-01 5.832437878928738162e-03
3.874137089121526969e+03 5.690527868707853099e-01 5.791599086470010545e-03
3.878011226210649966e+03 5.601967852080150800e-01 4.632332463767648706e-03
3.881889237436861549e+03 5.554933840927217537e-01 4.432688025778614219e-03
3.885771126674299921e+03 5.529492574253812576e-01 4.660459198771645453e-03
3.889656897800975457e+03 5.527261769444015149e-01 5.032156026516793404e-03
3.893546554698777527e+03 5.530287794888589792e-01 5.204585679150822673e-03
3.897440101253477678e+03 5.546878368259525738e-01 5.355685609239518863e-03
3.901337541354732366e+03 5.571177623886706121e-01 4.426170816854460913e-03
3.905238878896088409e+03 5.583701481135479039e-01 4.279600253558154231e-03
3.909144117774985716e+03 5.588277078392911434e-01 4.294642503843469107e-03
3.913053261892762293e+03 5.578680964016500266e-01 4.272706610402681772e-03
3.916966315154656058e+03 5.529404248933077470e-01 3.607132971046169995e-03
3.920883281469812118e+03 5.491754758113011059e-01 4.843681369884544723e-03
3.924804164751283224e+03 5.428918032078674516e-01 5.582418514667320496e-03
3.928728968916035683e+03 5.344490351074701051e-01 5.326900322555655660e-03
3.932657697884953450e+03 5.225573871366014922e-01 4.935774274704745473e-03
3.936590355582839493e+03 5.083188381428409564e-01 5.638535489879741881e-03
3.940526945938423523e+03 4.922599678491684227e-01 6.992313039795590435e-03
3.944467472884363360e+03 4.776141489696760223e-01 7.217107005559756164e-03
3.948411940357249023e+03 4.666096439051198308e-01 6.294872921397044567e-03
3.952360352297607733e+03 4.612327753379427686e-01 5.554371280771820511e-03
3.956312712649906643e+03 4.623900777391993788e-01 5.576788364692832414e-03
3.960269025362557841e+03 4.694631141733218160e-01 5.635026561113492052e-03
3.964229294387921527e+03 4.835346841765878478e-01 5.602925002744799099e-03
3.968193523682310570e+03 5.047402163898953020e-01 5.321587611123712418e-03
3.972161717205994591e+03 5.310749227363897873e-01 4.306889404377186627e-03
3.976133878923201792e+03 5.588942374554795034e-01 4.359036388001595423e-03
3.980110012802126221e+03 5.893053549165090388e-01 4.353756928359396594e-03
3.984090122814929600e+03 6.212522670124256408e-01 4.426555562753403325e-03
3.988074212937745870e+03 6.523811393045688689e-01 4.635266144663449488e-03
3.992062287150684824e+03 6.807483856503998565e-01 4.615108855985186956e-03
3.996054349437837118e+03 7.107057057913617193e-01 4.944819634028731030e-03
4.000050403787276082e+03 7.348697469721553466e-01 4.329465543481485733e-03
4.004050454191064546e+03 7.542471865047610802e-01 3.925024579106377483e-03
4.008054504645257111e+03 7.679337320994666927e-01 4.343090085817235234e-03
4.012062559149903791e+03 7.760753996987790337e-01 4.376282813643200126e-03
4.016074621709055009e+03 7.790530970199694982e-01 3.919035082557608719e-03
4.020090696330765240e+03 7.775043906575659358e-01 3.529562695566289439e-03
4.024110787027097558e+03 7.724943801773400676e-01 3.408711565955907172e-03
4.028134897814125907e+03 7.652261930132288059e-01 3.406537361281561805e-03
4.032163032711941469e+03 7.558195572659101025e-01 3.781752783238176343e-03
4.036195195744654484e+03 7.453633568388333686e-01 4.535626265509200630e-03
4.040231390940400615e+03 7.377568289690070724e-01 4.505768790728560159e-03
4.044271622331342314e+03 7.333194985854314396e-01 4.653465338798130901e-03
4.048315893953675186e+03 7.285122222676684300e-01 4.702784778058200985e-03
4.052364209847629809e+03 7.236760736112237691e-01 4.660000743434767820e-03
4.056416574057479011e+03 7.199209578325181935e-01 4.667327746435375076e-03
4.060472990631537868e+03 7.179032378583802831e-01 4.678419587700791311e-03
4.064533463622170530e+03 7.171393922074834615e-01 4.569400490199063136e-03
4.068597997085794304e+03 7.166865674247817619e-01 4.326829563391905963e-03
4.072666595082881486e+03 7.172007376842101101e-01 3.434446613445243674e-03
4.076739261677965715e+03 7.143254792750168836e-01 3.761988164785930091e-03
4.080816000939644709e+03 7.105699631244012382e-01 3.598180403394824357e-03
4.084896816940585722e+03 7.061353919257791212e-01 2.819472573294345540e-03
4.088981713757527814e+03 7.043360775066228596e-01 3.179954331586087174e-03
4.093070695471286854e+03 7.038420688987979679e-01 3.846769140488691310e-03
4.097163766166759160e+03 7.030659180604165170e-01 3.628181208780576882e-03
4.101260929932927866e+03 7.010933883307106651e-01 3.647565969293750914e-03
4.105362190862862008e+03 6.994751871403194210e-01 4.146104469732771192e-03
4.109467553053726078e+03 6.976050924456187463e-01 4.419186898131740281e-03
4.113577020606780934e+03 6.965489802725719493e-01 3.647299141704980763e-03
4.117690597627389252e+03 6.993599553835690985e-01 3.573442857219905327e-03
4.121808288225018259e+03 7.047063989579346321e-01 3.699452314822982996e-03
4.125930096513244280e+03 7.108923296404290326e-01 3.751535728090713007e-03
4.130056026609759101e+03 7.183930875486850276e-01 3.831492482258574798e-03
4.134186082636369974e+03 7.264761226679309347e-01 3.972513086822173148e-03
4.138320268719007800e+03 7.348793576614518486e-01 3.952004298936507773e-03
4.142458588987728035e+03 7.422737908091752157e-01 3.528613384775157371e-03
4.146601047576717065e+03 7.467637470519854492e-01 2.967734869590695542e-03
4.150747648624294925e+03 7.471791379930932120e-01 3.362033435960287784e-03
4.154898396272920763e+03 7.439810499809851319e-01 3.606603328571292028e-03
4.159053294669195566e+03 7.387845832095260024e-01 3.195830379306115795e-03
4.163212347963865795e+03 7.323179317022998625e-01 1.935064793625694037e-03
4.167375560311830668e+03 7.291907825867023352e-01 2.310936141613895503e-03
4.171542935872143971e+03 7.266532635726019596e-01 2.338631992428479543e-03
4.175714478808017702e+03 7.238102326345486892e-01 2.209140741431363849e-03
4.179890193286827525e+03 7.196046321633132736e-01 2.406992305347965388e-03
4.184070083480115500e+03 7.171738341630542468e-01 2.387725833785454138e-03
4.188254153563597356e+03 7.155307594451324471e-01 2.376958189895347039e-03
4.192442407717161586e+03 7.155043912960502572e-01 2.418427135242552737e-03
4.196634850124880359e+03 7.157553183527523011e-01 2.350022789073566692e-03
4.200831484975006788e+03 7.165367407901581664e-01 2.337337722839823249e-03
4.205032316459983122e+03 7.164875058479726055e-01 2.341026157436535120e-03
4.209237348776444378e+03 7.174487440834572682e-01 2.225097435686847810e-03
4.213446586125221984e+03 7.195234280801480198e-01 2.683580011767912245e-03
4.217660032711349231e+03 7.222494353677959555e-01 3.290503285880836976e-03
4.221877692744061278e+03 7.233529528072522030e-01 2.800747949430369092e-03
4.226099570436806971e+03 7.221491175547185559e-01 2.779151947453307320e-03
4.230325670007245208e+03 7.188353403092564431e-01 3.274338208427811803e-03
4.234555995677254032e+03 7.149569846112681093e-01 3.667757790539972682e-03
4.238790551672932452e+03 7.113502632915588153e-01 3.525264833935727940e-03
4.243029342224606808e+03 7.088731159446930441e-01 3.004621767553264291e-03
4.247272371566832589e+03 7.095717937365150219e-01 3.176135427413135769e-03
4.251519643938400804e+03 7.111609429702170360e-01 3.489749957269252904e-03
4.255771163582340705e+03 7.126381524299146841e-01 3.567137412892521994e-03
4.260026934745924336e+03 7.139589364914182834e-01 3.665367530623498370e-03
4.264286961680671993e+03 7.164856594890598451e-01 3.449585814519255667e-03
4.268551248642354039e+03 7.172814270566517658e-01 3.271912499692166201e-03
4.272819799890998183e+03 7.181967114291001320e-01 2.938741618091446871e-03
4.277092619690890388e+03 7.159967022807084414e-01 3.600010740066852261e-03
4.281369712310583054e+03 7.137854558121331516e-01 3.693868819181859824e-03
4.285651082022895025e+03 7.106187744462464373e-01 2.716524710762784674e-03
4.289936733104918858e+03 7.086296059791524771e-01 2.967211606665198960e-03
4.294226669838025373e+03 7.077515305481656416e-01 4.073144385086798283e-03
4.298520896507864563e+03 7.061918246630760621e-01 3.721110123193988994e-03
4.302819417404373780e+03 7.021598099982409025e-01 3.336526116072417551e-03
4.307122236821779552e+03 6.964125238347230740e-01 3.473332669281096238e-03
4.311429359058603040e+03 6.892820661439084118e-01 4.404817107221892930e-03
4.315740788417662770e+03 6.824674380748491087e-01 4.715746663869377700e-03
4.320056529206081905e+03 6.769730109716092237e-01 4.488876803972839842e-03
4.324376585735290064e+03 6.741906081635966608e-01 3.936375359490206470e-03
4.328700962321026054e+03 6.751033764430890427e-01 3.845380777860592150e-03
4.333029663283348782e+03 6.793618920269073325e-01 4.249176427499894333e-03
4.337362692946633615e+03 6.855511503801190454e-01 4.415375378950092689e-03
4.341700055639581478e+03 6.951880669261623069e-01 4.426001856198315959e-03
4.346041755695222491e+03 7.062288678929974362e-01 3.553737929740047059e-03
4.350387797450919606e+03 7.157071293900781894e-01 3.177720366105012822e-03
4.354738185248371337e+03 7.253712322816842084e-01 2.727450918346654551e-03
4.359092923433621763e+03 7.312481237762055164e-01 2.950049357269641116e-03
4.363452016357056891e+03 7.362695419965400445e-01 2.501213681659131879e-03
4.367815468373414660e+03 7.414515645272823363e-01 1.900177001360902349e-03
4.372183283841789489e+03 7.469740095833325988e-01 1.944767722548141784e-03
4.376555467125633186e+03 7.535759140950822887e-01 2.186661933338651057e-03
4.380932022592760404e+03 7.588767877104923842e-01 2.050392003998719164e-03
4.385312954615354101e+03 7.637244230078320539e-01 2.058596928081638227e-03
4.389698267569970994e+03 7.679576499753424379e-01 2.768198853662773209e-03
4.394087965837542470e+03 7.722299270956234363e-01 3.079107353394061174e-03
4.398482053803381859e+03 7.787334382455548543e-01 2.966443660194371858e-03
4.402880535857186260e+03 7.856487666035439910e-01 2.800732884869011619e-03
4.407283416393044718e+03 7.936919647200708638e-01 2.976623083547432717e-03
4.411690699809440048e+03 8.025284411753982328e-01 3.313499649816136362e-03
4.416102390509250654e+03 8.111482947318083836e-01 3.441970620440926425e-03
4.420518492899761441e+03 8.181474421745187353e-01 3.391702463724504887e-03
4.424939011392662906e+03 8.245666435532652550e-01 2.785367702768352591e-03
4.429363950404056595e+03 8.286305316000511789e-01 2.313501759770142125e-03
4.433793314354462382e+03 8.291083814517484774e-01 2.395898615005578186e-03
4.438227107668818462e+03 8.271657339927686037e-01 2.909027926252291674e-03
4.442665334776488635e+03 8.227875381504624608e-01 2.656257006905629256e-03
4.447108000111265937e+03 8.183179557739942434e-01 1.960156623090340833e-03
4.451555108111379013e+03 8.149373485057985755e-01 1.565866875153964447e-03
4.456006663219492111e+03 8.141514213296571212e-01 1.197148764313637212e-03
4.460462669882713271e+03 8.169188402508583691e-01 1.193877691775856523e-03
4.464923132552597053e+03 8.224459546436340140e-01 1.214685638401852719e-03
4.469388055685150903e+03 8.312791468608291545e-01 1.210540958917370388e-03
4.473857443740837880e+03 8.422300951214547471e-01 1.170389215044553973e-03
4.478331301184580298e+03 8.558988636634725644e-01 1.677016190846982238e-03
4.482809632485766087e+03 8.720590042282831966e-01 2.054354542351194326e-03
4.487292442118253348e+03 8.876512488843125714e-01 2.222922848911463266e-03
4.491779734560373072e+03 9.019457190973912963e-01 1.878712786207434489e-03
4.496271514294934605e+03 9.145439833879316360e-01 1.555726931389982181e-03
4.500767785809231100e+03 9.236248944898617363e-01 1.309916375414062629e-03
4.505268553595042249e+03 9.289801841249726300e-01 1.512953639771165990e-03
4.509773822148638828e+03 9.311490080736719577e-01 2.088082268981956285e-03
4.514283595970789065e+03 9.317408020244445366e-01 2.136644786686157666e-03
4.518797879566761367e+03 9.298014342536660148e-01 2.143925635087331766e-03
4.523316677446328868e+03 9.264116496912279120e-01 1.674630809433702442e-03
4.527839994123776705e+03 9.245090417913416347e-01 1.450944644079240481e-03
4.532367834117902021e+03 9.232315279941164521e-01 1.464049079299405186e-03
4.536900201952022144e+03 9.222344305473144654e-01 1.440978775958065040e-03
4.541437102153975502e+03 9.233846384359397641e-01 1.379312665241798005e-03
