# starting wavelength: 3505.840
# ending wavelength: 7345.560
# wav flux eflux
3.509145001024487556e+03 5.853870718896314607e-02 6.333519695909585467e-02
3.512654146025513455e+03 4.886511580749490491e-02 5.028091545447455069e-02
3.516166800171540217e+03 5.853651727074025979e-02 5.285379831142472673e-02
3.519682966971712631e+03 6.880153967534398396e-02 4.640127748856628237e-02
3.523202649938685681e+03 7.451362622489568488e-02 4.083144644173018062e-02
3.526725852588625457e+03 7.201122947145816022e-02 3.554327613782735928e-02
3.530252578441215064e+03 6.143401412030408820e-02 3.179730126031705961e-02
3.533782831019657806e+03 4.354731246593473992e-02 2.803621228858874104e-02
3.537316613850678550e+03 2.382212951810092419e-02 2.342631534622980141e-02
3.540853930464530094e+03 4.398039122849448784e-03 2.036688072889485460e-02
3.544394784394995895e+03 -1.325656268393087325e-02 1.810339477855190532e-02
3.547939179179392340e+03 -2.530178511787917889e-02 1.665736021487295576e-02
3.551487118358572843e+03 -2.950866737295462089e-02 1.663834286063522322e-02
3.555038605476932389e+03 -3.048218105335648645e-02 1.660835152841022566e-02
3.558593644082410719e+03 -2.952351658772241552e-02 1.646267388900419029e-02
3.562152237726494150e+03 -2.678756815607111902e-02 1.639868892415783513e-02
3.565714389964221937e+03 -2.243305038567593862e-02 1.654815865591030208e-02
3.569280104354187188e+03 -1.780836870140095271e-02 1.674847472497746625e-02
3.572849384458542772e+03 -1.683605611400246227e-02 1.678670885731319354e-02
3.576422233843002232e+03 -1.559575266083513406e-02 1.724904020892214715e-02
3.579998656076846601e+03 -1.158411120726044949e-02 1.675527752778925919e-02
3.583578654732924406e+03 -6.696739162648620430e-03 1.648870326269716649e-02
3.587162233387658489e+03 -2.569534421678620895e-04 1.624690768195147933e-02
3.590749395621047370e+03 4.010943032165724398e-03 1.656120536594192852e-02
3.594340145016669794e+03 1.231082892157746821e-02 1.703291100840648165e-02
3.597934485161687462e+03 2.149804619355788135e-02 1.687515213210833559e-02
3.601532419646850485e+03 3.138487710505130646e-02 1.681210746411451393e-02
3.605133952066498296e+03 4.062044377998254990e-02 1.684205257160874616e-02
3.608739086018566013e+03 4.561153590445336803e-02 1.663408629253849969e-02
3.612347825104585809e+03 4.685126689706625713e-02 1.588554117693933426e-02
3.615960172929691907e+03 4.264191127087817862e-02 1.553988047868206171e-02
3.619576133102622407e+03 4.167526422815318043e-02 1.566086884319112596e-02
3.623195709235726554e+03 3.926860311694345407e-02 1.571854575016386896e-02
3.626818904944963379e+03 3.576168625924788791e-02 1.571451165103444209e-02
3.630445723849909427e+03 3.379593563087986141e-02 1.587725465225713756e-02
3.634076169573760581e+03 3.434711422619674687e-02 1.448056707458826586e-02
3.637710245743335690e+03 3.314998998178513706e-02 1.415240241449494500e-02
3.641347955989080219e+03 3.123291332831589981e-02 1.417015172843565617e-02
3.644989303945070333e+03 2.906340985771008190e-02 1.444747587827290708e-02
3.648634293249016537e+03 2.631759870567774648e-02 1.478714256677094406e-02
3.652282927542266862e+03 2.232869293509154307e-02 1.484663685055477057e-02
3.655935210469810499e+03 1.869897800555329892e-02 1.435321734130316773e-02
3.659591145680281443e+03 1.496407925479269901e-02 1.307742461420092171e-02
3.663250736825963031e+03 1.479537914555888872e-02 1.250577711815047989e-02
3.666913987562790226e+03 1.373007041767851377e-02 1.119784550113939875e-02
3.670580901550354156e+03 1.691859021770643345e-02 1.121355130000350163e-02
3.674251482451905758e+03 2.360358151786859371e-02 1.119112412960539087e-02
3.677925733934358959e+03 3.672101650041972865e-02 1.116665797410297881e-02
3.681603659668294313e+03 5.513045297598976463e-02 1.072574505151444729e-02
3.685285263327964003e+03 7.921309352627112221e-02 9.569387906576139191e-03
3.688970548591293209e+03 1.075313244744163232e-01 8.725928335750957401e-03
3.692659519139885560e+03 1.313772165043159967e-01 8.889790138417525550e-03
3.696352178659026777e+03 1.551803252642260933e-01 9.068660331648657411e-03
3.700048530837686940e+03 1.790948047006902799e-01 9.013642179841983848e-03
3.703748579368525952e+03 2.005129437498321399e-01 1.008330462613946620e-02
3.707452327947895355e+03 2.105083989861212812e-01 1.018976889522692914e-02
3.711159780275844696e+03 2.207726164627993870e-01 1.029080412863047321e-02
3.714870940056121526e+03 2.236889553665302732e-01 1.000867608711916538e-02
3.718585810996179134e+03 2.212005517163059265e-01 9.960647788274087922e-03
3.722304396807176545e+03 2.126160799203389851e-01 1.067831302980870936e-02
3.726026701203984885e+03 2.019025639938990535e-01 1.103281806215235770e-02
3.729752727905190113e+03 1.870041629010057715e-01 1.153364596482492344e-02
3.733482480633096657e+03 1.709742619538761332e-01 1.193669491730252330e-02
3.737215963113731050e+03 1.487658528419612269e-01 1.197728910823981502e-02
3.740953179076846027e+03 1.239417660779268127e-01 1.109054913421268253e-02
3.744694132255923705e+03 9.549892783007531138e-02 1.024771319071898085e-02
3.748438826388181042e+03 7.268528195762591348e-02 9.569837527357153914e-03
3.752187265214570289e+03 5.085179869665418934e-02 8.769491683717765482e-03
3.755939452479786269e+03 3.482762556816368371e-02 9.496696561264523356e-03
3.759695391932267285e+03 2.131509647708545313e-02 9.686050006263024689e-03
3.763455087324201031e+03 1.207440775655648640e-02 8.507807621155374575e-03
3.767218542411526414e+03 6.827354845338473588e-03 6.951679707875990134e-03
3.770985760953939007e+03 3.381253764285260810e-03 6.401160642278204936e-03
3.774756746714894234e+03 1.804818105111488657e-03 5.902794728541210269e-03
3.778531503461610555e+03 -1.840133753706979514e-03 5.966623760515074419e-03
3.782310034965073100e+03 -7.430700442965197661e-03 5.953372951661857135e-03
3.786092345000039586e+03 -1.492040864735895422e-02 6.051689188695160045e-03
3.789878437345040766e+03 -1.949876495280214450e-02 5.958436670676324487e-03
3.793668315782387253e+03 -2.437054515657861506e-02 5.391141059332987644e-03
3.797461984098170888e+03 -2.614870812762709607e-02 5.482783773715212312e-03
3.801259446082270188e+03 -2.228459533121580211e-02 5.566234311180239328e-03
3.805060705528353537e+03 -1.717448756190161768e-02 5.995989330365585762e-03
3.808865766233883278e+03 -4.663762599531356967e-03 6.290761021147246029e-03
3.812674632000118436e+03 7.940472470240170222e-03 6.012595336444146767e-03
3.816487306632119726e+03 2.867559448169792330e-02 7.665701180378295225e-03
3.820303793938753188e+03 4.990195926567677492e-02 8.736199245454094597e-03
3.824124097732693372e+03 7.459005215295227975e-02 9.984687203495219709e-03
3.827948221830427428e+03 9.788079844534941509e-02 1.028984974410568874e-02
3.831776170052258749e+03 1.178934656868480535e-01 9.842584736979621135e-03
3.835607946222312421e+03 1.301108144256668264e-01 9.326354689097218764e-03
3.839443554168536139e+03 1.360619914294242117e-01 8.779430279311687887e-03
3.843282997722705659e+03 1.329674583508043961e-01 1.085048949176780145e-02
3.847126280720429804e+03 1.323724350531744198e-01 1.138441921977136236e-02
3.850973407001151372e+03 1.196195089761408897e-01 1.229556980562906444e-02
3.854824380408153957e+03 1.046261956625972878e-01 1.081911236074245553e-02
3.858679204788563311e+03 9.156108104077764764e-02 8.540369598322746295e-03
3.862537883993353262e+03 8.727145277509223975e-02 7.874771144416443241e-03
3.866400421877347981e+03 9.038520339289245198e-02 7.730147285175079444e-03
3.870266822299226533e+03 1.026742339071938237e-01 9.051174610782189087e-03
3.874137089121526969e+03 1.239569470918020916e-01 9.167206542140053996e-03
3.878011226210649966e+03 1.453735459864848312e-01 7.717332498020622496e-03
3.881889237436861549e+03 1.696676863660833701e-01 6.830450789949821765e-03
3.885771126674299921e+03 1.971435366558900171e-01 6.874261499251816537e-03
3.889656897800975457e+03 2.209198976088269095e-01 6.871019078699592761e-03
3.893546554698777527e+03 2.437349222292582995e-01 6.464118991392533639e-03
3.897440101253477678e+03 2.707178371786881366e-01 6.881933275450100897e-03
3.901337541354732366e+03 2.906758179850948975e-01 6.671198168673122056e-03
3.905238878896088409e+03 3.087651131966522855e-01 6.741663657259080664e-03
3.909144117774985716e+03 3.235912771554954048e-01 6.659539874164998978e-03
3.913053261892762293e+03 3.376074320709379073e-01 6.152266732066724933e-03
3.916966315154656058e+03 3.465621645064141942e-01 6.224911630652707646e-03
3.920883281469812118e+03 3.507436500211718045e-01 7.741872197825310289e-03
3.924804164751283224e+03 3.537771866797037035e-01 7.289122259724934577e-03
3.928728968916035683e+03 3.583167650973561602e-01 6.970134604692714529e-03
3.932657697884953450e+03 3.619293078308457590e-01 6.538385768353098884e-03
3.936590355582839493e+03 3.687083951009514915e-01 6.420958479240619458e-03
3.940526945938423523e+03 3.761996812440456250e-01 6.425951701891263051e-03
3.944467472884363360e+03 3.875736102389769067e-01 7.333677084825937324e-03
3.948411940357249023e+03 4.008042296427530848e-01 6.275488106351979380e-03
3.952360352297607733e+03 4.117664696127946167e-01 3.801308151362340834e-03
3.956312712649906643e+03 4.151830336594914961e-01 4.983281123756622133e-03
3.960269025362557841e+03 4.181256478293787771e-01 5.134890232361087430e-03
3.964229294387921527e+03 4.197849559932553265e-01 4.959159168882794344e-03
3.968193523682310570e+03 4.188875164926004202e-01 4.433165727880336929e-03
3.972161717205994591e+03 4.204184667416204224e-01 4.382879513553844530e-03
3.976133878923201792e+03 4.220768501661331662e-01 4.160887464418717291e-03
3.980110012802126221e+03 4.247452201115117232e-01 4.301977693066726637e-03
3.984090122814929600e+03 4.322559788731894503e-01 4.243970511694136402e-03
3.988074212937745870e+03 4.458043110648001739e-01 4.079609625270155630e-03
3.992062287150684824e+03 4.613585125454016667e-01 4.018184805205158791e-03
3.996054349437837118e+03 4.793954332424369413e-01 3.853506956531020655e-03
4.000050403787276082e+03 5.031949367303857334e-01 4.153339924749419217e-03
4.004050454191064546e+03 5.253842208665887581e-01 4.207520805789705109e-03
4.008054504645257111e+03 5.459831808344891568e-01 4.440854107851992250e-03
4.012062559149903791e+03 5.702277827685174882e-01 5.071709568805036691e-03
4.016074621709055009e+03 5.968071287293071903e-01 9.156398417890536032e-03
4.020090696330765240e+03 6.154863298461096255e-01 8.923009580261513293e-03
4.024110787027097558e+03 6.248154379757967503e-01 7.916570262221596377e-03
4.028134897814125907e+03 6.219220621526958537e-01 8.248351368841859085e-03
4.032163032711941469e+03 6.093564365261303628e-01 8.962648573158756710e-03
4.036195195744654484e+03 5.927079643338151183e-01 9.366455593753444941e-03
4.040231390940400615e+03 5.715830709874220039e-01 1.003553041999807362e-02
4.044271622331342314e+03 5.471182026483022431e-01 1.119715739247071490e-02
4.048315893953675186e+03 5.287368729988795035e-01 1.063905296906880737e-02
4.052364209847629809e+03 5.178753860367006912e-01 9.760030148475321715e-03
4.056416574057479011e+03 5.123528305491431567e-01 9.179862658096834410e-03
4.060472990631537868e+03 5.165713007537159340e-01 1.119958091655466614e-02
4.064533463622170530e+03 5.247626679600204680e-01 1.190571572059598814e-02
4.068597997085794304e+03 5.341420338486467800e-01 1.107888776421643226e-02
4.072666595082881486e+03 5.408186844095459467e-01 8.879664956347574703e-03
4.076739261677965715e+03 5.434498280090778177e-01 6.561155907441905411e-03
4.080816000939644709e+03 5.344785089087427110e-01 6.678297838804194211e-03
4.084896816940585722e+03 5.156340289964218560e-01 5.702667633376824752e-03
4.088981713757527814e+03 4.923788558760966438e-01 5.734119607835883384e-03
4.093070695471286854e+03 4.631863677089923526e-01 5.482133745462022117e-03
4.097163766166759160e+03 4.234785704955879582e-01 5.902939288767308952e-03
4.101260929932927866e+03 3.808045318801649981e-01 5.872747578071262943e-03
4.105362190862862008e+03 3.351008508302923961e-01 5.496443330281482881e-03
4.109467553053726078e+03 2.918519481728283904e-01 5.451397251614911385e-03
4.113577020606780934e+03 2.509038196801576248e-01 5.168012666927072202e-03
4.117690597627389252e+03 2.085718688671220344e-01 5.943681907502077963e-03
4.121808288225018259e+03 1.673873590959968349e-01 5.371607802246441618e-03
4.125930096513244280e+03 1.353066269371105412e-01 5.158338349023326025e-03
4.130056026609759101e+03 1.090644641476567617e-01 5.291990837843276417e-03
4.134186082636369974e+03 8.935751252160928360e-02 6.380428877709586055e-03
4.138320268719007800e+03 7.668329572477879108e-02 6.238508157583358936e-03
4.142458588987728035e+03 6.477324169561812783e-02 5.345427277567705616e-03
4.146601047576717065e+03 5.380624069382560631e-02 4.908597282013607566e-03
4.150747648624294925e+03 4.220687419698945786e-02 5.675244962711398743e-03
4.154898396272920763e+03 3.462459986462655681e-02 5.608744164272038389e-03
4.159053294669195566e+03 3.036598990956222016e-02 5.499627612728164201e-03
4.163212347963865795e+03 2.718899428628775844e-02 5.623595224113422594e-03
4.167375560311830668e+03 2.805247650269045157e-02 6.474469141346794569e-03
4.171542935872143971e+03 3.411325420288294913e-02 6.136753400510812015e-03
4.175714478808017702e+03 4.542400258017319920e-02 6.250622143352739350e-03
4.179890193286827525e+03 6.208576736341046842e-02 7.639837174209834075e-03
4.184070083480115500e+03 7.988776094621249935e-02 7.943467719212081446e-03
4.188254153563597356e+03 9.823294043336038006e-02 6.679839440096460058e-03
4.192442407717161586e+03 1.141014444365896219e-01 5.982267311711072198e-03
4.196634850124880359e+03 1.248822591951138927e-01 6.936848282852061884e-03
4.200831484975006788e+03 1.349686511194236604e-01 6.824341211954627721e-03
4.205032316459983122e+03 1.465594714631535955e-01 6.761740414463445793e-03
4.209237348776444378e+03 1.545259678182918928e-01 6.297374576690266401e-03
4.213446586125221984e+03 1.648860022667234249e-01 6.694493497231968418e-03
4.217660032711349231e+03 1.731154511399051743e-01 6.683976163845691681e-03
4.221877692744061278e+03 1.777989274155090393e-01 6.656736973966899222e-03
4.226099570436806971e+03 1.811017041349055334e-01 6.669747627007496446e-03
4.230325670007245208e+03 1.834778690231258780e-01 6.720432804958518386e-03
4.234555995677254032e+03 1.890902500143822329e-01 6.436202227254321506e-03
4.238790551672932452e+03 1.962030159019600428e-01 5.979066865464778731e-03
4.243029342224606808e+03 1.980598939327598562e-01 5.856015732583846022e-03
4.247272371566832589e+03 1.967244027209208157e-01 4.793887669447670190e-03
4.251519643938400804e+03 1.974570890579289695e-01 4.449137974198199251e-03
4.255771163582340705e+03 2.006073909686219292e-01 4.643355674130648057e-03
4.260026934745924336e+03 2.044822935945589393e-01 4.227498881991900194e-03
4.264286961680671993e+03 2.089789406486408929e-01 3.817343240920994477e-03
4.268551248642354039e+03 2.125163398531888514e-01 4.078979739912884372e-03
4.272819799890998183e+03 2.160123947985096160e-01 4.027800543972373873e-03
4.277092619690890388e+03 2.191533092995307797e-01 3.641471145533810121e-03
4.281369712310583054e+03 2.230874272050723528e-01 3.957235617249557809e-03
4.285651082022895025e+03 2.266238432936671654e-01 4.017612507579294834e-03
4.289936733104918858e+03 2.287566814426699180e-01 4.088442339553560907e-03
4.294226669838025373e+03 2.324871081678492324e-01 3.177872426829003120e-03
4.298520896507864563e+03 2.321034492358646506e-01 3.964972545204895754e-03
4.302819417404373780e+03 2.304085047775267792e-01 5.007344516243462419e-03
4.307122236821779552e+03 2.302045167482761612e-01 4.818363785174891237e-03
4.311429359058603040e+03 2.303977143237613823e-01 4.203117483619735542e-03
4.315740788417662770e+03 2.336186446318278820e-01 4.714108212748729931e-03
4.320056529206081905e+03 2.376331484983963405e-01 4.858604529464043663e-03
4.324376585735290064e+03 2.398383063906701362e-01 4.816688764977673613e-03
4.328700962321026054e+03 2.432119074550800064e-01 4.784868371721420419e-03
4.333029663283348782e+03 2.477828373641118020e-01 4.552936374347763340e-03
4.337362692946633615e+03 2.532327444512213477e-01 4.227255314250335030e-03
4.341700055639581478e+03 2.573286021229391762e-01 4.268258617184952919e-03
4.346041755695222491e+03 2.617842033543480440e-01 4.296680881320874557e-03
4.350387797450919606e+03 2.630399679619717657e-01 3.982500536340164050e-03
4.354738185248371337e+03 2.649524755621321948e-01 4.405082940131291661e-03
4.359092923433621763e+03 2.650541280838855096e-01 4.484125749949285228e-03
4.363452016357056891e+03 2.631242187738748739e-01 4.412683662559958864e-03
4.367815468373414660e+03 2.604814660247532498e-01 4.347094625456499224e-03
4.372183283841789489e+03 2.580991655922760808e-01 4.108274689882754523e-03
4.376555467125633186e+03 2.546151843651510704e-01 4.622049101190571149e-03
4.380932022592760404e+03 2.489266757672043973e-01 4.693542976184384395e-03
4.385312954615354101e+03 2.452955435413801677e-01 3.599328129055519038e-03
4.389698267569970994e+03 2.465078632259614100e-01 3.297347663566205841e-03
4.394087965837542470e+03 2.505411629067028634e-01 3.494242623750846381e-03
4.398482053803381859e+03 2.594206829807227388e-01 4.071321243221539404e-03
4.402880535857186260e+03 2.685241284328409028e-01 3.838009351980847979e-03
4.407283416393044718e+03 2.777741045839662304e-01 3.561129764139967131e-03
4.411690699809440048e+03 2.877497777951401048e-01 2.813664487870018698e-03
4.416102390509250654e+03 2.952463384642696753e-01 2.841036514015452940e-03
4.420518492899761441e+03 3.015584497745391057e-01 2.923282216031905176e-03
4.424939011392662906e+03 3.061151570759986229e-01 2.749997896288829732e-03
4.429363950404056595e+03 3.099448857815598757e-01 2.675158069076968934e-03
4.433793314354462382e+03 3.117709024299762377e-01 2.143682353315447264e-03
4.438227107668818462e+03 3.157482347473336559e-01 2.515233973541874252e-03
4.442665334776488635e+03 3.181851463470607988e-01 2.602821473364182875e-03
4.447108000111265937e+03 3.198711184069953362e-01 2.579417070481242451e-03
4.451555108111379013e+03 3.220973004920856253e-01 2.478013947519935607e-03
4.456006663219492111e+03 3.249927498552183103e-01 2.934342434262670468e-03
4.460462669882713271e+03 3.288799235558417799e-01 3.133106461303874959e-03
4.464923132552597053e+03 3.351400664818759423e-01 2.713947491431330065e-03
4.469388055685150903e+03 3.451814781806029631e-01 2.129378122303988898e-03
4.473857443740837880e+03 3.599842431399085663e-01 2.022233946599649376e-03
4.478331301184580298e+03 3.805890412165825465e-01 1.920366034055222141e-03
4.482809632485766087e+03 4.071020081897591680e-01 2.011065874007835104e-03
4.487292442118253348e+03 4.385681955843480084e-01 2.685875268935030390e-03
4.491779734560373072e+03 4.729794335315062326e-01 2.467412451374834635e-03
4.496271514294934605e+03 5.107526700884186255e-01 2.150832641286149708e-03
4.500767785809231100e+03 5.507141969555443550e-01 2.110471178711414639e-03
4.505268553595042249e+03 5.925891496821732440e-01 2.193287231129068069e-03
4.509773822148638828e+03 6.342196182986281627e-01 2.244393061884928948e-03
4.514283595970789065e+03 6.744463478684836755e-01 2.452703404287744863e-03
4.518797879566761367e+03 7.118410456943289333e-01 2.436400305090613387e-03
4.523316677446328868e+03 7.482348086237996521e-01 2.218287106765986887e-03
4.527839994123776705e+03 7.811126024497262454e-01 2.072931355850172325e-03
4.532367834117902021e+03 8.099791370101816490e-01 2.546377918814943242e-03
4.536900201952022144e+03 8.361398521787010152e-01 2.640920823512171809e-03
4.541437102153975502e+03 8.597818218035737647e-01 2.518291680818250059e-03
4.545978539256130716e+03 8.813735339870666374e-01 2.677686110742268956e-03
4.550524517795388419e+03 9.021776590351345826e-01 2.671906091317547641e-03
4.555075042313184895e+03 9.228156315726820935e-01 2.374498186878538312e-03
4.559630117355500261e+03 9.428750995790032841e-01 1.733457502910851081e-03
4.564189747472856652e+03 9.659650112096274110e-01 3.069267187099585913e-03
4.568753937220330954e+03 9.883613429678989037e-01 3.758487996024835985e-03
