# starting wavelength: 3590.960
# ending wavelength: 8240.360
# wav flux eflux
3.594340145016669794e+03 1.022292890042586722e+00 4.946644497444438113e-03
3.597934485161687462e+03 1.020493639197473712e+00 5.774997637977406610e-03
3.601532419646850485e+03 1.013642539744374682e+00 6.706236996452674681e-03
3.605133952066498296e+03 1.005243029140842737e+00 5.745785918734079047e-03
3.608739086018566013e+03 9.965590894433036251e-01 4.840807750444211036e-03
3.612347825104585809e+03 9.890688301707480923e-01 3.782539045368511158e-03
3.615960172929691907e+03 9.816692387732774971e-01 3.014696027214396404e-03
3.619576133102622407e+03 9.744655364905879802e-01 2.499773775305882267e-03
3.623195709235726554e+03 9.678675958602378504e-01 2.130646334393129001e-03
3.626818904944963379e+03 9.618474428988628144e-01 1.781547501597971570e-03
3.630445723849909427e+03 9.566767450803703721e-01 1.705220861647925665e-03
3.634076169573760581e+03 9.521444576498467871e-01 1.601534797795058042e-03
3.637710245743335690e+03 9.476390941573389348e-01 1.458572620768562849e-03
3.641347955989080219e+03 9.435002177342080021e-01 1.350608626888862322e-03
3.644989303945070333e+03 9.397374216243300493e-01 1.268635597729587342e-03
3.648634293249016537e+03 9.362317795839703027e-01 1.213782815528479872e-03
3.652282927542266862e+03 9.330985723290597944e-01 1.176503323015359870e-03
3.655935210469810499e+03 9.305891590776974587e-01 1.136048445882358341e-03
3.659591145680281443e+03 9.283838843495503257e-01 1.139181556701308277e-03
3.663250736825963031e+03 9.266903132764809925e-01 1.184456747225015767e-03
3.666913987562790226e+03 9.249881794129416468e-01 1.507435802134941480e-03
3.670580901550354156e+03 9.239706728015314452e-01 1.700309814204279844e-03
3.674251482451905758e+03 9.243162354102628653e-01 1.709023946474334072e-03
3.677925733934358959e+03 9.249859378615671313e-01 1.640882240097701894e-03
3.681603659668294313e+03 9.267136661750102755e-01 1.625051380370864116e-03
3.685285263327964003e+03 9.289783412093541859e-01 1.691005006873693870e-03
3.688970548591293209e+03 9.318312275409710299e-01 1.889045344109721190e-03
3.692659519139885560e+03 9.349878560290563190e-01 2.062267798962790898e-03
3.696352178659026777e+03 9.390414937942136442e-01 2.200095553472645755e-03
3.700048530837686940e+03 9.430400333452274575e-01 2.189341803078689950e-03
3.703748579368525952e+03 9.471661562630145914e-01 2.139736238005815732e-03
3.707452327947895355e+03 9.514723292394345888e-01 2.046810430849502378e-03
3.711159780275844696e+03 9.552688781578702049e-01 2.021880645414886671e-03
3.714870940056121526e+03 9.588675726105074792e-01 2.035039109338394013e-03
3.718585810996179134e+03 9.622603591464854444e-01 2.051526834746243613e-03
3.722304396807176545e+03 9.655138830409922823e-01 2.124445376631191925e-03
3.726026701203984885e+03 9.684610129445290205e-01 2.127764730386168951e-03
3.729752727905190113e+03 9.711325737939346947e-01 2.129185916206425416e-03
3.733482480633096657e+03 9.736066847364279742e-01 2.111499023741700634e-03
3.737215963113731050e+03 9.752739268424509556e-01 2.114099781143203866e-03
3.740953179076846027e+03 9.756318781669519602e-01 1.947519540372828501e-03
3.744694132255923705e+03 9.766177773693339725e-01 1.799785692280169097e-03
3.748438826388181042e+03 9.778738784137729345e-01 1.787599159333501863e-03
3.752187265214570289e+03 9.790375574791084778e-01 1.819722790938905479e-03
3.755939452479786269e+03 9.801548030399220846e-01 1.823324434178293443e-03
3.759695391932267285e+03 9.808788608885270488e-01 1.813565064361011368e-03
3.763455087324201031e+03 9.813766500935983128e-01 1.809954966037507921e-03
3.767218542411526414e+03 9.824572570933159943e-01 1.801696961300443744e-03
3.770985760953939007e+03 9.833166616716038089e-01 1.769242752574228276e-03
3.774756746714894234e+03 9.840783908866101992e-01 1.670539391163505197e-03
3.778531503461610555e+03 9.847118592553332217e-01 1.592135208121641179e-03
3.782310034965073100e+03 9.848266098846737426e-01 1.777284158882876976e-03
3.786092345000039586e+03 9.840083779900522520e-01 1.849223450780734671e-03
3.789878437345040766e+03 9.832329877079157843e-01 1.338570602694075500e-03
3.793668315782387253e+03 9.833883877440314780e-01 1.090411652182383517e-03
3.797461984098170888e+03 9.844071353256126367e-01 1.211261490508397289e-03
3.801259446082270188e+03 9.857988744618053634e-01 1.258029974413736683e-03
3.805060705528353537e+03 9.873625819247157098e-01 1.267851900645279454e-03
3.808865766233883278e+03 9.893982660558914288e-01 1.258627210341651008e-03
3.812674632000118436e+03 9.914796088429344012e-01 1.384133573914274893e-03
3.816487306632119726e+03 9.945015811624371427e-01 1.450157667044526481e-03
3.820303793938753188e+03 9.977765707506156545e-01 1.520296463712531672e-03
3.824124097732693372e+03 1.001881639101410704e+00 1.548342370705710997e-03
3.827948221830427428e+03 1.006679573802126804e+00 1.610891874120445877e-03
3.831776170052258749e+03 1.011163706344700319e+00 1.595567333971407596e-03
3.835607946222312421e+03 1.016415898154513497e+00 1.696965924330995140e-03
3.839443554168536139e+03 1.022111581723367024e+00 1.704154572974704400e-03
3.843282997722705659e+03 1.027924365504004012e+00 1.697115801495304496e-03
3.847126280720429804e+03 1.034431798383967038e+00 1.751516165034981828e-03
3.850973407001151372e+03 1.040668290337094959e+00 1.809754911311695384e-03
3.854824380408153957e+03 1.046903466988317044e+00 1.991657991228658591e-03
3.858679204788563311e+03 1.052952354088038556e+00 2.062362376010855574e-03
3.862537883993353262e+03 1.058803331870366904e+00 2.110695366573722871e-03
3.866400421877347981e+03 1.063280814907113347e+00 2.110240636843246746e-03
3.870266822299226533e+03 1.067211879658455764e+00 2.099489906634606322e-03
3.874137089121526969e+03 1.069826073470676375e+00 2.028001756782481062e-03
3.878011226210649966e+03 1.072309253598256795e+00 1.627307362718170749e-03
3.881889237436861549e+03 1.071657927337136273e+00 1.730329151107595689e-03
3.885771126674299921e+03 1.069155613876854760e+00 1.861395119742121013e-03
3.889656897800975457e+03 1.064838910978269881e+00 1.765079221358867344e-03
3.893546554698777527e+03 1.060584166052024324e+00 1.624673858889440345e-03
3.897440101253477678e+03 1.056100248611052672e+00 1.530792449005291501e-03
3.901337541354732366e+03 1.052259574699378364e+00 1.488607279683524685e-03
3.905238878896088409e+03 1.048824828423203570e+00 1.445539506047094445e-03
3.909144117774985716e+03 1.045962597693652185e+00 1.360667152732027629e-03
3.913053261892762293e+03 1.043790604152389445e+00 1.343077326337926113e-03
3.916966315154656058e+03 1.042527868686934811e+00 1.244648499314410239e-03
3.920883281469812118e+03 1.042174703387422685e+00 1.067071620543600828e-03
3.924804164751283224e+03 1.044338895963678349e+00 1.089546226715306298e-03
3.928728968916035683e+03 1.049056768067459400e+00 9.232483984756963353e-04
3.932657697884953450e+03 1.054694312546976542e+00 9.244715833958980569e-04
3.936590355582839493e+03 1.061494016055747780e+00 8.903736069566014827e-04
3.940526945938423523e+03 1.069962013292960146e+00 8.774272422443641761e-04
3.944467472884363360e+03 1.079773770126410293e+00 8.910016620281146094e-04
3.948411940357249023e+03 1.091357485381591275e+00 1.205796465011958274e-03
3.952360352297607733e+03 1.103491778493507214e+00 1.546667773069579756e-03
3.956312712649906643e+03 1.115662884355803630e+00 1.644170301699809803e-03
3.960269025362557841e+03 1.126992227529893587e+00 1.701565272307818373e-03
3.964229294387921527e+03 1.138924668512250049e+00 1.813186688260558840e-03
3.968193523682310570e+03 1.149398793902556948e+00 1.748053810315815595e-03
3.972161717205994591e+03 1.158349329294822816e+00 1.367833082343427372e-03
3.976133878923201792e+03 1.164249250555536186e+00 1.298553641604816618e-03
3.980110012802126221e+03 1.167161647829462190e+00 1.734516964654239917e-03
3.984090122814929600e+03 1.168310046377985856e+00 1.741449805819795605e-03
3.988074212937745870e+03 1.168237172042740024e+00 1.664334486884580348e-03
3.992062287150684824e+03 1.167130984346483880e+00 1.414008477923930050e-03
3.996054349437837118e+03 1.165171694859680862e+00 1.310680547116842981e-03
4.000050403787276082e+03 1.162027561607632986e+00 1.492599250361864322e-03
4.004050454191064546e+03 1.159973938855513254e+00 1.556953842493982590e-03
4.008054504645257111e+03 1.158166913409482301e+00 1.520047970697824486e-03
4.012062559149903791e+03 1.156882681118959422e+00 1.497889107061873334e-03
4.016074621709055009e+03 1.157484669388309184e+00 1.564429900818499215e-03
4.020090696330765240e+03 1.160253076512798742e+00 1.553633770339490124e-03
4.024110787027097558e+03 1.164387446764808764e+00 1.518612238191086343e-03
4.028134897814125907e+03 1.169778265096056202e+00 1.494282412021542524e-03
4.032163032711941469e+03 1.176765763327732861e+00 1.435076851587015288e-03
4.036195195744654484e+03 1.186463131168198792e+00 1.869247471339318799e-03
4.040231390940400615e+03 1.197202158057574017e+00 2.513025002232571661e-03
4.044271622331342314e+03 1.207678740802859974e+00 3.003790169971529145e-03
4.048315893953675186e+03 1.217547539152355141e+00 2.706788261128043570e-03
4.052364209847629809e+03 1.224919530559498204e+00 2.282990361507512660e-03
4.056416574057479011e+03 1.229389348063577359e+00 2.096155393784784014e-03
4.060472990631537868e+03 1.230785394825686829e+00 2.359861054654977149e-03
4.064533463622170530e+03 1.228755323466426352e+00 2.554810966268454813e-03
4.068597997085794304e+03 1.224960442820458795e+00 2.650197834978565425e-03
4.072666595082881486e+03 1.220073424382322358e+00 2.573518054706759421e-03
4.076739261677965715e+03 1.214978924521958215e+00 2.868087167514870965e-03
4.080816000939644709e+03 1.210751427606369335e+00 2.815114684584120366e-03
4.084896816940585722e+03 1.207824389818182853e+00 2.112456493518806086e-03
4.088981713757527814e+03 1.209217933369336251e+00 2.307555426404295749e-03
4.093070695471286854e+03 1.212905177435296578e+00 2.780507871932870294e-03
4.097163766166759160e+03 1.218569578000971765e+00 2.829566496278053747e-03
4.101260929932927866e+03 1.227759744992730440e+00 2.764873859766626973e-03
4.105362190862862008e+03 1.236185015690856481e+00 2.547372876320768992e-03
4.109467553053726078e+03 1.241704794376715659e+00 2.402639748715470949e-03
4.113577020606780934e+03 1.244269465544898701e+00 2.320724993967046828e-03
4.117690597627389252e+03 1.245066104336108204e+00 2.245565422955968574e-03
4.121808288225018259e+03 1.243866787368431259e+00 2.300869839467782705e-03
4.125930096513244280e+03 1.241212554118160671e+00 2.299578865154826724e-03
4.130056026609759101e+03 1.236602617074805677e+00 2.296346495406875136e-03
4.134186082636369974e+03 1.229672047670025581e+00 2.064221027830421759e-03
4.138320268719007800e+03 1.222593672675635235e+00 1.790531924748868129e-03
4.142458588987728035e+03 1.217448381765486642e+00 1.596810968276403441e-03
4.146601047576717065e+03 1.214506106976641409e+00 1.539835999483109806e-03
4.150747648624294925e+03 1.213817795104792818e+00 1.517322395574537738e-03
4.154898396272920763e+03 1.214366395833626378e+00 1.603549672908480142e-03
4.159053294669195566e+03 1.216160617679459710e+00 1.684202154501547284e-03
4.163212347963865795e+03 1.218849781401602161e+00 1.903932840377959169e-03
4.167375560311830668e+03 1.222242848527902215e+00 1.936826702598212465e-03
4.171542935872143971e+03 1.224177700810078706e+00 1.865841506941782633e-03
4.175714478808017702e+03 1.223221007185745446e+00 1.858285398011697053e-03
4.179890193286827525e+03 1.221421615152684215e+00 1.462810161101661460e-03
4.184070083480115500e+03 1.217286836721813481e+00 1.360408603663095439e-03
4.188254153563597356e+03 1.210454361575878712e+00 1.605347086850223001e-03
4.192442407717161586e+03 1.201512043161143017e+00 1.646230059771610016e-03
4.196634850124880359e+03 1.191256867795848828e+00 1.258850621167434489e-03
4.200831484975006788e+03 1.180999888033796852e+00 7.637648076730032404e-04
4.205032316459983122e+03 1.171636178051920441e+00 7.736262348452406078e-04
4.209237348776444378e+03 1.162723798478634274e+00 8.493729921350381181e-04
4.213446586125221984e+03 1.154556124142219087e+00 1.010006843014091835e-03
4.217660032711349231e+03 1.147934646797720948e+00 1.111175219734028335e-03
4.221877692744061278e+03 1.143836090399186656e+00 1.104722095346381871e-03
4.226099570436806971e+03 1.141733608226396690e+00 1.101106808224023214e-03
4.230325670007245208e+03 1.141546084360246072e+00 1.199790929972860279e-03
4.234555995677254032e+03 1.142951982085603335e+00 1.584451390278861704e-03
4.238790551672932452e+03 1.144385512845010888e+00 1.678151734385460335e-03
4.243029342224606808e+03 1.146633856906092985e+00 1.877961616455369213e-03
4.247272371566832589e+03 1.148678877190414394e+00 1.785795955141478240e-03
4.251519643938400804e+03 1.149173193046628016e+00 1.481954585904999384e-03
4.255771163582340705e+03 1.146316503383248309e+00 1.726344038435823200e-03
4.260026934745924336e+03 1.141736956631025590e+00 2.086357938148799586e-03
4.264286961680671993e+03 1.135659886199913871e+00 2.195420731908065415e-03
4.268551248642354039e+03 1.127515283002308077e+00 2.196949951181398960e-03
4.272819799890998183e+03 1.118593189807377097e+00 1.842129241339996891e-03
4.277092619690890388e+03 1.109686848296169925e+00 1.387598994807322543e-03
4.281369712310583054e+03 1.102111728270443791e+00 1.868405237034672555e-03
4.285651082022895025e+03 1.094885320315168054e+00 2.389274844658027374e-03
4.289936733104918858e+03 1.086340706721195648e+00 2.383132966756274038e-03
4.294226669838025373e+03 1.076930427839597915e+00 2.255685038636162740e-03
4.298520896507864563e+03 1.066633461862430687e+00 2.161471082576884879e-03
4.302819417404373780e+03 1.055640733245661878e+00 2.041756785209756196e-03
4.307122236821779552e+03 1.043225104070865550e+00 2.137461533967467252e-03
4.311429359058603040e+03 1.029583772195754143e+00 2.846146940473178420e-03
4.315740788417662770e+03 1.016838777594748278e+00 2.965242559076388795e-03
4.320056529206081905e+03 1.005129487724728987e+00 2.227142326753240014e-03
4.324376585735290064e+03 9.967455670516628397e-01 1.932529120015762190e-03
4.328700962321026054e+03 9.920989140541744966e-01 1.976813798279377938e-03
4.333029663283348782e+03 9.916378046400368129e-01 2.100327353847602184e-03
4.337362692946633615e+03 9.926809226515630469e-01 2.176446691017408074e-03
4.341700055639581478e+03 9.979352006279526011e-01 2.201791152820781021e-03
4.346041755695222491e+03 1.007496737011709609e+00 2.061459845462529274e-03
4.350387797450919606e+03 1.018459757980983316e+00 2.213078160596119136e-03
4.354738185248371337e+03 1.030046495759556757e+00 2.193784077172890312e-03
4.359092923433621763e+03 1.042179161866337633e+00 2.169908861690932923e-03
4.363452016357056891e+03 1.055308744409476418e+00 1.952915583188673948e-03
4.367815468373414660e+03 1.067454611746622817e+00 1.693544487523748537e-03
4.372183283841789489e+03 1.077720726241889304e+00 1.666428485940138352e-03
4.376555467125633186e+03 1.086839645251514774e+00 1.736786243663168347e-03
4.380932022592760404e+03 1.094111617118909363e+00 1.703742197738262673e-03
4.385312954615354101e+03 1.098400050187493093e+00 1.632943511851193789e-03
4.389698267569970994e+03 1.099789152784174329e+00 1.959217801587110567e-03
4.394087965837542470e+03 1.098929345695386584e+00 1.687334376445642423e-03
4.398482053803381859e+03 1.098024359040975728e+00 1.554183679813392425e-03
4.402880535857186260e+03 1.096325548104795322e+00 1.538346810353992573e-03
4.407283416393044718e+03 1.093654876519480013e+00 1.556214324572186827e-03
4.411690699809440048e+03 1.091245047190498862e+00 1.594625919178507736e-03
4.416102390509250654e+03 1.089724177315448461e+00 1.611786712241534015e-03
4.420518492899761441e+03 1.088160125316477433e+00 1.468215422733799933e-03
4.424939011392662906e+03 1.088235838710043257e+00 1.326728160201678637e-03
4.429363950404056595e+03 1.090740468927311690e+00 1.321948173662209052e-03
4.433793314354462382e+03 1.095175375016193442e+00 1.318208460341794164e-03
4.438227107668818462e+03 1.100937718969845047e+00 1.321806207241724455e-03
4.442665334776488635e+03 1.108358282330594857e+00 1.373821552844291076e-03
4.447108000111265937e+03 1.116912961219655553e+00 1.436204915710057647e-03
4.451555108111379013e+03 1.125732394464783903e+00 1.496692252439295583e-03
4.456006663219492111e+03 1.135009352106707503e+00 1.551536515808032849e-03
4.460462669882713271e+03 1.144942190073195754e+00 1.399050212085552235e-03
4.464923132552597053e+03 1.153250572771894911e+00 1.005555269046238187e-03
4.469388055685150903e+03 1.159395400089509254e+00 1.298585204229801577e-03
4.473857443740837880e+03 1.164063952879173636e+00 1.207157487442261619e-03
4.478331301184580298e+03 1.167776816697460696e+00 1.012813444385362270e-03
4.482809632485766087e+03 1.171330198214824314e+00 1.058625207165923192e-03
4.487292442118253348e+03 1.173478692049127581e+00 1.065800944555347126e-03
4.491779734560373072e+03 1.173894931281195708e+00 1.015466086143265289e-03
4.496271514294934605e+03 1.173776918212014353e+00 1.185717559265997423e-03
4.500767785809231100e+03 1.172317436533306445e+00 1.201958279228301871e-03
4.505268553595042249e+03 1.169149345655373207e+00 1.167527859355326717e-03
4.509773822148638828e+03 1.164803681781082734e+00 1.153674395668916833e-03
4.514283595970789065e+03 1.159312073049232561e+00 1.291329097574342400e-03
4.518797879566761367e+03 1.152895998564804403e+00 1.645237463194171518e-03
4.523316677446328868e+03 1.146743807273787663e+00 1.538455302983314857e-03
4.527839994123776705e+03 1.140751771927306368e+00 1.424555431105292832e-03
4.532367834117902021e+03 1.135632789304823032e+00 1.266722190369466141e-03
4.536900201952022144e+03 1.131500161782947877e+00 1.158583533119608060e-03
4.541437102153975502e+03 1.128980101444039486e+00 1.157709780609259128e-03
4.545978539256130716e+03 1.128782962781185173e+00 9.237354853399143808e-04
4.550524517795388419e+03 1.128767496626430056e+00 9.633797266928829451e-04
4.555075042313184895e+03 1.130249450502646580e+00 1.034006407027610258e-03
4.559630117355500261e+03 1.132693428439006444e+00 1.154455368943550385e-03
4.564189747472856652e+03 1.135129211503624447e+00 1.137783417226603160e-03
4.568753937220330954e+03 1.137854140952985649e+00 1.229747149013302567e-03
4.573322691157552981e+03 1.139290085210050485e+00 1.261021545979221009e-03
4.577896013848711846e+03 1.139549923104986373e+00 1.282600383405933147e-03
4.582473909862562323e+03 1.139308424950360665e+00 1.120943891202864440e-03
4.587056383772426670e+03 1.137069175112397357e+00 1.206432831060212955e-03
4.591643440156200086e+03 1.133229135876323568e+00 1.695071646004143225e-03
4.596235083596357981e+03 1.128833735600770938e+00 1.953631368358393211e-03
4.600831318679955984e+03 1.124163911819537232e+00 1.767745980258527815e-03
4.605432149998637215e+03 1.119392189239927005e+00 1.329004713094078527e-03
4.610037582148637739e+03 1.115938981954510023e+00 1.593491745258373725e-03
4.614647619730787483e+03 1.112230250299488521e+00 1.662955968701945730e-03
4.619262267350520233e+03 1.109129891919651945e+00 1.592150317267110012e-03
4.623881529617872729e+03 1.105880911593291271e+00 1.572121186986095770e-03
4.628505411147491941e+03 1.102847478814584115e+00 1.602993232673685046e-03
4.633133916558640522e+03 1.100377333332477336e+00 1.569477809969281211e-03
4.637767050475200449e+03 1.097506504930626070e+00 1.549801356409349906e-03
4.642404817525677572e+03 1.095157674797945013e+00 1.741221323849310261e-03
4.647047222343205249e+03 1.092043428866938504e+00 1.930359606926233210e-03
4.651694269565549803e+03 1.086890528676406342e+00 2.003129274694109667e-03
4.656345963835116891e+03 1.081652788815957500e+00 2.288833337553081073e-03
4.661002309798953320e+03 1.076705637549537631e+00 2.364606925016529086e-03
4.665663312108753416e+03 1.072993733640330349e+00 2.367398446498595634e-03
4.670328975420864481e+03 1.070347775744185492e+00 2.536362683384863360e-03
4.674999304396286789e+03 1.066240305343298278e+00 2.563978454869463453e-03
4.679674303700684504e+03 1.061158762790794796e+00 2.581992580692320585e-03
