# starting wavelength: 5166.810
# ending wavelength: 9097.500
# wav flux eflux
5.171581533240301724e+03 7.454656799042076454e-01 1.329053328614178235e-02
5.176753114773543530e+03 7.565748374753387129e-01 9.542848668198308792e-03
5.181929867888318768e+03 7.696980114720484156e-01 7.007890684690061718e-03
5.187111797756208944e+03 7.850519504978887841e-01 5.405206336392529357e-03
5.192298909553966951e+03 8.012258246388379579e-01 4.152764257683011842e-03
5.197491208463522526e+03 8.177617565979162784e-01 3.216929807588473841e-03
5.202688699671987706e+03 8.345567988176844088e-01 2.569373303405828902e-03
5.207891388371661378e+03 8.510659907606917818e-01 2.104852186497839246e-03
5.213099279760034733e+03 8.669550178126682605e-01 1.778926529260830376e-03
5.218312379039796724e+03 8.817251720534280413e-01 1.980994463788147020e-03
5.223530691418837705e+03 8.954149804347378838e-01 1.757876724048190557e-03
5.228754222110258524e+03 9.080962815853339531e-01 1.591733538474352470e-03
5.233982976332370527e+03 9.200168262192257584e-01 1.438311948726009488e-03
5.239216959308704645e+03 9.310029673043842546e-01 1.338389143266180978e-03
5.244456176268015042e+03 9.411901336087975523e-01 1.268624505613652606e-03
5.249700632444284565e+03 9.500555403388780684e-01 1.214441811541689667e-03
5.254950333076731113e+03 9.582956589222840771e-01 1.194628526390931374e-03
5.260205283409809454e+03 9.651916905515914857e-01 1.186499613388073337e-03
5.265465488693221232e+03 9.708348484870480410e-01 1.172567506685091463e-03
5.270730954181915877e+03 9.753605989556084488e-01 1.164198681709214221e-03
5.276001685136099695e+03 9.788926913739239843e-01 1.157704560438979798e-03
5.281277686821237694e+03 9.816291188133148271e-01 1.188313272255550222e-03
5.286558964508059944e+03 9.834533011364398059e-01 1.216881826480451087e-03
5.291845523472569766e+03 9.845773037024712071e-01 1.235429602619590207e-03
5.297137368996044643e+03 9.852415892435837375e-01 1.321508769066392702e-03
5.302434506365042580e+03 9.856301283211373887e-01 1.343078716408691638e-03
5.307736940871409388e+03 9.859133206531124349e-01 1.360838361502098503e-03
5.313044677812282316e+03 9.860724464420903557e-01 1.432315389860088417e-03
5.318357722490096421e+03 9.862394714934604734e-01 1.458366368509711681e-03
5.323676080212588204e+03 9.856991691934307021e-01 1.664112401250310899e-03
5.328999756292802886e+03 9.856732650693040831e-01 1.548563706679532579e-03
5.334328756049097137e+03 9.862217867497782287e-01 1.525464229538992661e-03
5.339663084805148173e+03 9.882846724350936585e-01 1.519709866493969622e-03
5.345002747889954662e+03 9.909073563042326560e-01 1.361959197057157527e-03
5.350347750637846730e+03 9.949586267689918273e-01 1.532487657176388740e-03
5.355698098388485960e+03 9.997028766045643611e-01 1.648710959566453485e-03
5.361053796486876308e+03 1.005027717259723508e+00 1.689263478296552413e-03
5.366414850283365013e+03 1.011468598383339357e+00 1.807459448804809698e-03
5.371781265133649867e+03 1.019533269009291310e+00 1.543428330888671181e-03
5.377153046398785591e+03 1.026632144026534244e+00 1.537652941476149024e-03
5.382530199445186554e+03 1.033971744393128223e+00 1.588978626661814025e-03
5.387912729644633146e+03 1.041002228893780357e+00 1.563288093958895269e-03
5.393300642374279960e+03 1.049099740772660772e+00 1.590323135596421501e-03
5.398693943016655794e+03 1.056616316244569642e+00 1.658960098550724778e-03
5.404092636959673655e+03 1.064281243838948621e+00 1.678766623200614750e-03
5.409496729596635305e+03 1.071734087837724392e+00 1.729600419375078909e-03
5.414906226326233991e+03 1.078743604124371203e+00 1.791937527365737842e-03
5.420321132552561721e+03 1.084888095398780949e+00 1.828924180953915915e-03
5.425741453685116539e+03 1.090632561392667954e+00 1.839861938769707080e-03
5.431167195138803436e+03 1.096011750503780302e+00 1.853132832704042178e-03
5.436598362333943442e+03 1.100841081664108101e+00 1.948379762785539242e-03
5.442034960696279086e+03 1.104848826125473416e+00 1.971112313716252319e-03
5.447476995656978033e+03 1.108776890395832604e+00 1.990551006269410898e-03
5.452924472652636723e+03 1.113205481754634185e+00 2.012140152978450156e-03
5.458377397125291282e+03 1.115675288787656649e+00 1.910235411181376852e-03
5.463835774522417523e+03 1.116184699123651702e+00 1.958447922476418915e-03
5.469299610296941864e+03 1.114957517535094977e+00 1.821432183662076865e-03
5.474768909907241323e+03 1.112607811320405427e+00 1.895409143773801267e-03
5.480243678817149885e+03 1.109076523098744049e+00 1.843266523092983297e-03
5.485723922495968509e+03 1.105180594018675189e+00 1.860801962355584146e-03
5.491209646418466946e+03 1.101924793569630134e+00 1.919137472953746709e-03
5.496700856064887375e+03 1.097674492410456226e+00 2.112459838429419333e-03
5.502197556920953502e+03 1.091787789350799676e+00 1.828964034723960883e-03
5.507699754477876013e+03 1.083368238414065043e+00 2.014182574570224510e-03
5.513207454232356213e+03 1.073402761560315000e+00 1.855889340301073885e-03
5.518720661686590574e+03 1.063546900110885485e+00 1.946309128147628159e-03
5.524239382348278923e+03 1.052987838366634898e+00 2.187443833399914037e-03
5.529763621730628984e+03 1.043885385495125551e+00 2.342235785832545106e-03
5.535293385352360929e+03 1.034959826418447415e+00 2.706006555353369578e-03
5.540828678737715563e+03 1.027887801895955189e+00 2.721168313926910880e-03
5.546369507416455235e+03 1.021393231151391801e+00 2.800297860856070659e-03
5.551915876923872929e+03 1.018395312725350665e+00 2.694182705623179071e-03
5.557467792800798634e+03 1.018333054331844734e+00 2.656078532128090374e-03
5.563025260593602070e+03 1.021164468175981721e+00 2.611327615525908547e-03
5.568588285854197238e+03 1.027156793141619895e+00 2.645714414090686185e-03
5.574156874140053333e+03 1.036803420444258883e+00 2.924455513146333868e-03
5.579731031014194741e+03 1.045446744113646798e+00 2.976966075698153202e-03
5.585310762045211050e+03 1.053647324070495772e+00 3.191546994843187830e-03
5.590896072807257951e+03 1.058047452908741359e+00 2.837862980346554827e-03
5.596486968880067252e+03 1.057827106749155810e+00 3.124239597668874904e-03
5.602083455848949598e+03 1.052654855082900687e+00 2.959723562259660747e-03
5.607685539304799931e+03 1.041425313066089320e+00 3.040627484079128084e-03
5.613293224844106589e+03 1.025370828335234741e+00 3.208786430606628409e-03
5.618906518068952209e+03 1.003167300073284585e+00 3.291213209023305039e-03
5.624525424587023736e+03 9.756312248580042423e-01 3.335270497352901473e-03
5.630149950011612418e+03 9.469267927185779365e-01 3.083753492255266772e-03
5.635780099961625638e+03 9.154164416688139738e-01 2.385063491940889700e-03
5.641415880061589633e+03 8.857391128413598658e-01 2.646208511129012533e-03
5.647057295941652228e+03 8.537729700454104176e-01 2.575295236153769731e-03
5.652704353237596479e+03 8.238024501856761050e-01 2.624680595895101387e-03
5.658357057590835211e+03 7.922939150119567842e-01 2.770497435040223267e-03
5.664015414648428305e+03 7.611403464502145555e-01 2.528924963033855455e-03
5.669679430063079053e+03 7.298925128524249573e-01 2.278330182624732029e-03
5.675349109493143260e+03 6.975021305594469867e-01 2.517837011573621168e-03
5.681024458602638333e+03 6.684862475922112024e-01 2.543269193817268570e-03
5.686705483061243285e+03 6.387217077636285767e-01 2.751798547473352854e-03
5.692392188544306009e+03 6.135529443628937596e-01 2.705560046298106057e-03
5.698084580732852373e+03 5.903363185369447930e-01 2.493623072438652232e-03
5.703782665313587131e+03 5.741997593782885989e-01 2.812768759185503738e-03
5.709486447978903016e+03 5.639250861988474028e-01 2.740350047465145867e-03
5.715195934426883468e+03 5.608481225694448291e-01 2.642620061493670871e-03
5.720911130361312644e+03 5.641906652358548158e-01 2.641823098963777885e-03
5.726632041491675409e+03 5.747933495334150988e-01 3.495668849537433408e-03
5.732358673533169167e+03 5.887584298979865460e-01 4.564130232451469107e-03
5.738091032206703858e+03 6.052155712446010138e-01 4.372951319457679849e-03
5.743829123238912871e+03 6.218062870050412583e-01 4.302419034953560914e-03
5.749572952362153046e+03 6.384360786859457626e-01 3.676816260367309595e-03
5.755322525314517407e+03 6.510289807868243628e-01 3.654054087446169125e-03
5.761077847839834249e+03 6.619003489182564426e-01 3.979548908339711893e-03
5.766838925687675328e+03 6.712945210411149777e-01 4.120330529693212208e-03
5.772605764613364954e+03 6.777629343132154371e-01 4.645321906143826639e-03
5.778378370377980900e+03 6.845634357824890159e-01 3.863365085086415893e-03
5.784156748748360769e+03 6.925074016972692093e-01 3.147594992741766483e-03
5.789940905497111089e+03 7.060216527228719841e-01 3.175486680136129208e-03
5.795730846402610041e+03 7.237887682520783850e-01 2.521073470787760316e-03
5.801526577249013826e+03 7.487398455609871606e-01 2.486185059360441173e-03
5.807328103826264851e+03 7.770762267415745050e-01 2.487456353174848176e-03
5.813135431930093546e+03 8.105335764077932215e-01 2.863120857117722531e-03
5.818948567362025642e+03 8.470103293270853095e-01 3.251131426328276921e-03
5.824767515929389447e+03 8.845524896544079141e-01 3.208704149428722157e-03
5.830592283445320390e+03 9.203258629909198962e-01 3.604610839362713728e-03
5.836422875728768304e+03 9.551273557809522030e-01 3.015324254131484735e-03
5.842259298604498326e+03 9.859971331910395431e-01 2.390679664611556916e-03
5.848101557903105459e+03 1.010484255387772423e+00 2.416408927320995263e-03
5.853949659461010015e+03 1.030152665444687088e+00 2.552919800667346507e-03
5.859803609120473084e+03 1.044901634102742394e+00 2.746769361522348116e-03
5.865663412729595620e+03 1.053412433754743249e+00 2.572330818136081294e-03
5.871529076142326630e+03 1.057967480206189581e+00 2.041299569598784697e-03
5.877400605218471355e+03 1.061052704875190100e+00 2.005272944971471950e-03
5.883278005823691274e+03 1.061056542188299812e+00 1.378783064554185743e-03
5.889161283829516833e+03 1.061305996731872314e+00 1.340967665215275209e-03
5.895050445113348360e+03 1.059697089888361976e+00 1.086652743855533176e-03
5.900945495558464245e+03 1.058258529789715574e+00 1.082590550571917295e-03
5.906846441054024581e+03 1.057877353108424012e+00 8.538816811388345905e-04
5.912753287495080258e+03 1.057083613681757406e+00 8.707652395205773242e-04
5.918666040782577511e+03 1.056097465537799485e+00 6.146013105037826177e-04
5.924584706823361557e+03 1.056566276787261893e+00 7.689480684346154888e-04
5.930509291530187511e+03 1.056825752652515993e+00 8.303318538880685587e-04
5.936439800821719473e+03 1.056474513256048686e+00 8.352234662336868124e-04
5.942376240622543264e+03 1.056774311937503930e+00 8.477449006746700386e-04
5.948318616863167335e+03 1.056039778857617906e+00 8.220507092222141109e-04
5.954266935480032771e+03 1.054796889123737813e+00 7.091136330501870717e-04
5.960221202415515108e+03 1.051738368280756175e+00 7.446750730700739526e-04
5.966181423617932523e+03 1.047030653397368338e+00 1.025736478913708786e-03
5.972147605041552197e+03 1.040271327498051290e+00 1.358323738366282001e-03
5.978119752646595771e+03 1.030321200789758640e+00 1.535123508154060930e-03
5.984097872399243897e+03 1.016428129929088264e+00 1.643516835882668885e-03
5.990081970271645332e+03 1.000404875071736477e+00 1.684942532696643560e-03
5.996072052241918755e+03 9.818507246257864862e-01 2.168961629992784568e-03
6.002068124294162772e+03 9.617619256819768259e-01 2.744457475139329850e-03
6.008070192418459555e+03 9.425144600225526803e-01 2.670109841410409600e-03
6.014078262610879392e+03 9.241338241987774316e-01 2.355016505159084842e-03
6.020092340873492503e+03 9.078190085243400542e-01 2.090766968233703262e-03
6.026112433214368139e+03 8.942148016205939687e-01 2.054649950611677021e-03
6.032138545647584579e+03 8.837916073791330929e-01 2.145501760003653939e-03
6.038170684193233683e+03 8.770345629098398321e-01 2.039740419976409074e-03
6.044208854877429076e+03 8.732202914760711643e-01 1.865365456424421383e-03
6.050253063732308874e+03 8.722888585501233916e-01 1.770395923068650507e-03
6.056303316796042964e+03 8.741855993850963236e-01 1.613960263708711772e-03
6.062359620112841185e+03 8.781463703872458559e-01 1.612871494297483249e-03
6.068421979732956061e+03 8.839634102327562637e-01 1.570282239552440702e-03
6.074490401712690982e+03 8.918124661455181235e-01 1.293499421022798043e-03
6.080564892114405666e+03 9.027499929249575006e-01 1.636526807765476162e-03
6.086645457006521610e+03 9.156806252690379289e-01 1.613528278579540436e-03
6.092732102463530282e+03 9.300458710645879146e-01 1.513061809342540476e-03
6.098824834565995843e+03 9.456341629106072011e-01 1.518116446941736569e-03
6.104923659400564247e+03 9.628895644320576430e-01 1.265523812475431069e-03
6.111028583059966877e+03 9.794499064902947305e-01 1.414670623033612365e-03
6.117139611643028729e+03 9.965358999221107794e-01 1.285431898499183982e-03
6.123256751254673873e+03 1.014361003799520544e+00 1.450852111915255146e-03
6.129380008005929994e+03 1.031692534567073327e+00 1.621074783702155164e-03
6.135509388013938405e+03 1.048322008647368575e+00 1.631446908552555827e-03
6.141644897401954040e+03 1.064230112496728164e+00 1.523970278992468593e-03
6.147786542299358189e+03 1.079146413797196002e+00 1.486391066714279601e-03
6.153934328841659408e+03 1.093059022710317407e+00 1.515696282191564574e-03
6.160088263170503524e+03 1.106005053231957636e+00 1.646842037745397877e-03
6.166248351433675452e+03 1.118480845240569899e+00 1.962846710173804174e-03
6.172414599785111022e+03 1.131072313965918230e+00 1.746985969826557981e-03
6.178587014384898794e+03 1.144686887671917619e+00 1.685204147059540152e-03
6.184765601399285515e+03 1.159301822863250564e+00 1.265403142868631653e-03
6.190950367000687038e+03 1.175955189376640675e+00 1.129975581870151314e-03
6.197141317367689226e+03 1.195410052408080404e+00 1.081172760077797829e-03
6.203338458685059777e+03 1.215871234920594679e+00 1.283320869731466654e-03
6.209541797143746408e+03 1.237005704776535042e+00 1.602427761561782621e-03
6.215751338940892310e+03 1.259075342001602760e+00 1.451197132366499913e-03
6.221967090279835247e+03 1.279572772300026307e+00 1.196582587243367720e-03
6.228189057370116643e+03 1.297709958667338404e+00 1.224516890381974676e-03
6.234417246427488863e+03 1.315036935376507898e+00 1.101318952621236887e-03
6.240651663673918847e+03 1.330310825652451845e+00 1.160603023468201409e-03
6.246892315337594482e+03 1.343701873306427652e+00 1.236322836002570974e-03
6.253139207652934601e+03 1.354922174461151263e+00 1.244826132288462395e-03
6.259392346860589896e+03 1.364293161824300160e+00 1.206176466552865345e-03
6.265651739207452010e+03 1.373364937743037251e+00 1.133956334513891830e-03
6.271917390946661726e+03 1.381802507463785412e+00 1.064747873747347046e-03
6.278189308337610782e+03 1.390574300356831161e+00 1.151777615137841802e-03
6.284467497645950061e+03 1.398672098188790791e+00 1.418856428497083325e-03
6.290751965143597772e+03 1.406275494166943529e+00 1.336714696579095751e-03
6.297042717108744000e+03 1.412246722985456504e+00 1.308251464248596455e-03
6.303339759825854344e+03 1.416876576588514514e+00 1.468748818789274851e-03
6.309643099585682648e+03 1.418272760152704759e+00 1.554821123189857254e-03
6.315952742685270096e+03 1.416053541451971265e+00 1.425098109604723377e-03
6.322268695427957937e+03 1.410234600381883752e+00 1.417870220710474314e-03
6.328590964123387494e+03 1.401405599406326141e+00 1.544265693774843741e-03
6.334919555087512890e+03 1.389728461133295845e+00 1.933947175244156089e-03
6.341254474642602872e+03 1.375950411130852924e+00 1.934423360452009171e-03
6.347595729117247174e+03 1.360601229795050049e+00 1.588572282209177802e-03
6.353943324846366522e+03 1.345466107066750627e+00 1.483545555517874932e-03
6.360297268171215364e+03 1.331439879656623582e+00 1.154804557106181009e-03
6.366657565439388236e+03 1.319128965707821566e+00 1.120244148070991073e-03
6.373024223004829764e+03 1.308615696019252095e+00 1.114315013818571991e-03
6.379397247227837397e+03 1.300042879866147638e+00 1.169715820361595703e-03
6.385776644475066860e+03 1.293060099550525921e+00 1.158000837122393932e-03
6.392162421119543978e+03 1.288008460456192328e+00 1.433286927426079922e-03
6.398554583540665590e+03 1.284424856984187402e+00 1.192475739515062166e-03
6.404953138124208635e+03 1.281174829203126864e+00 1.364000142985605972e-03
6.411358091262334710e+03 1.276714281995490197e+00 1.618057178580727465e-03
6.417769449353599157e+03 1.270830459810335711e+00 1.615863503274369162e-03
6.424187218802954703e+03 1.263999927997423001e+00 1.334099367925056139e-03
6.430611406021760558e+03 1.255223483725810052e+00 1.216372808222143144e-03
6.437042017427784231e+03 1.244480650676077271e+00 1.365533778153332073e-03
6.443479059445214261e+03 1.232093837730872776e+00 1.590628150580775460e-03
6.449922538504661134e+03 1.218993072689251056e+00 1.653252135865089381e-03
6.456372461043168187e+03 1.205858924511615582e+00 1.344928250488376578e-03
6.462828833504213435e+03 1.193313231231420080e+00 1.266383196986302102e-03
6.469291662337719572e+03 1.182424902856689108e+00 1.219217607144998643e-03
6.475760954000059428e+03 1.172552300153615557e+00 1.147525768281335620e-03
6.482236714954061426e+03 1.165286446313806401e+00 1.375893091073823174e-03
6.488718951669017770e+03 1.161145224324518832e+00 1.372325231861434977e-03
6.495207670620688987e+03 1.159519347480020723e+00 1.435026493158267098e-03
6.501702878291312118e+03 1.161336628208028632e+00 1.464616767322413689e-03
6.508204581169605262e+03 1.164811204905728648e+00 1.354615929850887029e-03
6.514712785750777584e+03 1.171699943160806834e+00 1.534780882387658729e-03
6.521227498536530220e+03 1.179589262210823719e+00 1.518331541757640636e-03
6.527748726035069012e+03 1.189407674534722403e+00 1.462278376207773499e-03
6.534276474761106329e+03 1.200579838525059895e+00 1.434045570024151473e-03
6.540810751235869247e+03 1.211300625917649532e+00 1.436036068851900219e-03
6.547351561987107743e+03 1.222265037241081931e+00 1.520173723895581596e-03
6.553898913549096505e+03 1.231503024868595420e+00 1.707322228198356962e-03
6.560452812462647671e+03 1.237943356723302690e+00 1.875033461754544448e-03
6.567013265275112644e+03 1.240740196583566934e+00 2.319375463848348442e-03
6.573580278540390282e+03 1.238121306934689470e+00 2.250854956073487789e-03
6.580153858818932349e+03 1.231141111535954513e+00 2.084502172989827987e-03
6.586734012677753526e+03 1.218493188798523308e+00 1.997139495456138562e-03
6.593320746690433225e+03 1.200980218548003631e+00 1.933413732216250668e-03
6.599914067437126505e+03 1.177691381260087100e+00 2.469631588723432327e-03
6.606513981504565891e+03 1.150499598782283028e+00 2.666849604479461927e-03
6.613120495486072286e+03 1.122189724399391686e+00 2.585908421887555316e-03
6.619733615981560433e+03 1.092696703116795121e+00 1.872184169457964415e-03
6.626353349597544366e+03 1.064630673989652943e+00 1.563264068746110774e-03
6.632979702947143778e+03 1.038681621648216868e+00 1.319866754409906124e-03
6.639612682650093120e+03 1.015718256608329151e+00 1.382640960631159556e-03
6.646252295332745234e+03 9.961358112454585800e-01 1.381352496897762707e-03
6.652898547628080451e+03 9.801789598712489227e-01 1.367390436441356157e-03
6.659551446175711135e+03 9.680675298376975046e-01 1.285004193866867185e-03
6.666210997621888964e+03 9.585911846401691250e-01 1.460252080251992542e-03
6.672877208619513112e+03 9.522596524079181002e-01 1.710749558695183773e-03
6.679550085828134797e+03 9.472762925629425457e-01 1.907970399309758154e-03
6.686229635913964557e+03 9.428059199615467234e-01 1.838542385458758529e-03
6.692915865549881346e+03 9.390658215240201834e-01 1.620454206760860508e-03
6.699608781415433441e+03 9.337399283021972085e-01 1.658080217972901591e-03
6.706308390196851178e+03 9.277436281638367088e-01 1.391493180260943048e-03
6.713014698587049679e+03 9.200369978040349173e-01 1.229318606259430539e-03
6.719727713285638856e+03 9.099243203289389958e-01 1.409476322899163355e-03
6.726447440998927050e+03 8.975719315955552613e-01 1.527946693585386035e-03
6.733173888439928305e+03 8.838670757543312106e-01 1.255501846445196499e-03
