# starting wavelength: 3474.450
# ending wavelength: 7367.620
# wav flux eflux
3.477720030263898934e+03 1.325607049467065979e+00 4.306104227152456748e-02
3.481197750294164052e+03 1.329078162724899093e+00 3.222115846816647061e-02
3.484678948044459503e+03 1.325639853016291170e+00 2.475259231896606571e-02
3.488163626992504760e+03 1.315994317841661099e+00 1.937376119867476043e-02
3.491651790619498570e+03 1.299551077782871600e+00 1.659221548277546240e-02
3.495143442410119405e+03 1.283031134364261971e+00 1.824331225820921554e-02
3.498638585852530468e+03 1.274973542638550672e+00 1.489935090971882155e-02
3.502137224438384237e+03 1.271165750981776199e+00 1.446907039473637607e-02
3.505639361662823831e+03 1.273582079987513049e+00 1.357139272306745643e-02
3.509145001024487556e+03 1.284381291445135798e+00 1.491795977698896422e-02
3.512654146025513455e+03 1.297152016644023353e+00 1.408434033962738426e-02
3.516166800171540217e+03 1.311762459302546979e+00 1.332802517862672134e-02
3.519682966971712631e+03 1.321628330576823718e+00 1.258770497478239360e-02
3.523202649938685681e+03 1.328144696294631943e+00 1.284491339269125919e-02
3.526725852588625457e+03 1.336283490311968247e+00 1.289778934774624651e-02
3.530252578441215064e+03 1.345805512312112873e+00 1.303450349847872468e-02
3.533782831019657806e+03 1.356968903762838963e+00 1.380016981383717922e-02
3.537316613850678550e+03 1.376773148769147692e+00 1.410880181101577778e-02
3.540853930464530094e+03 1.396909422322106353e+00 1.403121133660391318e-02
3.544394784394995895e+03 1.420257349192161067e+00 1.397889794702093964e-02
3.547939179179392340e+03 1.441551552941104708e+00 1.381982763991231218e-02
3.551487118358572843e+03 1.463569415893291925e+00 1.354995763233472240e-02
3.555038605476932389e+03 1.490139110011515111e+00 1.574982340757634727e-02
3.558593644082410719e+03 1.515806160742180442e+00 1.739793697025350874e-02
3.562152237726494150e+03 1.536083360294894895e+00 1.813986733429850604e-02
3.565714389964221937e+03 1.555455455786423524e+00 1.875188123438234142e-02
3.569280104354187188e+03 1.570388294922308026e+00 1.863755637516087763e-02
3.572849384458542772e+03 1.577839184118257521e+00 1.817648945021298895e-02
3.576422233843002232e+03 1.577296498632811961e+00 1.790528765167394981e-02
3.579998656076846601e+03 1.573596595522845254e+00 1.817892820337793300e-02
3.583578654732924406e+03 1.563034254409987556e+00 1.797057788548676177e-02
3.587162233387658489e+03 1.549648047255449468e+00 1.752232573851160782e-02
3.590749395621047370e+03 1.528313840337514051e+00 1.754887081924038500e-02
3.594340145016669794e+03 1.502008050145595686e+00 1.889925529726117076e-02
3.597934485161687462e+03 1.468216251679384632e+00 1.987305142297687843e-02
3.601532419646850485e+03 1.427079495946548038e+00 2.117104871910402419e-02
3.605133952066498296e+03 1.382255647341054328e+00 2.089648454131536395e-02
3.608739086018566013e+03 1.340422225251525656e+00 1.834043384429130327e-02
3.612347825104585809e+03 1.300484587419671989e+00 1.555210523437465346e-02
3.615960172929691907e+03 1.265849666706084786e+00 1.467871303020996249e-02
3.619576133102622407e+03 1.231008521694546776e+00 1.458146085144789751e-02
3.623195709235726554e+03 1.205210924259273453e+00 1.499273432571971744e-02
3.626818904944963379e+03 1.187492168556710581e+00 1.544395430516444512e-02
3.630445723849909427e+03 1.177565548246663152e+00 1.396219961055135926e-02
3.634076169573760581e+03 1.173918601267416761e+00 1.379233774828263204e-02
3.637710245743335690e+03 1.167189644802514970e+00 1.690068272251247367e-02
3.641347955989080219e+03 1.170208422051456587e+00 1.823287351002958120e-02
3.644989303945070333e+03 1.184805105834222605e+00 1.837825217821284843e-02
3.648634293249016537e+03 1.206214647118168504e+00 1.790153842854318861e-02
3.652282927542266862e+03 1.236899482320106047e+00 1.729680967390485533e-02
3.655935210469810499e+03 1.280124166903956029e+00 1.898446627996670799e-02
3.659591145680281443e+03 1.317813502108489576e+00 1.951016492549679723e-02
3.663250736825963031e+03 1.363183569578847232e+00 2.096854251025532037e-02
3.666913987562790226e+03 1.416806373656161133e+00 2.503570290362956349e-02
3.670580901550354156e+03 1.478878192392533597e+00 2.717090443536276240e-02
3.674251482451905758e+03 1.524827629566946285e+00 2.724667030093858022e-02
3.677925733934358959e+03 1.561464725371570772e+00 2.523971278417755024e-02
3.681603659668294313e+03 1.584213300044035488e+00 2.333084880874204334e-02
3.685285263327964003e+03 1.591314375162093064e+00 2.263262912171371335e-02
3.688970548591293209e+03 1.581451892187883734e+00 2.419007389517874654e-02
3.692659519139885560e+03 1.562303297698373727e+00 2.549215382444464800e-02
3.696352178659026777e+03 1.541937071711764640e+00 2.634373766801023295e-02
3.700048530837686940e+03 1.496481974595537334e+00 2.820922806800570462e-02
3.703748579368525952e+03 1.440890165203587703e+00 2.819071767026251965e-02
3.707452327947895355e+03 1.380069446262603083e+00 2.637132219174928918e-02
3.711159780275844696e+03 1.304106196574297272e+00 1.432158631877705930e-02
3.714870940056121526e+03 1.259472659343652046e+00 1.360386319497823744e-02
3.718585810996179134e+03 1.226107563194214656e+00 1.609523217415581575e-02
3.722304396807176545e+03 1.200344061900590953e+00 1.633207136841808779e-02
3.726026701203984885e+03 1.183365223535809863e+00 1.528832140118791157e-02
3.729752727905190113e+03 1.178964571401755146e+00 1.314668993236796542e-02
3.733482480633096657e+03 1.181930125908960072e+00 1.284998944622269164e-02
3.737215963113731050e+03 1.196102237334790042e+00 1.337313963542933505e-02
3.740953179076846027e+03 1.212548115423561335e+00 1.474792745412499551e-02
3.744694132255923705e+03 1.243812402749849166e+00 1.472583455940293905e-02
3.748438826388181042e+03 1.279522646228272276e+00 1.562620035580703642e-02
3.752187265214570289e+03 1.324451896003342011e+00 1.849853655875189143e-02
3.755939452479786269e+03 1.369578225066016675e+00 2.089269008009050563e-02
3.759695391932267285e+03 1.410452469308423940e+00 2.260355767084017489e-02
3.763455087324201031e+03 1.450905970550579793e+00 2.225626487082911845e-02
3.767218542411526414e+03 1.479875357649683254e+00 2.031929475215837194e-02
3.770985760953939007e+03 1.493746613418722946e+00 1.916632971328199181e-02
3.774756746714894234e+03 1.500868226274189698e+00 1.881769262349297298e-02
3.778531503461610555e+03 1.490111644164351823e+00 1.982989286092744219e-02
3.782310034965073100e+03 1.465489968766724882e+00 2.218176173248405381e-02
3.786092345000039586e+03 1.423834855460647253e+00 2.421047217847422522e-02
3.789878437345040766e+03 1.380617553865656211e+00 2.239767908235883176e-02
3.793668315782387253e+03 1.335785441572044707e+00 1.864933662220114377e-02
3.797461984098170888e+03 1.290882666662021006e+00 1.359380614104972566e-02
3.801259446082270188e+03 1.261258384436281021e+00 1.397234460622952430e-02
3.805060705528353537e+03 1.246156908556102838e+00 1.461238357082818122e-02
3.808865766233883278e+03 1.241873822221872814e+00 1.221474468097252276e-02
3.812674632000118436e+03 1.238351580165469201e+00 1.217326531872952450e-02
3.816487306632119726e+03 1.249815822295408330e+00 1.189079098765856608e-02
3.820303793938753188e+03 1.268997558304098217e+00 1.096864140791457137e-02
3.824124097732693372e+03 1.282445818329633891e+00 1.020374627327481909e-02
3.827948221830427428e+03 1.303726676826115538e+00 1.003895225878954217e-02
3.831776170052258749e+03 1.335074310144596321e+00 1.069297756967936205e-02
3.835607946222312421e+03 1.371911949033001177e+00 1.216980409378270143e-02
3.839443554168536139e+03 1.406118070669294173e+00 1.230482048093413557e-02
3.843282997722705659e+03 1.444014883200381627e+00 1.258265746765560578e-02
3.847126280720429804e+03 1.481221971176534424e+00 1.117520160812082546e-02
3.850973407001151372e+03 1.510767250882659507e+00 1.009276851738750112e-02
3.854824380408153957e+03 1.533971844455232381e+00 1.017607259921732635e-02
3.858679204788563311e+03 1.548342086738036194e+00 9.953058950344813999e-03
3.862537883993353262e+03 1.545861345089051930e+00 1.281271937975048646e-02
3.866400421877347981e+03 1.538647912086174463e+00 1.267046574435130163e-02
3.870266822299226533e+03 1.530776278982902250e+00 1.217219467876865836e-02
3.874137089121526969e+03 1.523110958726776154e+00 1.137129342098405424e-02
3.878011226210649966e+03 1.515613560652001812e+00 1.136958743768384100e-02
3.881889237436861549e+03 1.511401013658240089e+00 1.086699960397305258e-02
3.885771126674299921e+03 1.510430872608267361e+00 1.061217881381058825e-02
3.889656897800975457e+03 1.510953479763324392e+00 1.064075588819250219e-02
3.893546554698777527e+03 1.505664519234521714e+00 1.037543794836426857e-02
3.897440101253477678e+03 1.507624141280698105e+00 8.974804943440826618e-03
3.901337541354732366e+03 1.502182837451469188e+00 1.088184547793171093e-02
3.905238878896088409e+03 1.499798831229813167e+00 1.070561832801816653e-02
3.909144117774985716e+03 1.507790036824818269e+00 1.062970350573448110e-02
3.913053261892762293e+03 1.520119590051149494e+00 1.142087624141151399e-02
3.916966315154656058e+03 1.530901347765573073e+00 1.254822526639197758e-02
3.920883281469812118e+03 1.542518922147578575e+00 1.300603956726870125e-02
3.924804164751283224e+03 1.550615941795251418e+00 1.256645671365707456e-02
3.928728968916035683e+03 1.553412031131067295e+00 1.187755444998274575e-02
3.932657697884953450e+03 1.556421949089948242e+00 9.867538956619186993e-03
3.936590355582839493e+03 1.540839270699303265e+00 1.079301574081313782e-02
3.940526945938423523e+03 1.525988890571010392e+00 1.083028143726111857e-02
3.944467472884363360e+03 1.501544665567123182e+00 1.071799544567392758e-02
3.948411940357249023e+03 1.475373441816697717e+00 1.064738845051211094e-02
3.952360352297607733e+03 1.443375677303915916e+00 1.094464361869330361e-02
3.956312712649906643e+03 1.407295302997375375e+00 9.044328918465696643e-03
3.960269025362557841e+03 1.380545882362020471e+00 9.043390819378611944e-03
3.964229294387921527e+03 1.358282526413385094e+00 9.177096564032070219e-03
3.968193523682310570e+03 1.342059707120349277e+00 9.801966160096325584e-03
3.972161717205994591e+03 1.335297603932793731e+00 9.866798257134221442e-03
3.976133878923201792e+03 1.333177513978399897e+00 8.665762805484327272e-03
3.980110012802126221e+03 1.340920755081088878e+00 8.971415892119409541e-03
3.984090122814929600e+03 1.355093109879232927e+00 9.101200634194046499e-03
3.988074212937745870e+03 1.378869713305121314e+00 9.042487007487243558e-03
3.992062287150684824e+03 1.408304693035151711e+00 8.346640041968779802e-03
3.996054349437837118e+03 1.437652248996725612e+00 7.477993876442198817e-03
4.000050403787276082e+03 1.463018575286332501e+00 6.774283292035884925e-03
4.004050454191064546e+03 1.481600100438851264e+00 6.812289822793931096e-03
4.008054504645257111e+03 1.498553028577366719e+00 6.404090893345138619e-03
4.012062559149903791e+03 1.502773689659387069e+00 6.352820012868245006e-03
4.016074621709055009e+03 1.510550243289557892e+00 6.419748288420765864e-03
4.020090696330765240e+03 1.510681087328299643e+00 6.733739642278045723e-03
4.024110787027097558e+03 1.516441314304364685e+00 6.656661123922678891e-03
4.028134897814125907e+03 1.519009980284004691e+00 5.764957688232757484e-03
4.032163032711941469e+03 1.522366350792523804e+00 6.135763097121067940e-03
4.036195195744654484e+03 1.530860722166043519e+00 5.966275880629681207e-03
4.040231390940400615e+03 1.537738259720560663e+00 5.663805950797940435e-03
4.044271622331342314e+03 1.548538722364509512e+00 8.904990039411907546e-03
4.048315893953675186e+03 1.558640278106265820e+00 1.281243450005825277e-02
4.052364209847629809e+03 1.558511780151993653e+00 1.217878774039288410e-02
4.056416574057479011e+03 1.544936780802017573e+00 1.092594824737092192e-02
4.060472990631537868e+03 1.516408212432035052e+00 1.342255523416648923e-02
4.064533463622170530e+03 1.482581226090094795e+00 1.475920825062893536e-02
4.068597997085794304e+03 1.447742603499598157e+00 1.449693621823910580e-02
4.072666595082881486e+03 1.408960614034479919e+00 1.406136257897686211e-02
4.076739261677965715e+03 1.369048714769482311e+00 1.332941547445721381e-02
4.080816000939644709e+03 1.330536471705781931e+00 1.277927379528522554e-02
4.084896816940585722e+03 1.302440283510837959e+00 1.281555154058542506e-02
4.088981713757527814e+03 1.279377184236015763e+00 1.356070710625262125e-02
4.093070695471286854e+03 1.264039421362148641e+00 1.414122679530748633e-02
4.097163766166759160e+03 1.248917634486730099e+00 1.389786222788357700e-02
4.101260929932927866e+03 1.239303088738983094e+00 1.091208154216946960e-02
4.105362190862862008e+03 1.227057995326922946e+00 9.998790509324654088e-03
4.109467553053726078e+03 1.207267745904337719e+00 1.183007232367772575e-02
4.113577020606780934e+03 1.189836492273466995e+00 1.088679918726725981e-02
4.117690597627389252e+03 1.176120603562929023e+00 8.349519652287947305e-03
4.121808288225018259e+03 1.171879705025678842e+00 8.750932076557546221e-03
4.125930096513244280e+03 1.175033777374641764e+00 8.274414080158824791e-03
4.130056026609759101e+03 1.178926154416680916e+00 8.227631173748859925e-03
4.134186082636369974e+03 1.183652291792474109e+00 9.022412445928216715e-03
4.138320268719007800e+03 1.194582854887503709e+00 8.337517559461389560e-03
4.142458588987728035e+03 1.214748536977241944e+00 9.088770699306095158e-03
4.146601047576717065e+03 1.241586852475959013e+00 9.276104846433444462e-03
4.150747648624294925e+03 1.263334478530533378e+00 8.758807736224972010e-03
4.154898396272920763e+03 1.282323834771860405e+00 8.697142267230721646e-03
4.159053294669195566e+03 1.295152191889105575e+00 8.581806595135950053e-03
4.163212347963865795e+03 1.307005047080096238e+00 8.742217594109844697e-03
4.167375560311830668e+03 1.312476370356596478e+00 8.371742619514101202e-03
4.171542935872143971e+03 1.311098363930666366e+00 9.726987765273675465e-03
4.175714478808017702e+03 1.307289981780734189e+00 1.062857875140073814e-02
4.179890193286827525e+03 1.301428919604040724e+00 1.163169736290747477e-02
4.184070083480115500e+03 1.297910251221807032e+00 1.097592889406886346e-02
4.188254153563597356e+03 1.294873530266170247e+00 7.751954168585842471e-03
4.192442407717161586e+03 1.300591335174021701e+00 8.067678722992762883e-03
4.196634850124880359e+03 1.313496955944491784e+00 9.538234429661103173e-03
4.200831484975006788e+03 1.329006159297584144e+00 9.068123866041029671e-03
4.205032316459983122e+03 1.344526078484502563e+00 7.229814745983238061e-03
4.209237348776444378e+03 1.352822632083021226e+00 6.508783833859301676e-03
4.213446586125221984e+03 1.354733885963225193e+00 6.515511120866302082e-03
4.217660032711349231e+03 1.353047179419220702e+00 6.365023995959068724e-03
4.221877692744061278e+03 1.347075279394641223e+00 6.123994124685978348e-03
4.226099570436806971e+03 1.332962040776562773e+00 6.097053516675452270e-03
4.230325670007245208e+03 1.306935823436341959e+00 5.692099786373944204e-03
4.234555995677254032e+03 1.280087740405190466e+00 5.257212204006949177e-03
4.238790551672932452e+03 1.255323184584617113e+00 4.837628187089390054e-03
4.243029342224606808e+03 1.233224901931045281e+00 5.002622211800725367e-03
4.247272371566832589e+03 1.215062304483332856e+00 5.172761205745344051e-03
4.251519643938400804e+03 1.196588283633416294e+00 5.013846097127768256e-03
4.255771163582340705e+03 1.183676873074714031e+00 5.364654174884677870e-03
4.260026934745924336e+03 1.169248780960454370e+00 5.293002439412378655e-03
4.264286961680671993e+03 1.159276375074910881e+00 5.252071520682353653e-03
4.268551248642354039e+03 1.153396917722610215e+00 5.828378005443174935e-03
4.272819799890998183e+03 1.149607305129968449e+00 5.614874329516421694e-03
4.277092619690890388e+03 1.145992294979478965e+00 4.981001907688710310e-03
4.281369712310583054e+03 1.140450289175772403e+00 5.470486553330082373e-03
4.285651082022895025e+03 1.136901223942114569e+00 5.496532586298571478e-03
4.289936733104918858e+03 1.131433658199410219e+00 5.145835451275376088e-03
4.294226669838025373e+03 1.128621954405637284e+00 4.618637573809722917e-03
4.298520896507864563e+03 1.130746612639395021e+00 4.332308333883867595e-03
4.302819417404373780e+03 1.139345605198877731e+00 4.380345060413749422e-03
4.307122236821779552e+03 1.150171556665215533e+00 4.307713915082406024e-03
4.311429359058603040e+03 1.162459521098139881e+00 4.219312942001887320e-03
4.315740788417662770e+03 1.177237695121246430e+00 4.252882204605039004e-03
4.320056529206081905e+03 1.195026853040972670e+00 4.889051953117083682e-03
4.324376585735290064e+03 1.210424983402375698e+00 5.283728111984925362e-03
4.328700962321026054e+03 1.226041814639277305e+00 4.645289351314258429e-03
4.333029663283348782e+03 1.232291741267669716e+00 5.292192716054954296e-03
4.337362692946633615e+03 1.237260833718936359e+00 5.134152096498504833e-03
4.341700055639581478e+03 1.233795367642372298e+00 5.445494766006346403e-03
4.346041755695222491e+03 1.228453443784856658e+00 5.451559966680260931e-03
4.350387797450919606e+03 1.225641891786311444e+00 5.430301064664129311e-03
4.354738185248371337e+03 1.220545171303320853e+00 5.321274653291069648e-03
4.359092923433621763e+03 1.213090112955238498e+00 5.194710207385511494e-03
4.363452016357056891e+03 1.206578517124072381e+00 5.594887285393533236e-03
4.367815468373414660e+03 1.201812365596103493e+00 6.411289329008540601e-03
4.372183283841789489e+03 1.191012406538151325e+00 6.207182337864228239e-03
4.376555467125633186e+03 1.178564768348687064e+00 5.967739080299528862e-03
4.380932022592760404e+03 1.164952529944575321e+00 5.630637623382727351e-03
4.385312954615354101e+03 1.147927199731163528e+00 5.695659160922435585e-03
4.389698267569970994e+03 1.127973206166317244e+00 5.718480037554971897e-03
4.394087965837542470e+03 1.106732611238780306e+00 5.633999878942423829e-03
4.398482053803381859e+03 1.085683381333492514e+00 4.723563121076067642e-03
4.402880535857186260e+03 1.070132172325552133e+00 4.434610606583713234e-03
4.407283416393044718e+03 1.059450848346951801e+00 4.326036312860114669e-03
4.411690699809440048e+03 1.055663634197758327e+00 4.199156881786221193e-03
4.416102390509250654e+03 1.052993543090582573e+00 3.993774559995051480e-03
4.420518492899761441e+03 1.058378848680079809e+00 3.866119189985764426e-03
4.424939011392662906e+03 1.067935030756804959e+00 4.013345739309731250e-03
4.429363950404056595e+03 1.081689832030886977e+00 4.902038971566004787e-03
4.433793314354462382e+03 1.099401652670443985e+00 5.695543633295795105e-03
4.438227107668818462e+03 1.112712963376679909e+00 5.717273714554479101e-03
4.442665334776488635e+03 1.120764760815967653e+00 5.664266151718832208e-03
4.447108000111265937e+03 1.127899807091425677e+00 4.814130818504607640e-03
4.451555108111379013e+03 1.127692786056108343e+00 4.801466487900310325e-03
4.456006663219492111e+03 1.119115060993166599e+00 6.176245134670368085e-03
4.460462669882713271e+03 1.110290771429536916e+00 6.017178647141098284e-03
4.464923132552597053e+03 1.099463247509245400e+00 5.904243428717060108e-03
4.469388055685150903e+03 1.085600261896222607e+00 5.607051601695851178e-03
4.473857443740837880e+03 1.075488025202822717e+00 5.128407562191213478e-03
4.478331301184580298e+03 1.067493652434958307e+00 4.751659297346320400e-03
4.482809632485766087e+03 1.063229270530317461e+00 4.913153490145075533e-03
4.487292442118253348e+03 1.063261693943393205e+00 4.899573676857781578e-03
4.491779734560373072e+03 1.066625098765437984e+00 4.364841158272012196e-03
4.496271514294934605e+03 1.071971277361090991e+00 3.309888919704421974e-03
4.500767785809231100e+03 1.075535133101604313e+00 3.409710044356185649e-03
4.505268553595042249e+03 1.078353426593574360e+00 3.835648459903556306e-03
4.509773822148638828e+03 1.084361531687772828e+00 3.762761679327503422e-03
4.514283595970789065e+03 1.090676019087683413e+00 3.683390499683085201e-03
4.518797879566761367e+03 1.098801049091048698e+00 3.760499896795425727e-03
4.523316677446328868e+03 1.105847089128575433e+00 3.849065583315150561e-03
4.527839994123776705e+03 1.113330959593719527e+00 4.245207965864630437e-03
