# starting wavelength: 3790.110
# ending wavelength: 7917.400
# wav flux eflux
3.793668315782387253e+03 1.061122372648836576e+00 1.153516397800095211e-01
3.797461984098170888e+03 1.014695056794471695e+00 9.937393840379453447e-02
3.801259446082270188e+03 9.669980885079673127e-01 7.861124126821079916e-02
3.805060705528353537e+03 9.059708092822402747e-01 8.136716190586253117e-02
3.808865766233883278e+03 8.690231881268484226e-01 6.752452421924622084e-02
3.812674632000118436e+03 8.658868531707761829e-01 5.329896622435560671e-02
3.816487306632119726e+03 8.706772668023348150e-01 4.256759164745055335e-02
3.820303793938753188e+03 8.858766340093571223e-01 3.524574068119791515e-02
3.824124097732693372e+03 9.126093169981839281e-01 2.879557060928548962e-02
3.827948221830427428e+03 9.482545310728159871e-01 2.719663862893535733e-02
3.831776170052258749e+03 9.907532705543096174e-01 2.485597959314961650e-02
3.835607946222312421e+03 1.032636088632874483e+00 2.230463143861420583e-02
3.839443554168536139e+03 1.077417405107029325e+00 2.231634754400965703e-02
3.843282997722705659e+03 1.113247706251963232e+00 2.127781478876259250e-02
3.847126280720429804e+03 1.130824489237927111e+00 1.997878519979695219e-02
3.850973407001151372e+03 1.130331831367429318e+00 1.997483824302683994e-02
3.854824380408153957e+03 1.109863115166179082e+00 2.261134430704652212e-02
3.858679204788563311e+03 1.076650374928993736e+00 2.566676430610125709e-02
3.862537883993353262e+03 1.031159186447735410e+00 3.048976983354561784e-02
3.866400421877347981e+03 9.969493772489543826e-01 3.131767386002152348e-02
3.870266822299226533e+03 9.329657623922591458e-01 3.686670360498446597e-02
3.874137089121526969e+03 8.687296887768093390e-01 3.773178550579629059e-02
3.878011226210649966e+03 8.084592219098170052e-01 3.651105236263239850e-02
3.881889237436861549e+03 7.518179730937656347e-01 3.586419385827088746e-02
3.885771126674299921e+03 6.810656643208319316e-01 3.472117665405768244e-02
3.889656897800975457e+03 6.135872457699814708e-01 3.363337505989610898e-02
3.893546554698777527e+03 5.520950861399441800e-01 3.400013311996236132e-02
3.897440101253477678e+03 4.918293424518981327e-01 3.446500162487761004e-02
3.901337541354732366e+03 4.289523761357290077e-01 3.440331611198249595e-02
3.905238878896088409e+03 3.738684882108996299e-01 3.444972952763333124e-02
3.909144117774985716e+03 3.246123938158582134e-01 3.541833408976142322e-02
3.913053261892762293e+03 2.760132107026536108e-01 3.582837886362413155e-02
3.916966315154656058e+03 2.373830614182170784e-01 3.622731771816791596e-02
3.920883281469812118e+03 2.115558404810841675e-01 3.610252176001828989e-02
3.924804164751283224e+03 1.934428386220199969e-01 3.882315576969175980e-02
3.928728968916035683e+03 1.756502272491337058e-01 3.943939970205150719e-02
3.932657697884953450e+03 1.683371074487541030e-01 3.907534655517074657e-02
3.936590355582839493e+03 1.900883966594361651e-01 4.128015532143021471e-02
3.940526945938423523e+03 2.134571109538606348e-01 4.236702620771470168e-02
3.944467472884363360e+03 2.330684441546339025e-01 4.312506874662615231e-02
3.948411940357249023e+03 2.392303902420115091e-01 4.324964151950233537e-02
3.952360352297607733e+03 2.642096369995214911e-01 4.619119565071166250e-02
3.956312712649906643e+03 2.891933481636456693e-01 4.826391034979684441e-02
3.960269025362557841e+03 3.165003480015309290e-01 4.917229156819401259e-02
3.964229294387921527e+03 3.510921894291984535e-01 4.874202595380869307e-02
3.968193523682310570e+03 3.828048330126160304e-01 4.325065667346145171e-02
3.972161717205994591e+03 4.049249038277593638e-01 4.112070529611456388e-02
3.976133878923201792e+03 4.169116362117284980e-01 4.369105967683714620e-02
3.980110012802126221e+03 4.225004098267091668e-01 4.787760623056182274e-02
3.984090122814929600e+03 4.213545892963480033e-01 5.062869830579855984e-02
3.988074212937745870e+03 4.202794993499799903e-01 4.960383173450170352e-02
3.992062287150684824e+03 4.173639097867341552e-01 4.561214114263072161e-02
3.996054349437837118e+03 4.113150708479565987e-01 3.693631010620115895e-02
4.000050403787276082e+03 4.250638087639924678e-01 3.454754457200717721e-02
4.004050454191064546e+03 4.522192094122479689e-01 3.746808118214080274e-02
4.008054504645257111e+03 4.928227304380909946e-01 3.997313197688315278e-02
4.012062559149903791e+03 5.399066422297603696e-01 4.069175143299050279e-02
4.016074621709055009e+03 6.082278331013561967e-01 3.985338056627249492e-02
4.020090696330765240e+03 6.786092108283084956e-01 3.651655703976452311e-02
4.024110787027097558e+03 7.472938070948418332e-01 3.350927108094463314e-02
4.028134897814125907e+03 8.181511774776204504e-01 3.046454858357699330e-02
4.032163032711941469e+03 8.913402358941802106e-01 3.078756223052671326e-02
4.036195195744654484e+03 9.522120492640986367e-01 3.278178166182875442e-02
4.040231390940400615e+03 1.003936225488706757e+00 3.473550192591864233e-02
4.044271622331342314e+03 1.037229783202760602e+00 3.226556807207156541e-02
4.048315893953675186e+03 1.072034994882599790e+00 2.588665785864992588e-02
4.052364209847629809e+03 1.140773125378705899e+00 3.111904437369630849e-02
4.056416574057479011e+03 1.190424645136320736e+00 3.106209596180407526e-02
4.060472990631537868e+03 1.234481135802980578e+00 3.104069502084895460e-02
4.064533463622170530e+03 1.287861823311716059e+00 3.026458702410222620e-02
4.068597997085794304e+03 1.340106601771543726e+00 2.959720314357779450e-02
4.072666595082881486e+03 1.390900795065620921e+00 2.759675882770088948e-02
4.076739261677965715e+03 1.431474255099141502e+00 2.717646471339999273e-02
4.080816000939644709e+03 1.463237004606624758e+00 2.572474198846579768e-02
4.084896816940585722e+03 1.471590403231358257e+00 2.577961782233750485e-02
4.088981713757527814e+03 1.455638048478262725e+00 2.856915732543335515e-02
4.093070695471286854e+03 1.422838472773567009e+00 3.583769630570256270e-02
4.097163766166759160e+03 1.355253687129349460e+00 3.748171442002407733e-02
4.101260929932927866e+03 1.248863713283980825e+00 3.699933983339125793e-02
4.105362190862862008e+03 1.114641022342872656e+00 3.696783030793830693e-02
4.109467553053726078e+03 9.451215315302803344e-01 4.452595010162483519e-02
4.113577020606780934e+03 7.602504506346007274e-01 5.236713804798254213e-02
4.117690597627389252e+03 5.904282617681386736e-01 5.418305667569869866e-02
4.121808288225018259e+03 4.131640424454212090e-01 6.075251043793152006e-02
4.125930096513244280e+03 2.516666337358041683e-01 6.084706656283200149e-02
4.130056026609759101e+03 9.231225491417560658e-02 5.485272167548998351e-02
4.134186082636369974e+03 -1.511249544666759537e-02 4.872349518521959522e-02
4.138320268719007800e+03 -6.468185199489662196e-02 4.398872765437919496e-02
4.142458588987728035e+03 -5.594044431146527607e-02 4.918273589921020456e-02
4.146601047576717065e+03 3.079566577662851135e-02 5.782005341540879390e-02
4.150747648624294925e+03 1.532784929203442892e-01 5.022407960915818009e-02
4.154898396272920763e+03 2.774071713999906597e-01 4.222606226494626108e-02
4.159053294669195566e+03 4.123994689556372828e-01 4.006034549816207824e-02
4.163212347963865795e+03 5.525995668515043535e-01 3.384052332308248867e-02
4.167375560311830668e+03 6.762937081866653433e-01 3.282297624763359095e-02
4.171542935872143971e+03 7.635074984430616496e-01 3.351430167204168947e-02
4.175714478808017702e+03 8.013528208940109421e-01 3.116423859844213301e-02
4.179890193286827525e+03 8.162255432270715261e-01 3.022065909825905408e-02
4.184070083480115500e+03 8.281484327180943517e-01 3.146333919914200139e-02
4.188254153563597356e+03 7.951637212857327608e-01 3.169748746543186307e-02
4.192442407717161586e+03 7.292808105024835008e-01 3.670849431505029958e-02
4.196634850124880359e+03 6.532671017860806062e-01 4.283955589677131137e-02
4.200831484975006788e+03 5.805245096296403062e-01 4.297424563913693901e-02
4.205032316459983122e+03 5.004120497097950260e-01 4.790918149884916544e-02
4.209237348776444378e+03 4.498822503634755665e-01 4.656575533921789717e-02
4.213446586125221984e+03 4.493240873263876778e-01 4.622522549381424123e-02
4.217660032711349231e+03 4.765264901938505715e-01 4.739861374519815235e-02
4.221877692744061278e+03 5.225022061023911757e-01 4.932373646627760677e-02
4.226099570436806971e+03 6.108641725874770501e-01 5.462964499515150785e-02
4.230325670007245208e+03 7.210682081683434941e-01 5.233198355494150800e-02
4.234555995677254032e+03 8.295834312304470881e-01 3.630745293547679026e-02
4.238790551672932452e+03 8.982204302664460460e-01 3.969508026970951925e-02
4.243029342224606808e+03 9.397825077958855688e-01 4.333142195991240148e-02
4.247272371566832589e+03 9.820987748255852745e-01 4.373137983534843704e-02
4.251519643938400804e+03 1.011613756421797294e+00 4.233264450981354121e-02
4.255771163582340705e+03 1.028719407358248628e+00 4.127561547943894849e-02
4.260026934745924336e+03 1.015366209615315540e+00 3.410392618237449019e-02
4.264286961680671993e+03 1.017315970853524210e+00 3.866922801736492887e-02
4.268551248642354039e+03 1.027951309166242666e+00 3.515282897479503343e-02
4.272819799890998183e+03 1.008484416076991463e+00 3.294534806016712752e-02
4.277092619690890388e+03 9.761486008194188990e-01 3.381773983214800272e-02
4.281369712310583054e+03 9.335145111678867513e-01 3.573579451812195634e-02
4.285651082022895025e+03 8.688436588987932252e-01 3.617068139619977751e-02
4.289936733104918858e+03 8.027036243849905439e-01 3.318603792319593099e-02
4.294226669838025373e+03 7.620624191732676689e-01 3.468500267641811546e-02
4.298520896507864563e+03 7.240426640228408983e-01 4.050345886143410373e-02
4.302819417404373780e+03 6.838947664461572096e-01 4.298546799449344535e-02
4.307122236821779552e+03 6.492011854626780210e-01 4.014280107807280396e-02
4.311429359058603040e+03 6.099303143931236182e-01 3.706596652984840701e-02
4.315740788417662770e+03 5.638562741873697215e-01 4.007154990689978935e-02
4.320056529206081905e+03 5.113318668145194756e-01 3.903577862268378662e-02
4.324376585735290064e+03 4.657910758442240229e-01 3.882737538818215040e-02
4.328700962321026054e+03 4.242394183338458746e-01 4.146701986918754912e-02
4.333029663283348782e+03 3.737094349709061403e-01 4.215420780782450083e-02
4.337362692946633615e+03 3.152262088924480121e-01 4.210308282178633343e-02
4.341700055639581478e+03 2.553334115715003572e-01 4.185964543712897279e-02
4.346041755695222491e+03 2.118681685591914943e-01 4.425665317279395966e-02
4.350387797450919606e+03 1.854850940782488689e-01 4.940391150357751476e-02
4.354738185248371337e+03 1.747619861910504335e-01 5.239369266372282535e-02
4.359092923433621763e+03 2.103994036499164388e-01 5.135161880446158233e-02
4.363452016357056891e+03 2.721457662712933323e-01 5.017478615534373687e-02
4.367815468373414660e+03 3.533591285157750561e-01 4.851319389661946230e-02
4.372183283841789489e+03 4.629959498052790279e-01 5.410745275935373300e-02
4.376555467125633186e+03 6.142333118885241472e-01 6.016256742622621417e-02
4.380932022592760404e+03 7.606170254564326161e-01 5.020392166332200007e-02
4.385312954615354101e+03 8.849559393447085087e-01 4.749980510849933363e-02
4.389698267569970994e+03 9.971172156109540108e-01 5.084047965172319022e-02
4.394087965837542470e+03 1.074533935998502443e+00 5.582538385547090865e-02
4.398482053803381859e+03 1.149084851077504243e+00 5.045506788879366294e-02
4.402880535857186260e+03 1.217333500107746325e+00 5.094444148199075290e-02
4.407283416393044718e+03 1.270116538237910930e+00 5.661734613416959105e-02
4.411690699809440048e+03 1.306560059728332224e+00 6.107592297539961995e-02
4.416102390509250654e+03 1.307231245736278913e+00 5.932793077750687927e-02
4.420518492899761441e+03 1.284188784077687995e+00 5.486540865682834611e-02
4.424939011392662906e+03 1.235852950074625367e+00 5.462409585417876690e-02
4.429363950404056595e+03 1.149837190728198566e+00 6.223284699937625675e-02
4.433793314354462382e+03 1.060431170432942105e+00 6.208687210667809125e-02
4.438227107668818462e+03 9.638659538768800106e-01 5.705110434122482449e-02
4.442665334776488635e+03 8.963457345902043905e-01 5.369259842306411956e-02
4.447108000111265937e+03 8.389527455774964393e-01 4.675263989335751852e-02
4.451555108111379013e+03 8.330125209455063739e-01 4.520950790244027823e-02
4.456006663219492111e+03 8.880015521389164057e-01 4.455315107964866184e-02
4.460462669882713271e+03 1.003699003528465195e+00 3.412089476486079159e-02
4.464923132552597053e+03 1.141222706132504872e+00 3.522556032844604418e-02
4.469388055685150903e+03 1.311450037626784582e+00 3.516574564004502218e-02
4.473857443740837880e+03 1.507280713513868609e+00 3.736903024372483645e-02
4.478331301184580298e+03 1.697982256110699861e+00 3.754311040601299859e-02
4.482809632485766087e+03 1.909977534622924189e+00 4.758026333945142988e-02
4.487292442118253348e+03 2.106353007396369659e+00 5.038993619891606046e-02
4.491779734560373072e+03 2.277638829010001587e+00 4.577186919847289065e-02
4.496271514294934605e+03 2.410659752858288041e+00 3.504395546907922154e-02
4.500767785809231100e+03 2.477505624470791368e+00 3.955876999991268100e-02
4.505268553595042249e+03 2.497266988289478462e+00 5.181584318600863936e-02
4.509773822148638828e+03 2.476439804724211768e+00 6.178635805110031798e-02
4.514283595970789065e+03 2.451826543556763216e+00 5.348909073635040035e-02
4.518797879566761367e+03 2.455779263614782160e+00 4.469148199490122209e-02
4.523316677446328868e+03 2.486284309639252843e+00 3.662612894209859443e-02
4.527839994123776705e+03 2.558862024849339001e+00 3.665030523126616702e-02
4.532367834117902021e+03 2.662487962683064868e+00 3.731779913680657867e-02
4.536900201952022144e+03 2.817885461021565341e+00 3.485662314780424431e-02
4.541437102153975502e+03 2.993827724591074713e+00 3.092796746205874955e-02
4.545978539256130716e+03 3.162517698960359169e+00 2.478136483908645327e-02
4.550524517795388419e+03 3.305043752482374586e+00 2.520288670909169929e-02
4.555075042313184895e+03 3.428324746288937686e+00 2.324392108412195665e-02
4.559630117355500261e+03 3.500672611242926280e+00 2.417198568928977456e-02
4.564189747472856652e+03 3.509883927568199891e+00 2.652078341718761695e-02
4.568753937220330954e+03 3.466214481922256230e+00 2.901456674776248593e-02
4.573322691157552981e+03 3.350978104726880069e+00 3.042669039241967591e-02
4.577896013848711846e+03 3.169492244243092838e+00 2.581140200226740913e-02
4.582473909862562323e+03 2.913284272741308190e+00 3.774401448970674672e-02
4.587056383772426670e+03 2.593115506286503003e+00 6.292483670565657272e-02
4.591643440156200086e+03 2.261524192717126347e+00 7.164136558525982523e-02
4.596235083596357981e+03 1.947781709070805389e+00 6.098157031727279020e-02
4.600831318679955984e+03 1.700651168972998173e+00 5.088181922581083705e-02
4.605432149998637215e+03 1.515435617071421159e+00 4.667267005615954867e-02
4.610037582148637739e+03 1.407633261718003848e+00 4.717487191117653023e-02
4.614647619730787483e+03 1.368864330886671032e+00 4.879023075688137395e-02
4.619262267350520233e+03 1.410412248641710331e+00 5.544580116098334760e-02
4.623881529617872729e+03 1.498357744912381495e+00 5.167571174582277077e-02
4.628505411147491941e+03 1.623492959795187929e+00 4.471551759479219096e-02
4.633133916558640522e+03 1.737074062128575180e+00 3.881159812968148354e-02
4.637767050475200449e+03 1.830715825578796307e+00 3.656906477226417457e-02
4.642404817525677572e+03 1.859987083154764465e+00 3.485444837758543829e-02
4.647047222343205249e+03 1.830663692690940092e+00 3.479501852719719263e-02
4.651694269565549803e+03 1.746229799827156093e+00 3.381314546868029181e-02
4.656345963835116891e+03 1.617461364617831965e+00 3.433591360161816763e-02
4.661002309798953320e+03 1.462121463651520514e+00 3.405604989225278351e-02
4.665663312108753416e+03 1.269175030333760112e+00 4.494671945701021742e-02
4.670328975420864481e+03 1.046591571503860951e+00 5.398590112805470159e-02
4.674999304396286789e+03 8.299979437434754637e-01 4.708669430019443020e-02
4.679674303700684504e+03 6.648956164149902870e-01 3.487810539328201759e-02
4.684353978004386590e+03 5.593034583673089921e-01 3.431747921064041973e-02
4.689038331982392265e+03 5.209206293219602601e-01 3.660609253067786256e-02
4.693727370314376458e+03 5.215431654423574592e-01 3.712969314210380622e-02
4.698421097684692540e+03 5.730638808525991834e-01 3.597942854775281613e-02
4.703119518782378691e+03 6.696100282098295109e-01 3.489415792710848924e-02
4.707822638301162442e+03 8.099497664097279337e-01 3.119823560204010304e-02
4.712530460939465229e+03 9.639685004406216562e-01 3.110472427276929699e-02
4.717242991400406027e+03 1.145205286597279715e+00 3.137414478646023686e-02
4.721960234391808626e+03 1.335375916885979120e+00 4.049803366028650181e-02
4.726682194626201635e+03 1.515262962723503026e+00 4.486381720076276086e-02
4.731408876820829391e+03 1.635602950421121138e+00 4.514157368098985212e-02
4.736140285697651962e+03 1.731860747272356171e+00 4.511213318842065972e-02
4.740876425983350600e+03 1.777484244718161799e+00 4.426668496370633754e-02
4.745617302409335934e+03 1.783672178808400677e+00 4.680777340858566921e-02
4.750362919711747054e+03 1.754530981908222209e+00 5.560099777267499960e-02
4.755113282631459697e+03 1.679649555637441338e+00 5.982385407301758079e-02
4.759868395914093526e+03 1.595866654633451676e+00 4.887032808762728497e-02
4.764628264310008490e+03 1.515619362013506333e+00 3.595727332837207052e-02
4.769392892574320285e+03 1.468812057721079256e+00 4.396877208252292918e-02
4.774162285466896719e+03 1.434376582539871325e+00 5.095648397575737454e-02
4.778936447752364984e+03 1.398786834907510546e+00 4.866820974480834394e-02
4.783715384200118933e+03 1.362098696721697477e+00 4.331868951776504661e-02
4.788499099584319993e+03 1.311660641936452265e+00 4.561206329175215846e-02
4.793287598683906253e+03 1.265926076199470396e+00 4.733947081652176148e-02
4.798080886282591564e+03 1.206135049134061221e+00 4.961636478490245167e-02
4.802878967168876443e+03 1.149192746905661533e+00 4.459699700801805083e-02
4.807681846136046261e+03 1.100960964256196384e+00 4.422981227250470659e-02
4.812489527982183972e+03 1.069238150161561762e+00 5.218908948581068435e-02
4.817302017510168298e+03 1.028153722672126014e+00 5.516256417796427253e-02
4.822119319527679181e+03 9.645770663928863176e-01 5.424880759011198317e-02
4.826941438847208701e+03 9.074304475029733030e-01 4.845845418676731492e-02
4.831768380286057436e+03 8.285187991194193913e-01 5.420843246111091418e-02
4.836600148666345376e+03 7.546274635382528295e-01 5.701849599938775548e-02
4.841436748815013743e+03 6.678354128718219096e-01 5.677013876005881921e-02
4.846278185563829538e+03 5.877345850900229651e-01 4.869892328724414327e-02
4.851124463749395545e+03 5.316153636710956309e-01 4.747787186386800973e-02
4.855975588213146693e+03 4.925315602062834142e-01 5.281393557938499073e-02
4.860831563801360971e+03 4.825944366822128573e-01 5.536802843996436324e-02
4.865692395365163975e+03 4.766797106494782277e-01 4.904346477655222025e-02
4.870558087760530725e+03 4.713686614341596193e-01 4.465202560628199480e-02
4.875428645848292945e+03 4.705017584036881306e-01 4.558945224449173494e-02
4.880304074494142696e+03 4.560928709204240539e-01 5.241238808520231468e-02
4.885184378568638749e+03 4.641075738496262537e-01 5.233776182829716350e-02
4.890069562947209306e+03 4.784613214106837042e-01 3.968471495291432671e-02
4.894959632510157462e+03 5.339670149922730591e-01 2.992004721007403972e-02
4.899854592142669389e+03 6.400614185610384865e-01 3.659044564057204602e-02
4.904754446734813428e+03 7.823128191482424665e-01 4.112471956455460154e-02
4.909659201181550088e+03 9.412668086628694919e-01 3.616105973728861445e-02
4.914568860382732964e+03 1.102007802144594484e+00 3.068124264012418723e-02
4.919483429243117826e+03 1.245143402589779846e+00 2.198414282837518607e-02
4.924402912672362618e+03 1.357739150022862384e+00 1.995580663340447078e-02
4.929327315585036558e+03 1.434928584829435749e+00 1.838508832562379958e-02
4.934256642900622865e+03 1.451932560764793489e+00 1.804128528517379149e-02
4.939190899543525120e+03 1.435266251071903199e+00 1.557819537518532506e-02
