# starting wavelength: 3641.570
# ending wavelength: 7164.280
# wav flux eflux
3.644989303945070333e+03 2.313475944645506654e-01 3.713855851823164717e-02
3.648634293249016537e+03 2.163194601535399775e-01 3.057258150990723941e-02
3.652282927542266862e+03 2.116062271926691940e-01 2.348096910711022084e-02
3.655935210469810499e+03 2.202169556522331484e-01 1.829583619351576873e-02
3.659591145680281443e+03 2.359288217458161696e-01 1.493617583344018264e-02
3.663250736825963031e+03 2.571096152312435934e-01 1.462796315102869033e-02
3.666913987562790226e+03 2.755427669064916540e-01 1.171197728349812964e-02
3.670580901550354156e+03 2.957293101015096570e-01 9.910800846366913178e-03
3.674251482451905758e+03 3.158612709818665043e-01 8.469595209384462794e-03
3.677925733934358959e+03 3.368948192015986942e-01 7.446165064425102655e-03
3.681603659668294313e+03 3.572969682207033926e-01 6.590846022074573970e-03
3.685285263327964003e+03 3.741443018950422750e-01 6.696960802443720044e-03
3.688970548591293209e+03 3.892578938526092269e-01 6.720931753925068509e-03
3.692659519139885560e+03 4.023908795463559396e-01 6.936569913187721689e-03
3.696352178659026777e+03 4.173062536354599228e-01 6.567644330453059967e-03
3.700048530837686940e+03 4.314481605873793368e-01 6.281170080632117285e-03
3.703748579368525952e+03 4.451742977906174015e-01 6.263246915544418147e-03
3.707452327947895355e+03 4.587772209650896604e-01 6.285950912030526840e-03
3.711159780275844696e+03 4.701619045110364548e-01 6.250804082942353936e-03
3.714870940056121526e+03 4.808210477689472406e-01 6.501548644859191442e-03
3.718585810996179134e+03 4.892429183947692439e-01 7.209701595764822675e-03
3.722304396807176545e+03 4.950137998321672561e-01 7.508696255538700910e-03
3.726026701203984885e+03 4.976224469335064904e-01 7.590906948213591542e-03
3.729752727905190113e+03 4.987782926954532625e-01 7.504167632919931698e-03
3.733482480633096657e+03 4.960104660826031298e-01 7.401010298910569440e-03
3.737215963113731050e+03 4.928223036254318901e-01 7.282707373673516851e-03
3.740953179076846027e+03 4.844969428788173937e-01 8.030830300443034253e-03
3.744694132255923705e+03 4.759078302470497457e-01 8.516659737483412221e-03
3.748438826388181042e+03 4.664587298198386578e-01 9.034818845864133960e-03
3.752187265214570289e+03 4.556677042651032794e-01 9.543402066697726643e-03
3.755939452479786269e+03 4.432766060652137408e-01 9.326494387921458254e-03
3.759695391932267285e+03 4.313491548749125437e-01 8.758697415596542607e-03
3.763455087324201031e+03 4.211186607915795022e-01 8.243484242591622713e-03
3.767218542411526414e+03 4.135486932557352335e-01 8.117741778836451427e-03
3.770985760953939007e+03 4.059052060474853674e-01 7.833055519834115216e-03
3.774756746714894234e+03 4.003927832903604322e-01 8.007425608129010997e-03
3.778531503461610555e+03 3.986690530158127355e-01 7.995787460469973643e-03
3.782310034965073100e+03 3.986394347104285085e-01 8.069785459001442215e-03
3.786092345000039586e+03 4.001960267086375200e-01 8.352490723586127389e-03
3.789878437345040766e+03 4.065521425031275449e-01 8.267128598345083873e-03
3.793668315782387253e+03 4.206457109101332525e-01 8.187948178833925547e-03
3.797461984098170888e+03 4.395931167886111268e-01 8.074642541367547943e-03
3.801259446082270188e+03 4.625745520114748488e-01 7.379215849834541881e-03
3.805060705528353537e+03 4.844534350838440862e-01 7.219038963713410827e-03
3.808865766233883278e+03 5.035975138618686842e-01 7.492514300566442860e-03
3.812674632000118436e+03 5.241647267288932488e-01 7.746767570953021730e-03
3.816487306632119726e+03 5.425803837708678135e-01 7.872381764885154690e-03
3.820303793938753188e+03 5.608706560388079243e-01 7.966877263763052011e-03
3.824124097732693372e+03 5.765925685066326523e-01 8.258099067958666120e-03
3.827948221830427428e+03 5.908776446074237576e-01 8.380492941017064421e-03
3.831776170052258749e+03 6.053155007369708240e-01 8.032201558671349731e-03
3.835607946222312421e+03 6.145815343443240542e-01 7.585790369523881353e-03
3.839443554168536139e+03 6.191138489027275815e-01 8.459090214691279350e-03
3.843282997722705659e+03 6.204549501976600601e-01 1.025825457053201710e-02
3.847126280720429804e+03 6.261963238631388373e-01 1.068338041443167227e-02
3.850973407001151372e+03 6.237551698823270430e-01 1.178716361054629388e-02
3.854824380408153957e+03 6.202525597807494462e-01 1.080436510969519717e-02
3.858679204788563311e+03 6.183297022145683997e-01 8.567927750024394509e-03
3.862537883993353262e+03 6.263101797091052969e-01 8.939631102731784851e-03
3.866400421877347981e+03 6.374196397842716300e-01 1.008388354423225310e-02
3.870266822299226533e+03 6.518619311912970948e-01 1.098964969182523489e-02
3.874137089121526969e+03 6.702472483797667913e-01 1.112087923883950391e-02
3.878011226210649966e+03 6.892724882359071437e-01 9.723750432311439873e-03
3.881889237436861549e+03 7.076214965137941348e-01 9.282526299632632219e-03
3.885771126674299921e+03 7.231752924711786212e-01 9.568883019011594632e-03
3.889656897800975457e+03 7.372399562497905512e-01 1.045376730853269688e-02
3.893546554698777527e+03 7.511378921164370004e-01 1.107320545864865814e-02
3.897440101253477678e+03 7.664793879963341938e-01 1.110423178354947790e-02
3.901337541354732366e+03 7.820173683552271715e-01 1.106026236195960244e-02
3.905238878896088409e+03 7.968117886574559439e-01 1.104359421211708811e-02
3.909144117774985716e+03 8.116109263329446266e-01 1.181007209146990936e-02
3.913053261892762293e+03 8.220949586914673146e-01 1.195262296040321484e-02
3.916966315154656058e+03 8.280964342343787310e-01 1.250221743164716716e-02
3.920883281469812118e+03 8.358424847037091432e-01 1.298001065800596758e-02
3.924804164751283224e+03 8.410051797935055307e-01 1.276617752218851820e-02
3.928728968916035683e+03 8.542096856178906794e-01 9.423784577417606070e-03
3.932657697884953450e+03 8.507888786150099580e-01 1.151610251044964638e-02
3.936590355582839493e+03 8.410872156431051794e-01 1.544547267802615781e-02
3.940526945938423523e+03 8.308854548233900461e-01 1.598028249090040209e-02
3.944467472884363360e+03 8.255773544112520179e-01 1.369466078554412714e-02
3.948411940357249023e+03 8.239622542909674774e-01 1.145979273155217464e-02
3.952360352297607733e+03 8.248275290392104164e-01 1.129313958303053422e-02
3.956312712649906643e+03 8.371760004954920120e-01 1.400931429030016252e-02
3.960269025362557841e+03 8.594946252897056604e-01 1.664828194694473532e-02
3.964229294387921527e+03 8.811742932048636234e-01 1.480593306555002923e-02
3.968193523682310570e+03 8.922795198792121685e-01 1.270357489901260614e-02
3.972161717205994591e+03 8.921584022072392983e-01 1.460667746026896724e-02
3.976133878923201792e+03 8.876185368611788640e-01 1.667360274291079109e-02
3.980110012802126221e+03 8.814957201263341480e-01 1.752282100294888165e-02
3.984090122814929600e+03 8.746761571737701191e-01 1.666524372742567150e-02
3.988074212937745870e+03 8.650944531854261044e-01 1.616734728417550462e-02
3.992062287150684824e+03 8.567508952424610635e-01 1.479338675245542301e-02
3.996054349437837118e+03 8.562000839501590077e-01 1.597683706060860215e-02
4.000050403787276082e+03 8.564345236074343282e-01 1.751037759573438601e-02
4.004050454191064546e+03 8.596705318339500357e-01 1.672270978428030616e-02
4.008054504645257111e+03 8.659562323081521074e-01 1.511327192812983271e-02
4.012062559149903791e+03 8.745449144842659672e-01 1.215461944899658489e-02
4.016074621709055009e+03 8.762939930605636585e-01 1.318300241918781562e-02
4.020090696330765240e+03 8.725500836609886290e-01 1.434865715903417722e-02
4.024110787027097558e+03 8.733625768255077748e-01 1.285077779207028162e-02
4.028134897814125907e+03 8.841048077397339888e-01 1.193829577076724845e-02
4.032163032711941469e+03 8.968195288966176459e-01 1.063410098991895980e-02
4.036195195744654484e+03 9.198276640038960394e-01 1.193619607450097098e-02
4.040231390940400615e+03 9.505542448235289044e-01 1.195739500481353586e-02
4.044271622331342314e+03 9.806581165987557913e-01 8.612221279336891924e-03
4.048315893953675186e+03 1.004253862205272352e+00 7.181166085907461812e-03
4.052364209847629809e+03 1.019278825789630805e+00 7.576949219221355836e-03
4.056416574057479011e+03 1.028149899694988489e+00 7.531639823280520708e-03
4.060472990631537868e+03 1.028924255031595347e+00 7.488048396413332468e-03
4.064533463622170530e+03 1.021504222965273989e+00 7.999747500457378424e-03
4.068597997085794304e+03 1.001285047341497592e+00 7.734522001296343860e-03
4.072666595082881486e+03 9.758867776178574704e-01 7.588092412774848430e-03
4.076739261677965715e+03 9.425656556039785361e-01 7.318968947502092759e-03
4.080816000939644709e+03 8.994249801239210251e-01 8.409377840004119212e-03
4.084896816940585722e+03 8.558044819098528100e-01 9.900816683956429470e-03
4.088981713757527814e+03 8.124965112368884856e-01 1.073035445861981498e-02
4.093070695471286854e+03 7.735090815961770394e-01 1.059791734975899964e-02
4.097163766166759160e+03 7.389305343665022452e-01 7.891903477472480416e-03
4.101260929932927866e+03 7.163497711848700877e-01 7.738938653763559675e-03
4.105362190862862008e+03 7.066280650814151798e-01 8.791349246212191645e-03
4.109467553053726078e+03 7.011353992289318660e-01 8.762559562302006666e-03
4.113577020606780934e+03 7.086617814261874093e-01 7.969445516194668955e-03
4.117690597627389252e+03 7.241840205204311820e-01 5.889773066122548466e-03
4.121808288225018259e+03 7.424356056281047334e-01 5.253885791645638605e-03
4.125930096513244280e+03 7.640953948395031725e-01 5.636823109184427132e-03
4.130056026609759101e+03 7.811348644879380076e-01 5.501487967295925000e-03
4.134186082636369974e+03 7.981237310541559049e-01 5.490568127985762971e-03
4.138320268719007800e+03 8.149871395754767489e-01 5.399244779466144499e-03
4.142458588987728035e+03 8.319194357360203407e-01 5.413716863427666878e-03
4.146601047576717065e+03 8.474077312116468086e-01 5.332382778749940495e-03
4.150747648624294925e+03 8.641699733894609992e-01 5.172629689665006296e-03
4.154898396272920763e+03 8.790700165043812131e-01 5.103367042133505165e-03
4.159053294669195566e+03 8.907296625044522909e-01 5.081061530758160076e-03
4.163212347963865795e+03 8.999268838303512430e-01 5.001342583615791745e-03
4.167375560311830668e+03 9.053120450604125180e-01 4.877937030755507240e-03
4.171542935872143971e+03 9.086769974446071707e-01 5.668751105608667296e-03
4.175714478808017702e+03 9.081796178012783161e-01 5.751633979161692618e-03
4.179890193286827525e+03 9.051843463974309500e-01 4.663458155289493604e-03
4.184070083480115500e+03 8.932260647151967214e-01 3.934238787991433881e-03
4.188254153563597356e+03 8.721186984202031756e-01 5.140976668555339787e-03
4.192442407717161586e+03 8.487255725118466598e-01 5.519531401753749456e-03
4.196634850124880359e+03 8.218089830301043008e-01 5.190425050185716073e-03
4.200831484975006788e+03 7.961502908133336609e-01 4.766127664604924256e-03
4.205032316459983122e+03 7.769822881795898084e-01 4.714180262737761341e-03
4.209237348776444378e+03 7.593257695226512949e-01 3.792229967069742688e-03
4.213446586125221984e+03 7.486243407000799932e-01 3.823627351921039634e-03
4.217660032711349231e+03 7.449757402025036779e-01 4.814039988900661003e-03
4.221877692744061278e+03 7.454606882104886090e-01 4.999878678787928778e-03
4.226099570436806971e+03 7.502347253923595805e-01 4.622282554582856327e-03
4.230325670007245208e+03 7.553212301116060123e-01 4.565423534933872249e-03
4.234555995677254032e+03 7.635607565062251245e-01 4.452836502713230366e-03
4.238790551672932452e+03 7.713656211298454135e-01 4.958860417385365683e-03
4.243029342224606808e+03 7.818687051367084750e-01 4.817426141974818707e-03
4.247272371566832589e+03 7.932030673704166812e-01 5.381393980692836775e-03
4.251519643938400804e+03 8.038036067842088128e-01 5.462407857024354982e-03
4.255771163582340705e+03 8.130068046931838710e-01 5.491395016702840109e-03
4.260026934745924336e+03 8.239552828759637570e-01 5.590426189163911867e-03
4.264286961680671993e+03 8.276567968690196064e-01 5.481518150423336441e-03
4.268551248642354039e+03 8.277108010416527328e-01 5.597367687309775727e-03
4.272819799890998183e+03 8.257530714327961929e-01 5.758951240047813225e-03
4.277092619690890388e+03 8.196320287270734140e-01 6.488974698792450771e-03
4.281369712310583054e+03 8.124015131817305946e-01 6.310198465437746006e-03
4.285651082022895025e+03 8.063443662262383960e-01 5.854657034126932273e-03
4.289936733104918858e+03 8.010702542767511591e-01 5.194885502791320511e-03
4.294226669838025373e+03 7.985509883451095137e-01 5.393245343094658223e-03
4.298520896507864563e+03 7.987151828893350736e-01 5.279013237734392870e-03
4.302819417404373780e+03 8.008732606855417657e-01 5.210451452656399834e-03
4.307122236821779552e+03 8.076447137624627182e-01 4.693249155936283015e-03
4.311429359058603040e+03 8.118022067664029118e-01 5.591281627942474089e-03
4.315740788417662770e+03 8.225719869796622730e-01 5.666713935412339906e-03
4.320056529206081905e+03 8.323021012054373502e-01 5.481836134362903963e-03
4.324376585735290064e+03 8.447867066888747889e-01 6.242712770028093459e-03
4.328700962321026054e+03 8.568598957770581226e-01 6.478372018102625772e-03
4.333029663283348782e+03 8.626797741358301908e-01 6.445610507844013425e-03
4.337362692946633615e+03 8.675956277364285096e-01 6.411668931554324706e-03
4.341700055639581478e+03 8.709647135860116851e-01 5.163796391999811095e-03
4.346041755695222491e+03 8.669628543651344277e-01 5.844262383149199241e-03
4.350387797450919606e+03 8.596233704833362577e-01 6.423878613096172842e-03
4.354738185248371337e+03 8.499857132413548566e-01 6.431294066028281527e-03
4.359092923433621763e+03 8.374345326214585050e-01 5.401001985932765009e-03
4.363452016357056891e+03 8.262552563054720300e-01 5.153546647191429089e-03
4.367815468373414660e+03 8.143973234695387475e-01 4.976930615951277899e-03
4.372183283841789489e+03 8.064129873741784360e-01 5.133647807934946239e-03
4.376555467125633186e+03 7.987961562447439823e-01 4.764393676557602056e-03
4.380932022592760404e+03 7.928758633475812001e-01 4.463400769791459055e-03
4.385312954615354101e+03 7.855929349785174542e-01 4.849009833723143086e-03
4.389698267569970994e+03 7.812950265215228285e-01 4.790124101123316956e-03
4.394087965837542470e+03 7.735561386191183164e-01 4.083540782291412291e-03
4.398482053803381859e+03 7.726687661497604331e-01 4.122311331007232939e-03
4.402880535857186260e+03 7.737927063471523592e-01 4.655110254338316531e-03
4.407283416393044718e+03 7.767796731870888483e-01 4.775502230580725566e-03
4.411690699809440048e+03 7.818420364028267899e-01 5.153200506072619716e-03
4.416102390509250654e+03 7.850092922624268832e-01 5.082834496018475041e-03
4.420518492899761441e+03 7.899541384233488284e-01 4.585109661233362742e-03
4.424939011392662906e+03 7.946721038180393215e-01 4.845045221199184050e-03
4.429363950404056595e+03 7.987726849527932993e-01 4.937261274344944412e-03
4.433793314354462382e+03 8.045701450120076315e-01 4.687132510457373523e-03
4.438227107668818462e+03 8.110396567059264816e-01 4.543187462553132695e-03
4.442665334776488635e+03 8.215588588087791022e-01 4.122896333228533335e-03
4.447108000111265937e+03 8.384607434062621989e-01 5.531889237467537725e-03
4.451555108111379013e+03 8.531991446848112837e-01 5.494027503147159638e-03
4.456006663219492111e+03 8.720939464627073257e-01 5.200182690207093110e-03
4.460462669882713271e+03 8.906371217671698037e-01 5.127753437427685738e-03
4.464923132552597053e+03 9.122637565726459119e-01 4.489576954870115599e-03
4.469388055685150903e+03 9.295299274656818600e-01 5.855355265417867827e-03
4.473857443740837880e+03 9.499012315238524184e-01 5.910617932665611363e-03
4.478331301184580298e+03 9.685805330390525603e-01 4.887190363017656324e-03
4.482809632485766087e+03 9.897900337443057417e-01 5.430451260762018950e-03
4.487292442118253348e+03 1.011417784817736587e+00 7.276645378023746842e-03
4.491779734560373072e+03 1.027937342489721129e+00 7.732534372239254286e-03
4.496271514294934605e+03 1.040642875981641957e+00 6.705228415793760242e-03
4.500767785809231100e+03 1.045867805329898648e+00 6.455655435880931423e-03
4.505268553595042249e+03 1.045209325915327891e+00 6.786290504785855854e-03
4.509773822148638828e+03 1.039332650953946668e+00 7.578277062453315539e-03
4.514283595970789065e+03 1.030781703079613143e+00 7.818886637255797328e-03
4.518797879566761367e+03 1.020126455353864481e+00 7.498247521832224552e-03
4.523316677446328868e+03 1.007144391334189537e+00 5.615536846738495257e-03
4.527839994123776705e+03 9.991003560847029341e-01 5.007086423103122852e-03
4.532367834117902021e+03 9.968775078523836042e-01 5.227863839584942496e-03
4.536900201952022144e+03 9.963088660228737181e-01 5.336565589236188199e-03
4.541437102153975502e+03 1.001120747435453540e+00 4.879068322156343562e-03
4.545978539256130716e+03 1.008767142281100648e+00 4.306276321219026579e-03
4.550524517795388419e+03 1.020425684260641397e+00 3.180568304970808093e-03
4.555075042313184895e+03 1.029568565340856612e+00 2.901289197906351935e-03
4.559630117355500261e+03 1.041753602642803367e+00 2.868710443069020285e-03
4.564189747472856652e+03 1.053590849780862371e+00 2.321118160202923029e-03
4.568753937220330954e+03 1.067429830894096821e+00 2.241827068367549525e-03
4.573322691157552981e+03 1.084547437745342124e+00 2.011758983504232691e-03
4.577896013848711846e+03 1.100468170698526205e+00 1.835103614811483229e-03
4.582473909862562323e+03 1.115253818562103705e+00 1.879688495662927387e-03
4.587056383772426670e+03 1.129353367697160104e+00 1.864627979874302786e-03
4.591643440156200086e+03 1.141811408543649264e+00 1.863323901159786179e-03
4.596235083596357981e+03 1.151887692366274418e+00 1.776640233262426205e-03
4.600831318679955984e+03 1.160374914532038115e+00 1.946133605120940833e-03
4.605432149998637215e+03 1.164845956483153699e+00 1.946081243539262871e-03
4.610037582148637739e+03 1.165979665610074933e+00 1.894965919194253889e-03
4.614647619730787483e+03 1.165413470189867073e+00 2.113367172005012774e-03
4.619262267350520233e+03 1.160027333899632307e+00 1.867591590784967431e-03
4.623881529617872729e+03 1.150148482694891339e+00 1.641773085679198779e-03
4.628505411147491941e+03 1.134565930718919535e+00 1.754270924375886430e-03
4.633133916558640522e+03 1.115206278703084086e+00 1.801654497212826439e-03
4.637767050475200449e+03 1.091758688982077619e+00 2.012582019189614914e-03
4.642404817525677572e+03 1.064734433970912830e+00 2.634490812182875823e-03
4.647047222343205249e+03 1.037143301765403480e+00 3.661166283743797108e-03
4.651694269565549803e+03 1.010650670538032703e+00 3.499397971108363439e-03
4.656345963835116891e+03 9.881046905464082597e-01 3.023397513677462695e-03
4.661002309798953320e+03 9.707249786423652882e-01 2.933222940420076967e-03
4.665663312108753416e+03 9.579085395654675095e-01 3.044837856585818226e-03
4.670328975420864481e+03 9.496780968278509816e-01 3.369747990792447412e-03
4.674999304396286789e+03 9.463128263261937345e-01 3.440778313492334328e-03
4.679674303700684504e+03 9.469737550749554034e-01 3.318981641881944659e-03
4.684353978004386590e+03 9.502490255209586900e-01 2.919095987191155234e-03
4.689038331982392265e+03 9.561544857125120478e-01 2.630001374129602599e-03
4.693727370314376458e+03 9.623022780993466530e-01 2.765182200407487190e-03
4.698421097684692540e+03 9.706635640304531742e-01 2.785776253458716479e-03
4.703119518782378691e+03 9.801577147121709466e-01 3.335115210729539328e-03
4.707822638301162442e+03 9.874985142016509121e-01 3.667732087243144937e-03
4.712530460939465229e+03 9.928524467244385088e-01 3.741133893192715321e-03
4.717242991400406027e+03 9.959194281916372571e-01 3.827625150117070114e-03
4.721960234391808626e+03 9.975147889656945654e-01 2.981792256822777491e-03
4.726682194626201635e+03 9.942553085009970815e-01 3.890911531261333038e-03
4.731408876820829391e+03 9.892303346183224377e-01 4.162927755910476001e-03
4.736140285697651962e+03 9.816224928735860500e-01 3.967501447135904705e-03
4.740876425983350600e+03 9.729542961993823402e-01 3.602239280901513990e-03
4.745617302409335934e+03 9.641879228729273166e-01 3.182777170761842082e-03
