# starting wavelength: 3491.860
# ending wavelength: 9963.790
# wav flux eflux
3.495143442410119405e+03 1.532551030855400009e+00 7.616065161724922504e-03
3.498638585852530468e+03 1.515374686632030121e+00 6.524594945815264529e-03
3.502137224438384237e+03 1.499241726601474811e+00 5.336195752537108324e-03
3.505639361662823831e+03 1.485398250808729781e+00 4.107437638763392247e-03
3.509145001024487556e+03 1.473476542181157534e+00 3.223355340747917526e-03
3.512654146025513455e+03 1.462585487289888908e+00 2.572109681139480263e-03
3.516166800171540217e+03 1.452728991701349504e+00 2.124942477687200015e-03
3.519682966971712631e+03 1.443943348038265073e+00 1.781033650140541888e-03
3.523202649938685681e+03 1.435915549297406280e+00 1.522093776682942540e-03
3.526725852588625457e+03 1.428252818495561405e+00 1.344718268579416691e-03
3.530252578441215064e+03 1.420782826616052041e+00 1.233715046206525614e-03
3.533782831019657806e+03 1.413404047442065492e+00 1.177019288897494321e-03
3.537316613850678550e+03 1.405863503444831686e+00 1.258733439906836379e-03
3.540853930464530094e+03 1.399101705224373937e+00 1.183589035927196630e-03
3.544394784394995895e+03 1.391669592610434325e+00 1.348689837105908817e-03
3.547939179179392340e+03 1.384614676268969058e+00 1.448073671553167701e-03
3.551487118358572843e+03 1.378091773864916991e+00 1.503797666300875878e-03
3.555038605476932389e+03 1.372186406286620697e+00 1.533894005685360442e-03
3.558593644082410719e+03 1.366927824473931796e+00 1.553857025869205934e-03
3.562152237726494150e+03 1.362216902988160339e+00 1.528964071565593790e-03
3.565714389964221937e+03 1.358035367521497561e+00 1.473705734232508410e-03
3.569280104354187188e+03 1.354037876336364077e+00 1.325861123368633461e-03
3.572849384458542772e+03 1.350996448694847585e+00 1.271746061280111225e-03
3.576422233843002232e+03 1.348443606793815697e+00 1.260767260542979646e-03
3.579998656076846601e+03 1.346441589409480555e+00 1.323074461737963657e-03
3.583578654732924406e+03 1.344963766479994272e+00 1.430405941783602537e-03
3.587162233387658489e+03 1.344039697194371108e+00 1.533782119567732262e-03
3.590749395621047370e+03 1.343454233564994604e+00 1.512155824339141271e-03
3.594340145016669794e+03 1.342959305691651561e+00 1.395354829744591303e-03
3.597934485161687462e+03 1.342499001171448825e+00 1.237491941164707218e-03
3.601532419646850485e+03 1.341841181834865004e+00 1.085470475542483484e-03
3.605133952066498296e+03 1.341209564648501162e+00 1.033516162301217987e-03
3.608739086018566013e+03 1.340052739463855280e+00 1.034326181948326756e-03
3.612347825104585809e+03 1.338648935377465765e+00 1.034735167318841026e-03
3.615960172929691907e+03 1.336985162680064176e+00 1.026238269880929950e-03
3.619576133102622407e+03 1.334841516511126924e+00 1.024260410267884480e-03
3.623195709235726554e+03 1.332108186311959930e+00 1.020557710381245859e-03
3.626818904944963379e+03 1.328877719065014285e+00 1.028366828486786079e-03
3.630445723849909427e+03 1.325122694083845865e+00 1.049658748084348996e-03
3.634076169573760581e+03 1.320159303221038360e+00 1.009160185019545523e-03
3.637710245743335690e+03 1.314777892382696933e+00 9.850955304535164662e-04
3.641347955989080219e+03 1.308946336439852809e+00 9.985144196281378354e-04
3.644989303945070333e+03 1.302551155492146506e+00 9.816006641502224555e-04
3.648634293249016537e+03 1.295466518390088639e+00 9.799898760755431770e-04
3.652282927542266862e+03 1.287682540032407452e+00 1.055774175106836358e-03
3.655935210469810499e+03 1.279669395944602828e+00 1.092080782281495705e-03
3.659591145680281443e+03 1.271336946385397182e+00 1.124438976550865086e-03
3.663250736825963031e+03 1.262590073024463466e+00 1.175432359253229288e-03
3.666913987562790226e+03 1.253341837985483709e+00 1.201294651201952274e-03
3.670580901550354156e+03 1.244038482464020268e+00 1.194598318861017291e-03
3.674251482451905758e+03 1.234345347900902778e+00 1.173912375050271050e-03
3.677925733934358959e+03 1.224498580862251274e+00 1.123921319268940660e-03
3.681603659668294313e+03 1.214604898935488064e+00 1.044234301804230483e-03
3.685285263327964003e+03 1.204877104736854054e+00 9.515921780136069128e-04
3.688970548591293209e+03 1.195404379853470589e+00 8.503951271834557079e-04
3.692659519139885560e+03 1.186213679558223211e+00 7.807013696520814783e-04
3.696352178659026777e+03 1.177522411550356640e+00 8.630561296651331890e-04
3.700048530837686940e+03 1.169303655067559733e+00 9.260666929462266781e-04
3.703748579368525952e+03 1.161441077395449772e+00 9.493712905624982846e-04
3.707452327947895355e+03 1.153995283893363588e+00 9.379354990746077963e-04
3.711159780275844696e+03 1.146724296725853076e+00 8.679770409187560418e-04
3.714870940056121526e+03 1.139244697393412720e+00 8.378054116295640449e-04
3.718585810996179134e+03 1.131403203167945293e+00 8.401505081635830558e-04
3.722304396807176545e+03 1.123038023833708321e+00 8.393986167997289022e-04
3.726026701203984885e+03 1.113930461807669081e+00 8.748660514330673004e-04
3.729752727905190113e+03 1.104197189113370170e+00 8.376964162897072115e-04
3.733482480633096657e+03 1.093630003801801864e+00 7.674798935841662447e-04
3.737215963113731050e+03 1.082587368681568574e+00 7.470042663779501938e-04
3.740953179076846027e+03 1.070836420701502867e+00 7.585368978210165099e-04
3.744694132255923705e+03 1.058749372933323940e+00 7.747366966797526689e-04
3.748438826388181042e+03 1.046386615084009097e+00 8.593746956471123855e-04
3.752187265214570289e+03 1.033879441667176824e+00 9.966070801956472634e-04
3.755939452479786269e+03 1.021445004786383448e+00 1.166540718819358401e-03
3.759695391932267285e+03 1.009446561561731848e+00 1.430568470132966745e-03
3.763455087324201031e+03 9.974542339510164002e-01 1.613294658552453598e-03
3.767218542411526414e+03 9.871022770649225953e-01 1.568364267331688947e-03
3.770985760953939007e+03 9.786533627661075929e-01 1.315074091507014483e-03
3.774756746714894234e+03 9.724492368471475690e-01 1.131936516203405812e-03
3.778531503461610555e+03 9.689403054435792306e-01 9.206862958291744036e-04
3.782310034965073100e+03 9.683984716313905894e-01 7.251039118554066659e-04
3.786092345000039586e+03 9.710163543608727466e-01 6.368245100486657649e-04
3.789878437345040766e+03 9.768582425774909872e-01 6.280849786086064755e-04
3.793668315782387253e+03 9.860343609135929777e-01 6.651451982663509439e-04
3.797461984098170888e+03 9.985148292478308596e-01 6.990157246917323925e-04
3.801259446082270188e+03 1.014159026952689890e+00 7.045886482560317779e-04
3.805060705528353537e+03 1.033220610655831928e+00 6.679014064597953333e-04
3.808865766233883278e+03 1.055321579013766886e+00 6.304930117624287953e-04
3.812674632000118436e+03 1.080366449959762942e+00 5.813258323713513644e-04
3.816487306632119726e+03 1.107903704983443038e+00 6.694267591242480378e-04
3.820303793938753188e+03 1.137752582661276435e+00 7.958908311094248234e-04
3.824124097732693372e+03 1.169922185641284917e+00 8.161838553067821611e-04
3.827948221830427428e+03 1.203239614614566966e+00 8.323308838062198813e-04
3.831776170052258749e+03 1.237707755389505726e+00 8.185224447265122567e-04
3.835607946222312421e+03 1.272837080511547425e+00 7.699413166427534734e-04
3.839443554168536139e+03 1.308352120325959156e+00 7.255270345356472448e-04
3.843282997722705659e+03 1.343906056634652346e+00 7.240867256053047695e-04
3.847126280720429804e+03 1.379096391911342145e+00 7.502038839826117873e-04
3.850973407001151372e+03 1.413972993827528724e+00 7.561106107033807111e-04
3.854824380408153957e+03 1.448055145588535764e+00 6.659295690389791314e-04
3.858679204788563311e+03 1.480919109791711152e+00 5.806700953213222690e-04
3.862537883993353262e+03 1.512219539409712654e+00 5.622937466056796832e-04
3.866400421877347981e+03 1.541826245019080943e+00 7.429986365622369806e-04
3.870266822299226533e+03 1.570163715930340320e+00 7.493650415850053965e-04
3.874137089121526969e+03 1.596323951569521560e+00 8.402047510254935254e-04
3.878011226210649966e+03 1.621193007230217198e+00 8.791380119613865368e-04
3.881889237436861549e+03 1.644773866765547377e+00 8.725977479509365586e-04
3.885771126674299921e+03 1.666981064249657862e+00 7.284684749740743051e-04
3.889656897800975457e+03 1.688073492632201411e+00 6.666914246193109215e-04
3.893546554698777527e+03 1.708272709129126321e+00 6.709594566682918837e-04
3.897440101253477678e+03 1.727208922887193632e+00 6.697870822786863897e-04
3.901337541354732366e+03 1.744973582657846967e+00 6.698209033829003942e-04
3.905238878896088409e+03 1.761372388674071310e+00 6.850087148815768665e-04
3.909144117774985716e+03 1.776652799278524819e+00 6.829020975544548453e-04
3.913053261892762293e+03 1.790948999152369714e+00 6.769733792907868053e-04
3.916966315154656058e+03 1.804296021660430682e+00 6.787191465709713342e-04
3.920883281469812118e+03 1.816591223897399576e+00 6.638622091186775417e-04
3.924804164751283224e+03 1.827721289921311998e+00 6.406951428941025199e-04
3.928728968916035683e+03 1.837611277419020528e+00 6.301208768723405443e-04
3.932657697884953450e+03 1.846057607599931982e+00 6.585816254682275465e-04
3.936590355582839493e+03 1.853106102949515721e+00 6.768795421366536258e-04
3.940526945938423523e+03 1.858420392744777327e+00 6.723449729175582160e-04
3.944467472884363360e+03 1.862135596416770511e+00 6.995280553807962367e-04
3.948411940357249023e+03 1.864236442648305347e+00 7.627454558312648809e-04
3.952360352297607733e+03 1.865197047595796631e+00 8.368941747997141190e-04
3.956312712649906643e+03 1.864121044146934913e+00 7.804262255664259689e-04
3.960269025362557841e+03 1.860615430377099422e+00 5.199809884098868882e-04
3.964229294387921527e+03 1.854289509346878306e+00 5.489930498610546368e-04
3.968193523682310570e+03 1.845637435671714677e+00 6.320258850920297588e-04
3.972161717205994591e+03 1.834760809642698609e+00 6.743843459976225745e-04
3.976133878923201792e+03 1.821862330296613930e+00 6.615915725060078807e-04
3.980110012802126221e+03 1.807113825147454111e+00 6.075548739047414906e-04
3.984090122814929600e+03 1.790812509018988807e+00 5.767814565593838922e-04
3.988074212937745870e+03 1.773216514649125886e+00 6.171591754837206989e-04
3.992062287150684824e+03 1.754505828748954110e+00 6.961932291346743492e-04
3.996054349437837118e+03 1.735120135596791124e+00 7.712015089929830742e-04
4.000050403787276082e+03 1.715793651237277340e+00 7.425822715485559796e-04
4.004050454191064546e+03 1.696179652175277441e+00 6.779672818320877465e-04
4.008054504645257111e+03 1.677291476667948755e+00 6.180134294596562527e-04
4.012062559149903791e+03 1.659301387658326243e+00 6.013095537830040038e-04
4.016074621709055009e+03 1.642304492861533349e+00 6.302700286275016769e-04
4.020090696330765240e+03 1.626438531175956159e+00 6.377021167637605265e-04
4.024110787027097558e+03 1.611824256357190732e+00 6.502625009541038040e-04
4.028134897814125907e+03 1.598413882104636308e+00 6.455720640092842740e-04
4.032163032711941469e+03 1.586095523736676949e+00 6.459116736398855078e-04
4.036195195744654484e+03 1.575061000044783999e+00 6.598415279019561848e-04
4.040231390940400615e+03 1.565291471426491166e+00 6.718950211931401691e-04
4.044271622331342314e+03 1.557010379184517346e+00 5.845112589812369698e-04
4.048315893953675186e+03 1.549600938101588277e+00 4.098871216846217439e-04
4.052364209847629809e+03 1.542476860635848102e+00 3.923401486925172572e-04
4.056416574057479011e+03 1.535555068124968559e+00 4.037895791159010054e-04
4.060472990631537868e+03 1.529174420854808369e+00 4.377876422939357853e-04
4.064533463622170530e+03 1.523472922989094425e+00 4.387382526922179934e-04
4.068597997085794304e+03 1.518220124130279736e+00 4.381675607041912420e-04
4.072666595082881486e+03 1.513354874449412524e+00 4.614576242338486634e-04
4.076739261677965715e+03 1.508882579064741325e+00 4.611944085274442438e-04
4.080816000939644709e+03 1.504522667359945887e+00 5.419857104986333792e-04
4.084896816940585722e+03 1.500211951772819852e+00 7.403344737535280965e-04
4.088981713757527814e+03 1.495668582965474336e+00 9.856910850940185480e-04
4.093070695471286854e+03 1.490537878649373926e+00 1.077472069455880392e-03
4.097163766166759160e+03 1.484265496034145704e+00 9.888389668478612341e-04
4.101260929932927866e+03 1.476686733113832029e+00 8.163528594427950412e-04
4.105362190862862008e+03 1.467763264846307925e+00 7.165605519555466813e-04
4.109467553053726078e+03 1.457479638525593035e+00 8.359633840023134596e-04
4.113577020606780934e+03 1.446028722124587773e+00 1.043402108613334604e-03
4.117690597627389252e+03 1.434019819918320726e+00 1.117260194170384543e-03
4.121808288225018259e+03 1.422080639506510202e+00 1.083993074432754557e-03
4.125930096513244280e+03 1.411045348322697901e+00 9.519941521555284718e-04
4.130056026609759101e+03 1.402529922313832111e+00 7.566702320364956805e-04
4.134186082636369974e+03 1.396167964437595721e+00 7.357757902132914304e-04
4.138320268719007800e+03 1.393038498010584325e+00 6.909275626466724511e-04
4.142458588987728035e+03 1.393719302581933883e+00 5.962605756472496351e-04
4.146601047576717065e+03 1.398622285044217817e+00 5.048720363805083745e-04
4.150747648624294925e+03 1.407652514049537951e+00 8.049004112707556190e-04
4.154898396272920763e+03 1.419758176508268299e+00 1.345889161461795176e-03
4.159053294669195566e+03 1.434063870175521727e+00 1.798658559852756023e-03
4.163212347963865795e+03 1.449409167641221519e+00 2.015469501491355155e-03
4.167375560311830668e+03 1.464366343461367848e+00 1.894459712616743856e-03
4.171542935872143971e+03 1.477732165111776297e+00 1.480765889503571266e-03
4.175714478808017702e+03 1.488460699753158867e+00 1.009453479172294724e-03
4.179890193286827525e+03 1.495563840284255042e+00 9.046323786236443133e-04
4.184070083480115500e+03 1.498877884322064924e+00 1.095390625161382202e-03
4.188254153563597356e+03 1.498569568508148153e+00 1.241258028194335179e-03
4.192442407717161586e+03 1.495012058502360963e+00 1.159388012760848496e-03
4.196634850124880359e+03 1.489068708118642004e+00 8.398668910393124144e-04
4.200831484975006788e+03 1.481567106078492513e+00 5.023600809059105329e-04
4.205032316459983122e+03 1.473026186869647036e+00 2.753199964195268017e-04
4.209237348776444378e+03 1.464144545414136633e+00 2.811910361380224503e-04
4.213446586125221984e+03 1.455510047131365781e+00 2.910957755649427295e-04
4.217660032711349231e+03 1.447134987405370055e+00 3.379759016293914435e-04
4.221877692744061278e+03 1.439288503062518210e+00 3.742740792912862256e-04
4.226099570436806971e+03 1.432558263037755797e+00 2.950852345173530719e-04
4.230325670007245208e+03 1.427324476647590545e+00 2.860900021582386691e-04
4.234555995677254032e+03 1.423550276671613046e+00 3.526662606630678594e-04
4.238790551672932452e+03 1.421103584708300449e+00 3.795558531755742504e-04
4.243029342224606808e+03 1.420031379742710875e+00 4.039889423170780276e-04
4.247272371566832589e+03 1.419939857009822060e+00 3.981744143261807859e-04
4.251519643938400804e+03 1.420612660922912385e+00 3.623432544894232923e-04
4.255771163582340705e+03 1.421894025073486834e+00 2.785195540829851356e-04
4.260026934745924336e+03 1.423211673243568454e+00 2.483922037199560551e-04
4.264286961680671993e+03 1.424360635551634058e+00 2.525146416199167175e-04
4.268551248642354039e+03 1.424892718372212874e+00 2.649101181159498920e-04
4.272819799890998183e+03 1.424575288512162086e+00 3.251740813138903684e-04
4.277092619690890388e+03 1.423234077071086068e+00 4.284182740369721137e-04
4.281369712310583054e+03 1.420350688660221072e+00 4.217464035224692607e-04
4.285651082022895025e+03 1.415558218004462798e+00 4.166207309841027081e-04
4.289936733104918858e+03 1.408778549705238303e+00 3.781047403430836968e-04
4.294226669838025373e+03 1.399955430004512724e+00 2.260669744818095636e-04
4.298520896507864563e+03 1.388848079370307520e+00 2.924878211445375862e-04
4.302819417404373780e+03 1.375596240266321546e+00 4.518809951702997267e-04
4.307122236821779552e+03 1.360926793434710680e+00 4.471591501260780517e-04
4.311429359058603040e+03 1.345202644201771935e+00 4.379047486557715186e-04
4.315740788417662770e+03 1.328733145306071117e+00 4.085213402135798701e-04
4.320056529206081905e+03 1.312023765103296435e+00 3.219794020920622979e-04
4.324376585735290064e+03 1.295780241561695467e+00 2.927993644355044518e-04
4.328700962321026054e+03 1.280317617007903364e+00 3.099873523967912304e-04
4.333029663283348782e+03 1.266157050824186170e+00 3.826783121661364302e-04
4.337362692946633615e+03 1.253880551311705727e+00 4.465789457539675916e-04
4.341700055639581478e+03 1.243763455684143926e+00 4.424288742513359570e-04
4.346041755695222491e+03 1.236128501706086791e+00 4.013168205410559772e-04
4.350387797450919606e+03 1.230999916914067960e+00 4.212472019824215928e-04
4.354738185248371337e+03 1.228374579510497222e+00 6.161277729430605270e-04
4.359092923433621763e+03 1.227954445562082109e+00 7.629176875504966801e-04
4.363452016357056891e+03 1.229225401605344770e+00 8.448553103120286104e-04
4.367815468373414660e+03 1.231856023007545708e+00 8.296166804928724802e-04
4.372183283841789489e+03 1.235285083965322883e+00 6.495055105859582614e-04
4.376555467125633186e+03 1.238980876716286872e+00 4.106672257080761748e-04
4.380932022592760404e+03 1.242536613511937560e+00 2.202832104712928107e-04
4.385312954615354101e+03 1.245536965922969141e+00 2.257466857409946447e-04
4.389698267569970994e+03 1.248188872808078553e+00 3.778140659006628817e-04
4.394087965837542470e+03 1.250632806555728394e+00 4.738770329291776035e-04
4.398482053803381859e+03 1.253037491352096078e+00 6.354541065959236346e-04
4.402880535857186260e+03 1.256041499091415714e+00 7.442477158594509997e-04
4.407283416393044718e+03 1.260271880872285921e+00 7.475814392930698942e-04
4.411690699809440048e+03 1.266029764724054152e+00 6.444196275248498165e-04
4.416102390509250654e+03 1.273572470669121381e+00 5.266354811316321634e-04
4.420518492899761441e+03 1.282989311592846349e+00 5.553267890135438201e-04
4.424939011392662906e+03 1.294136699131069212e+00 6.838914958778420997e-04
4.429363950404056595e+03 1.306875015974216847e+00 8.325505024052155638e-04
4.433793314354462382e+03 1.320857162701384979e+00 8.486201356780323024e-04
4.438227107668818462e+03 1.335476608295627976e+00 6.697924898244302571e-04
4.442665334776488635e+03 1.350227270588542750e+00 5.102680735899197762e-04
4.447108000111265937e+03 1.365050250006133004e+00 4.485836496331408580e-04
4.451555108111379013e+03 1.379707604590123537e+00 4.393894818469530617e-04
4.456006663219492111e+03 1.393858003442770999e+00 4.201560280542265108e-04
4.460462669882713271e+03 1.407581419784240229e+00 3.721247792678618717e-04
4.464923132552597053e+03 1.421084625020156533e+00 3.588106425946579743e-04
4.469388055685150903e+03 1.434227299881242423e+00 3.499963032431710670e-04
4.473857443740837880e+03 1.447135830210961149e+00 3.486495021391551553e-04
4.478331301184580298e+03 1.459963668002327353e+00 3.121792831393778770e-04
4.482809632485766087e+03 1.472439589066524945e+00 4.450870380797879557e-04
4.487292442118253348e+03 1.484916323468795873e+00 5.648719041054446914e-04
4.491779734560373072e+03 1.497732364735832489e+00 5.791754509595058728e-04
4.496271514294934605e+03 1.511011514083457463e+00 5.233491757344835987e-04
4.500767785809231100e+03 1.524967983975882957e+00 4.258202147376665987e-04
4.505268553595042249e+03 1.539680170640025825e+00 3.285180711114680336e-04
4.509773822148638828e+03 1.555237951526531992e+00 2.826968787985723562e-04
4.514283595970789065e+03 1.571707673948761874e+00 3.239188043508395938e-04
4.518797879566761367e+03 1.588792562634519845e+00 3.208054089480515993e-04
4.523316677446328868e+03 1.605908924642103219e+00 3.322874935143799277e-04
4.527839994123776705e+03 1.622576826231462377e+00 3.747085169856535780e-04
4.532367834117902021e+03 1.638752253665925362e+00 4.273879634416910024e-04
4.536900201952022144e+03 1.653807176153157865e+00 4.478779229335170002e-04
4.541437102153975502e+03 1.667013217628027455e+00 4.294453478092327280e-04
4.545978539256130716e+03 1.678094933620041695e+00 4.206660078140585235e-04
4.550524517795388419e+03 1.686890135912197275e+00 3.640083669579326025e-04
