# starting wavelength: 3474.450
# ending wavelength: 7279.780
# wav flux eflux
3.477720030263898934e+03 7.275401042307366728e-01 5.921713281077551488e-02
3.481197750294164052e+03 7.152238231705631000e-01 4.360177773877380036e-02
3.484678948044459503e+03 7.028530500129516190e-01 3.409404592250086380e-02
3.488163626992504760e+03 6.970685054352018239e-01 2.629599600944045740e-02
3.491651790619498570e+03 6.937477666682825284e-01 2.080423255879489813e-02
3.495143442410119405e+03 6.908070710121835267e-01 1.693881354898129840e-02
3.498638585852530468e+03 6.909766961609677960e-01 1.457667729007313534e-02
3.502137224438384237e+03 6.946093136588559203e-01 1.272970367615486494e-02
3.505639361662823831e+03 6.996009693486363590e-01 1.063624530791804947e-02
3.509145001024487556e+03 7.064813378149028544e-01 9.510197497808143413e-03
3.512654146025513455e+03 7.133587948829721581e-01 8.585156956444984014e-03
3.516166800171540217e+03 7.168111783229897949e-01 7.919965463378145915e-03
3.519682966971712631e+03 7.184162329356241772e-01 7.484444267338401235e-03
3.523202649938685681e+03 7.187159157620602867e-01 7.122800126999092110e-03
3.526725852588625457e+03 7.169975402771228135e-01 6.941550962085443754e-03
3.530252578441215064e+03 7.133051522718583115e-01 6.959034623799884370e-03
3.533782831019657806e+03 7.097579526519850468e-01 6.753523051283796645e-03
3.537316613850678550e+03 7.053647930931304932e-01 6.552481652078407520e-03
3.540853930464530094e+03 7.009594842369822887e-01 6.515877364233146028e-03
3.544394784394995895e+03 6.952615437174990420e-01 6.663721457735416465e-03
3.547939179179392340e+03 6.868317983808119864e-01 6.703387923880881408e-03
3.551487118358572843e+03 6.749618747121081119e-01 6.977295109597285785e-03
3.555038605476932389e+03 6.605405794907986960e-01 6.383571939980067951e-03
3.558593644082410719e+03 6.454016088895629943e-01 6.779368593929642473e-03
3.562152237726494150e+03 6.299147986260832388e-01 6.280011125673071182e-03
3.565714389964221937e+03 6.193611325602971229e-01 5.946956739568799201e-03
3.569280104354187188e+03 6.120521068217408267e-01 6.051335614565799860e-03
3.572849384458542772e+03 6.056865314069328488e-01 6.079205654724442048e-03
3.576422233843002232e+03 6.034179349356442179e-01 6.356397030170634829e-03
3.579998656076846601e+03 6.005013280300323109e-01 6.664059837546738516e-03
3.583578654732924406e+03 5.959384210508463786e-01 6.881109503350431485e-03
3.587162233387658489e+03 5.923631248028643492e-01 6.988319222245939315e-03
3.590749395621047370e+03 5.902502358023621332e-01 7.221361616216403351e-03
3.594340145016669794e+03 5.895613383488484960e-01 7.231180773751929962e-03
3.597934485161687462e+03 5.923540847446414626e-01 6.581092639600964397e-03
3.601532419646850485e+03 5.900716481418817327e-01 6.355074264650291752e-03
3.605133952066498296e+03 5.851455804816643180e-01 6.168504617129860236e-03
3.608739086018566013e+03 5.776634320944573631e-01 6.442894584033552648e-03
3.612347825104585809e+03 5.682661502854540192e-01 6.262006454295801147e-03
3.615960172929691907e+03 5.581656063280210356e-01 6.209845783963040614e-03
3.619576133102622407e+03 5.481491670227679469e-01 6.330037845184385316e-03
3.623195709235726554e+03 5.394419907228298339e-01 6.522049635583350088e-03
3.626818904944963379e+03 5.286645928121753713e-01 6.920235047822013985e-03
3.630445723849909427e+03 5.182520816954735432e-01 7.223476497728521101e-03
3.634076169573760581e+03 5.079129802914174041e-01 7.418364356445862617e-03
3.637710245743335690e+03 4.959602363022624361e-01 6.277746095605387169e-03
3.641347955989080219e+03 4.875688124889862585e-01 5.743313674032974291e-03
3.644989303945070333e+03 4.834490217128381007e-01 5.096258018641519096e-03
3.648634293249016537e+03 4.823784081638211041e-01 4.826693243696495231e-03
3.652282927542266862e+03 4.844384264353427949e-01 4.928478084513714629e-03
3.655935210469810499e+03 4.912331402603511421e-01 4.930230574565981454e-03
3.659591145680281443e+03 5.042291403040983777e-01 4.683809447599824108e-03
3.663250736825963031e+03 5.190131911621653771e-01 4.723583899288355537e-03
3.666913987562790226e+03 5.377414136744324002e-01 4.877967379550336886e-03
3.670580901550354156e+03 5.594434032526507394e-01 5.343588872201684818e-03
3.674251482451905758e+03 5.817700611551729351e-01 5.922163625640041763e-03
3.677925733934358959e+03 6.066630565314501400e-01 6.145832994918254064e-03
3.681603659668294313e+03 6.318895699374400543e-01 6.422241894109659982e-03
3.685285263327964003e+03 6.551464228471436391e-01 6.803554844533181954e-03
3.688970548591293209e+03 6.772195654897721351e-01 6.322395468381706435e-03
3.692659519139885560e+03 6.947752692542603636e-01 6.180556493710028833e-03
3.696352178659026777e+03 7.066250434315997087e-01 6.143966874861320378e-03
3.700048530837686940e+03 7.165094097267268314e-01 6.136351499470274126e-03
3.703748579368525952e+03 7.200515202267107062e-01 6.899476768710498774e-03
3.707452327947895355e+03 7.207313181641779032e-01 7.437469983868781088e-03
3.711159780275844696e+03 7.160325453566623866e-01 7.440276247077678637e-03
3.714870940056121526e+03 7.074920838869097617e-01 7.120411835072845176e-03
3.718585810996179134e+03 6.992802607371784163e-01 7.111781418706319795e-03
3.722304396807176545e+03 6.874050127437116853e-01 6.926249906503173515e-03
3.726026701203984885e+03 6.720470323349532205e-01 6.569153672976145615e-03
3.729752727905190113e+03 6.569768092183612129e-01 6.387002058919744214e-03
3.733482480633096657e+03 6.400854574484761139e-01 6.331148990045300066e-03
3.737215963113731050e+03 6.245137515637129155e-01 6.613140274484622522e-03
3.740953179076846027e+03 6.126662730427556713e-01 6.434794263242830936e-03
3.744694132255923705e+03 5.998899749146097138e-01 6.346405663089584384e-03
3.748438826388181042e+03 5.907858254164970457e-01 5.992177306669077726e-03
3.752187265214570289e+03 5.789240872002309191e-01 5.748698074284227209e-03
3.755939452479786269e+03 5.676759579614383266e-01 5.648537480848574849e-03
3.759695391932267285e+03 5.589928202719980366e-01 5.315508820732601711e-03
3.763455087324201031e+03 5.540707554218309294e-01 5.291975019774674063e-03
3.767218542411526414e+03 5.533582678601287608e-01 5.117240916889320874e-03
3.770985760953939007e+03 5.587534413498791430e-01 6.841616007122525676e-03
3.774756746714894234e+03 5.622055195148196738e-01 7.168605961065517736e-03
3.778531503461610555e+03 5.703068694045345666e-01 7.079045788510407097e-03
3.782310034965073100e+03 5.823811473432255470e-01 6.918014729226877775e-03
3.786092345000039586e+03 5.992518105582189669e-01 5.587764495251354088e-03
3.789878437345040766e+03 6.087341947414113275e-01 5.408439315296777530e-03
3.793668315782387253e+03 6.151250698057606492e-01 5.395790945118937240e-03
3.797461984098170888e+03 6.194315419326364980e-01 5.367376924394507212e-03
3.801259446082270188e+03 6.198540741939206900e-01 6.218672259311751500e-03
3.805060705528353537e+03 6.185656860768574683e-01 6.298502795445816080e-03
3.808865766233883278e+03 6.182479937287000960e-01 6.377999627180439175e-03
3.812674632000118436e+03 6.178054944139336202e-01 6.425832106435853432e-03
3.816487306632119726e+03 6.161912761192406274e-01 5.957778567176350536e-03
3.820303793938753188e+03 6.193771639551401975e-01 5.964055480598816177e-03
3.824124097732693372e+03 6.263986757655785054e-01 5.520656786791312311e-03
3.827948221830427428e+03 6.372564723755895777e-01 5.539965620384319431e-03
3.831776170052258749e+03 6.544421443935986016e-01 5.515212261757215101e-03
3.835607946222312421e+03 6.782644287388885918e-01 5.066952419370157959e-03
3.839443554168536139e+03 7.063514649201526607e-01 5.459112814114342252e-03
3.843282997722705659e+03 7.358243206674901504e-01 5.447032087740210152e-03
3.847126280720429804e+03 7.681826843632377777e-01 6.066826132325308686e-03
3.850973407001151372e+03 7.999979638486074407e-01 6.048534752721481007e-03
3.854824380408153957e+03 8.341702828911827794e-01 4.495561076514359433e-03
3.858679204788563311e+03 8.591765730578034832e-01 4.241910469481999929e-03
3.862537883993353262e+03 8.856026757274858552e-01 4.153684150316025621e-03
3.866400421877347981e+03 9.079663294072813917e-01 4.224223595148922372e-03
3.870266822299226533e+03 9.256011037978703060e-01 5.225236774684143513e-03
3.874137089121526969e+03 9.436559916384918978e-01 5.792504655415883427e-03
3.878011226210649966e+03 9.606892483686489959e-01 5.814212823109941343e-03
3.881889237436861549e+03 9.775690064252113842e-01 4.195331562011153821e-03
3.885771126674299921e+03 9.993479409715564366e-01 5.281759700911182846e-03
3.889656897800975457e+03 1.019849347634485204e+00 5.313817700970458954e-03
3.893546554698777527e+03 1.039443266260756671e+00 5.306963104800026775e-03
3.897440101253477678e+03 1.061081658724659205e+00 6.137738863575217634e-03
3.901337541354732366e+03 1.081112472072626396e+00 5.735524236551906192e-03
3.905238878896088409e+03 1.090465991173930282e+00 5.732049451748175671e-03
3.909144117774985716e+03 1.095426303151440184e+00 6.054400964285250319e-03
3.913053261892762293e+03 1.094420943630438181e+00 6.467722630944595583e-03
3.916966315154656058e+03 1.090819233992002868e+00 6.499726281966227218e-03
3.920883281469812118e+03 1.082291414664185769e+00 5.749055594328553696e-03
3.924804164751283224e+03 1.074828751016355000e+00 6.225196269829380742e-03
3.928728968916035683e+03 1.062831538269733089e+00 6.144856881169166035e-03
3.932657697884953450e+03 1.051197591214672711e+00 6.975918501669646152e-03
3.936590355582839493e+03 1.038583841340954494e+00 6.242537292168324516e-03
3.940526945938423523e+03 1.022870370743376389e+00 7.232471653801371414e-03
3.944467472884363360e+03 1.007350236017328537e+00 8.776050995525397011e-03
3.948411940357249023e+03 9.975978207944271592e-01 8.910511456772617425e-03
3.952360352297607733e+03 9.937536775577686665e-01 8.374703445660864817e-03
3.956312712649906643e+03 9.971071417081230903e-01 8.076467099532825059e-03
3.960269025362557841e+03 1.008909270643062905e+00 8.174810772932743219e-03
3.964229294387921527e+03 1.024842175929518318e+00 8.143823367015167944e-03
3.968193523682310570e+03 1.048678792136641613e+00 9.713881253369485713e-03
3.972161717205994591e+03 1.078914071583366496e+00 8.907676437549231011e-03
3.976133878923201792e+03 1.108914988448407080e+00 6.726410999254527588e-03
3.980110012802126221e+03 1.134677044430596249e+00 8.210342468580269018e-03
3.984090122814929600e+03 1.161178070581724509e+00 8.881069959450345677e-03
3.988074212937745870e+03 1.187133158753377771e+00 8.690166097925902666e-03
3.992062287150684824e+03 1.214355242854417760e+00 9.199622488634307677e-03
3.996054349437837118e+03 1.236774754932776554e+00 9.668938934897860701e-03
4.000050403787276082e+03 1.256242453292626182e+00 1.024804353537293530e-02
4.004050454191064546e+03 1.269841103634447022e+00 1.065229414216087647e-02
4.008054504645257111e+03 1.279350081943720463e+00 8.658470236951485918e-03
4.012062559149903791e+03 1.277481180204255162e+00 8.670671033872241404e-03
4.016074621709055009e+03 1.267231258667735894e+00 9.614470999331728440e-03
4.020090696330765240e+03 1.250659979372668040e+00 1.022027875498707043e-02
4.024110787027097558e+03 1.232099354499455846e+00 1.016693611546463580e-02
4.028134897814125907e+03 1.211857265225660063e+00 9.478925676300669137e-03
4.032163032711941469e+03 1.191342304794982265e+00 7.786959382144867381e-03
4.036195195744654484e+03 1.176359175652508471e+00 6.114139419456953752e-03
4.040231390940400615e+03 1.169954491994323220e+00 6.008555103533963146e-03
4.044271622331342314e+03 1.175064328434696659e+00 6.382457637284885688e-03
4.048315893953675186e+03 1.184255333427865819e+00 4.899038975438606280e-03
4.052364209847629809e+03 1.193020431515450452e+00 4.245510300955928663e-03
4.056416574057479011e+03 1.197199765233876612e+00 4.061041441132277018e-03
4.060472990631537868e+03 1.198312398704895587e+00 4.111119597151852156e-03
4.064533463622170530e+03 1.193625783130952245e+00 4.121344690899309861e-03
4.068597997085794304e+03 1.186416423750453530e+00 3.335295414674837276e-03
4.072666595082881486e+03 1.168977083628514491e+00 3.798020120315782552e-03
4.076739261677965715e+03 1.145467947165164979e+00 4.828453232118608100e-03
4.080816000939644709e+03 1.119827323314287471e+00 4.984792532490111942e-03
4.084896816940585722e+03 1.089901471686443690e+00 4.919303038206938351e-03
4.088981713757527814e+03 1.057207459586153808e+00 3.736228651709320482e-03
4.093070695471286854e+03 1.025621099117691060e+00 3.176304196391649057e-03
4.097163766166759160e+03 9.966424875254700222e-01 3.325227951786816939e-03
4.101260929932927866e+03 9.702480212135344839e-01 3.221826632826690906e-03
4.105362190862862008e+03 9.462799765252035700e-01 4.262444174342096964e-03
4.109467553053726078e+03 9.274085152975581892e-01 4.326346272593669003e-03
4.113577020606780934e+03 9.134172883136086885e-01 4.484449328988403954e-03
4.117690597627389252e+03 9.078111694387105413e-01 4.474862516319902221e-03
4.121808288225018259e+03 9.093551050526276214e-01 5.158660240136120866e-03
4.125930096513244280e+03 9.144980108259246343e-01 5.998315257861330102e-03
4.130056026609759101e+03 9.223200994471892900e-01 6.410776860855552615e-03
4.134186082636369974e+03 9.288011172632372192e-01 6.332437846087695353e-03
4.138320268719007800e+03 9.360952255938567168e-01 5.849542423941062053e-03
4.142458588987728035e+03 9.412963313619659989e-01 5.321700671853651227e-03
4.146601047576717065e+03 9.446027699718047010e-01 4.572365806466647913e-03
4.150747648624294925e+03 9.411604737665549836e-01 5.268806283189185653e-03
4.154898396272920763e+03 9.337835554542324168e-01 5.431393537020438173e-03
4.159053294669195566e+03 9.272354172966712493e-01 4.889142985244102416e-03
4.163212347963865795e+03 9.198092857891712049e-01 4.491876704788197103e-03
4.167375560311830668e+03 9.122593772619079777e-01 4.927074092675051697e-03
4.171542935872143971e+03 9.051556207408246735e-01 5.230543858915905238e-03
4.175714478808017702e+03 8.980073119080536070e-01 4.119542171346000231e-03
4.179890193286827525e+03 8.870205464584882682e-01 4.767556307577057624e-03
4.184070083480115500e+03 8.753100999429663798e-01 5.614687111957895362e-03
4.188254153563597356e+03 8.662008334500639339e-01 5.728946317085163199e-03
4.192442407717161586e+03 8.558793437626830425e-01 5.224168683059753245e-03
4.196634850124880359e+03 8.515054466147503609e-01 4.807526553033742399e-03
4.200831484975006788e+03 8.511899157915669978e-01 4.426425330878162867e-03
4.205032316459983122e+03 8.560076683485200455e-01 4.724669491505543648e-03
4.209237348776444378e+03 8.655892380596552638e-01 6.020225707914980684e-03
4.213446586125221984e+03 8.759611271484223360e-01 6.729661992370436323e-03
4.217660032711349231e+03 8.868211309022963063e-01 6.093715570639080675e-03
4.221877692744061278e+03 8.943061650619346103e-01 4.815996977326690402e-03
4.226099570436806971e+03 8.982416816563076889e-01 4.553125538257651872e-03
4.230325670007245208e+03 8.967598717840107314e-01 5.399395627461941322e-03
4.234555995677254032e+03 8.920972884323301599e-01 4.712697600446884121e-03
4.238790551672932452e+03 8.857524934283069751e-01 4.235823081856214187e-03
4.243029342224606808e+03 8.800626063215729600e-01 3.851978105193546408e-03
4.247272371566832589e+03 8.741899136396065195e-01 3.722850929687028521e-03
4.251519643938400804e+03 8.699534195310830720e-01 3.824043756170980059e-03
4.255771163582340705e+03 8.657019038963894575e-01 3.709998504869659475e-03
4.260026934745924336e+03 8.604429150110243230e-01 4.015378926852174873e-03
4.264286961680671993e+03 8.585977029334105337e-01 4.076126893736447057e-03
4.268551248642354039e+03 8.596419403485358046e-01 3.964940778901714959e-03
4.272819799890998183e+03 8.607131674500593244e-01 3.791196227916258498e-03
4.277092619690890388e+03 8.638098448057517365e-01 3.854783214143023707e-03
4.281369712310583054e+03 8.667801335291960285e-01 4.004730950335212182e-03
4.285651082022895025e+03 8.701740949636205258e-01 4.580059028815307819e-03
4.289936733104918858e+03 8.749912154892129923e-01 5.275554565298550165e-03
4.294226669838025373e+03 8.758538987360413586e-01 4.421957499748602541e-03
4.298520896507864563e+03 8.735819381194563915e-01 3.800660051855763583e-03
4.302819417404373780e+03 8.665982084839799482e-01 4.787288427496613416e-03
4.307122236821779552e+03 8.579087319421834223e-01 4.999670818718716415e-03
4.311429359058603040e+03 8.468982625916386953e-01 4.896752155454656835e-03
4.315740788417662770e+03 8.377159557214273189e-01 4.427788523489925229e-03
4.320056529206081905e+03 8.281593640298094972e-01 3.269788944542383578e-03
4.324376585735290064e+03 8.231584262054806311e-01 3.474766972078078414e-03
4.328700962321026054e+03 8.198596007235479100e-01 3.457814301736078424e-03
4.333029663283348782e+03 8.205915089236113236e-01 3.163560430282154248e-03
4.337362692946633615e+03 8.234858471109559597e-01 2.945257528983900256e-03
4.341700055639581478e+03 8.275360370348470163e-01 2.941093588091817090e-03
4.346041755695222491e+03 8.326356520084822188e-01 2.833875933888382014e-03
4.350387797450919606e+03 8.367948946509202734e-01 2.892720853190269836e-03
4.354738185248371337e+03 8.387161019901621106e-01 2.871224475981108172e-03
4.359092923433621763e+03 8.381130446088357333e-01 2.934556067614253663e-03
4.363452016357056891e+03 8.359690995972364203e-01 3.016941218028705313e-03
4.367815468373414660e+03 8.342434162915063345e-01 2.997243741943134664e-03
4.372183283841789489e+03 8.333960024719536674e-01 2.645881013542695278e-03
4.376555467125633186e+03 8.294626090069939783e-01 2.772080780489073228e-03
4.380932022592760404e+03 8.256597916122876413e-01 2.646415420943132833e-03
4.385312954615354101e+03 8.216105355961149659e-01 2.443231485335971200e-03
4.389698267569970994e+03 8.182482492331176749e-01 2.443056891531698166e-03
4.394087965837542470e+03 8.146436617124592772e-01 2.350306676969205876e-03
4.398482053803381859e+03 8.135697565211733595e-01 2.207877374790095243e-03
4.402880535857186260e+03 8.122944305696460088e-01 2.160090601552112303e-03
4.407283416393044718e+03 8.128163491568113352e-01 1.817658216765203867e-03
4.411690699809440048e+03 8.129766285645917412e-01 1.841380216186532101e-03
4.416102390509250654e+03 8.140232626966226182e-01 1.986887182461460118e-03
4.420518492899761441e+03 8.177137093167965443e-01 1.634332676249029706e-03
4.424939011392662906e+03 8.248900298502374051e-01 2.414155595594851076e-03
4.429363950404056595e+03 8.327263512511382526e-01 2.462443878746286164e-03
4.433793314354462382e+03 8.436796311762538858e-01 2.415014905674434369e-03
4.438227107668818462e+03 8.571450249361348694e-01 2.376920763362838467e-03
4.442665334776488635e+03 8.727424428396194367e-01 2.611047107374540269e-03
4.447108000111265937e+03 8.892222570486514321e-01 2.674947018408149139e-03
4.451555108111379013e+03 9.064284594557429076e-01 2.690770559925155167e-03
4.456006663219492111e+03 9.243846574878300526e-01 2.894285993407721448e-03
4.460462669882713271e+03 9.430462180608787381e-01 2.735876102394578426e-03
4.464923132552597053e+03 9.637463819006160115e-01 2.845403748552312404e-03
4.469388055685150903e+03 9.852412834756646420e-01 3.277380047438918122e-03
4.473857443740837880e+03 1.004953022507953930e+00 3.289891405563548539e-03
4.478331301184580298e+03 1.023760800493206835e+00 3.246012824785104306e-03
4.482809632485766087e+03 1.041649654393211666e+00 3.085621794493531491e-03
4.487292442118253348e+03 1.058065627827078137e+00 3.043748986736995697e-03
4.491779734560373072e+03 1.072618136919627485e+00 3.120702869868982772e-03
4.496271514294934605e+03 1.085479286204698024e+00 3.387725981663861161e-03
4.500767785809231100e+03 1.097302200184220977e+00 3.280432631896978545e-03
4.505268553595042249e+03 1.111374021522584243e+00 3.212929832200265515e-03
4.509773822148638828e+03 1.127342212192545157e+00 3.244080272213378021e-03
4.514283595970789065e+03 1.140724623672197513e+00 2.742582016390796625e-03
4.518797879566761367e+03 1.157167770437676158e+00 3.317838795207440732e-03
4.523316677446328868e+03 1.174555492623957198e+00 3.647914727247135707e-03
4.527839994123776705e+03 1.192942321316950771e+00 2.965385779560410218e-03
