# starting wavelength: 3361.710
# ending wavelength: 7107.220
# wav flux eflux
3.364883711873251741e+03 5.726804964678620102e-01 6.159193730895417412e-02
3.368248595585126168e+03 5.835403962357872398e-01 4.714815295615781138e-02
3.371616844180712633e+03 5.872788146108102181e-01 3.589541403030920008e-02
3.374988461024894150e+03 5.855476664132103215e-01 3.128797179046997889e-02
3.378363449485920228e+03 5.861229694719335415e-01 2.649230221937254673e-02
3.381741812935407324e+03 5.911472143491937059e-01 2.120131651555285518e-02
3.385123554748343849e+03 5.974911918404147704e-01 1.728478013742480029e-02
3.388508678303093347e+03 6.031752681238504721e-01 1.536990652600381084e-02
3.391897186981397681e+03 6.088125788938590910e-01 1.285227097601504727e-02
3.395289084168380214e+03 6.142846948803016849e-01 1.122966659862746977e-02
3.398684373252549449e+03 6.190377323375068075e-01 1.024672355749786830e-02
3.402083057625803121e+03 6.269355220026843201e-01 9.295662116173114206e-03
3.405485140683430018e+03 6.365538488776244508e-01 8.617192439414774613e-03
3.408890625824114522e+03 6.450170309322283968e-01 8.112311446890252756e-03
3.412299516449939802e+03 6.567115802451098938e-01 7.714166833950539433e-03
3.415711815966390986e+03 6.694920978013784163e-01 7.433749865139996880e-03
3.419127527782358356e+03 6.825525503424157980e-01 7.192310590863219832e-03
3.422546655310141887e+03 6.971556267110645688e-01 7.295807632320750087e-03
3.425969201965453522e+03 7.125411966401502539e-01 8.323380863806790000e-03
3.429395171167419903e+03 7.238166140811503890e-01 8.527170456102921639e-03
3.432824566338588284e+03 7.371824951664769365e-01 8.563351106733394988e-03
3.436257390904928343e+03 7.484860434488099790e-01 8.263058522946896065e-03
3.439693648295834464e+03 7.610993620313277752e-01 8.255463583984738382e-03
3.443133341944131189e+03 7.690773694099940494e-01 8.035664522773844701e-03
3.446576475286076402e+03 7.751735921955497099e-01 7.803384818972199967e-03
3.450023051761363604e+03 7.739792447810458498e-01 7.773471550329042433e-03
3.453473074813126004e+03 7.703140622997796116e-01 7.670037932978564406e-03
3.456926547887940615e+03 7.620788637568745028e-01 8.038162228788690855e-03
3.460383474435829612e+03 7.485740601675556771e-01 9.112172100786079115e-03
3.463843857910266706e+03 7.321105672959409283e-01 1.003228435854725160e-02
3.467307701768178049e+03 7.202457655281371274e-01 1.033727022285123830e-02
3.470775009469947236e+03 7.042351612372538261e-01 1.073060350692146662e-02
3.474245784479418489e+03 6.897416844622815679e-01 1.080440950122031792e-02
3.477720030263898934e+03 6.738865242401215205e-01 1.053571952547903250e-02
3.481197750294164052e+03 6.564785378359782042e-01 9.662409514053907356e-03
3.484678948044459503e+03 6.359619552766356820e-01 7.413234157862520247e-03
3.488163626992504760e+03 6.229846886925437532e-01 7.003887435264511373e-03
3.491651790619498570e+03 6.154002836621662587e-01 7.933487368064821160e-03
3.495143442410119405e+03 6.124786157451707069e-01 8.829767457808394143e-03
3.498638585852530468e+03 6.077316090018712869e-01 8.352424867465018873e-03
3.502137224438384237e+03 6.030861138014553813e-01 8.048379491768899510e-03
3.505639361662823831e+03 6.003943314490559624e-01 8.083588069164704404e-03
3.509145001024487556e+03 5.980427177051973464e-01 7.992731391799930488e-03
3.512654146025513455e+03 5.979586409773007816e-01 7.682713510906481920e-03
3.516166800171540217e+03 5.984154837119437520e-01 7.727972429251455180e-03
3.519682966971712631e+03 6.032412263108234418e-01 7.580715274953232080e-03
3.523202649938685681e+03 6.039760847830649704e-01 7.617551633163670982e-03
3.526725852588625457e+03 6.055163564203045468e-01 8.065594690195894076e-03
3.530252578441215064e+03 6.083368585073467560e-01 7.840573484447936614e-03
3.533782831019657806e+03 6.115002112202773121e-01 7.523942631082312753e-03
3.537316613850678550e+03 6.192886973698459308e-01 7.224459165135880580e-03
3.540853930464530094e+03 6.318174736313472151e-01 7.496321317758630406e-03
3.544394784394995895e+03 6.410810277608135488e-01 6.880068355870283363e-03
3.547939179179392340e+03 6.554441196884964738e-01 7.159428052147374759e-03
3.551487118358572843e+03 6.748594189002972143e-01 7.479462354920470707e-03
3.555038605476932389e+03 6.938453969703062274e-01 7.766856963080179775e-03
3.558593644082410719e+03 7.183003500391025309e-01 7.026877674899421021e-03
3.562152237726494150e+03 7.384665434921575677e-01 6.146057564446649919e-03
3.565714389964221937e+03 7.530725663963205863e-01 5.750283685966977795e-03
3.569280104354187188e+03 7.618849573616214288e-01 5.829233595616970312e-03
3.572849384458542772e+03 7.665719288174834833e-01 6.264110821204112341e-03
3.576422233843002232e+03 7.677677795622114276e-01 7.098598527248724949e-03
3.579998656076846601e+03 7.666479494906709435e-01 7.525132708365476000e-03
3.583578654732924406e+03 7.638737110872272362e-01 7.638153948397800354e-03
3.587162233387658489e+03 7.563757356706332091e-01 7.067089281270625203e-03
3.590749395621047370e+03 7.476514537414070682e-01 6.606410240264304172e-03
3.594340145016669794e+03 7.389475960522723375e-01 6.787252293216589592e-03
3.597934485161687462e+03 7.327792685560459152e-01 6.818981106687511257e-03
3.601532419646850485e+03 7.247296380362071577e-01 5.693347329111269998e-03
3.605133952066498296e+03 7.202341476836193745e-01 5.103844026325223861e-03
3.608739086018566013e+03 7.190903479771785234e-01 4.871610901588174086e-03
3.612347825104585809e+03 7.222661605014926156e-01 4.732052862610245866e-03
3.615960172929691907e+03 7.314358993816364451e-01 4.798683186540579626e-03
3.619576133102622407e+03 7.439202808168643433e-01 4.104746754949477328e-03
3.623195709235726554e+03 7.588324697109762873e-01 4.168144526883376701e-03
3.626818904944963379e+03 7.751270554301302740e-01 4.522776360720585399e-03
3.630445723849909427e+03 7.917333506333374959e-01 4.712340754921147054e-03
3.634076169573760581e+03 8.087094233211629124e-01 4.976373805292762242e-03
3.637710245743335690e+03 8.244068263792562190e-01 4.694188458924847956e-03
3.641347955989080219e+03 8.351440083988965757e-01 4.751776173326433157e-03
3.644989303945070333e+03 8.424594360214784361e-01 4.645132120420703524e-03
3.648634293249016537e+03 8.443668663432328803e-01 4.474525370112952469e-03
3.652282927542266862e+03 8.417375439441865392e-01 4.534010177729350978e-03
3.655935210469810499e+03 8.332559344895393849e-01 6.339080433405270415e-03
3.659591145680281443e+03 8.248404087723499867e-01 6.577683059169307442e-03
3.663250736825963031e+03 8.088329998211218896e-01 6.782068444776784451e-03
3.666913987562790226e+03 7.887309348889822713e-01 4.580070904982114742e-03
3.670580901550354156e+03 7.736594137988626052e-01 4.323743853070457707e-03
3.674251482451905758e+03 7.595022336560928178e-01 4.637247060024150304e-03
3.677925733934358959e+03 7.452313864578349323e-01 4.829136128006481649e-03
3.681603659668294313e+03 7.319348403408409975e-01 4.984039762358198275e-03
3.685285263327964003e+03 7.204838445266734670e-01 5.036940066622419554e-03
3.688970548591293209e+03 7.073284095210458089e-01 4.566039520532055862e-03
3.692659519139885560e+03 6.942432009280440353e-01 4.005130271384236239e-03
3.696352178659026777e+03 6.790439835275546843e-01 3.945265629458205928e-03
3.700048530837686940e+03 6.620702285653295993e-01 3.746879022537306491e-03
3.703748579368525952e+03 6.417832775072226381e-01 4.364281556542779980e-03
3.707452327947895355e+03 6.203113931935508862e-01 4.218978111722090744e-03
3.711159780275844696e+03 5.987151145358964310e-01 3.539281201494423601e-03
3.714870940056121526e+03 5.770506857944788237e-01 3.245771076142272768e-03
3.718585810996179134e+03 5.574497974516072762e-01 3.064458289707293684e-03
3.722304396807176545e+03 5.409745041561683232e-01 3.090008402441728804e-03
3.726026701203984885e+03 5.297165274851673988e-01 2.874306688829731619e-03
3.729752727905190113e+03 5.217724068854753261e-01 2.840259309947054060e-03
3.733482480633096657e+03 5.175922611341399193e-01 2.993283194998773867e-03
3.737215963113731050e+03 5.150892017456119021e-01 2.292547697630344366e-03
3.740953179076846027e+03 5.191108664553042429e-01 2.488130705768149074e-03
3.744694132255923705e+03 5.283655605862396243e-01 3.373174239569198731e-03
3.748438826388181042e+03 5.405719137065253532e-01 3.572543166330920898e-03
3.752187265214570289e+03 5.533245423598878165e-01 3.366264687436483494e-03
3.755939452479786269e+03 5.648931960556800025e-01 3.540779013985230050e-03
3.759695391932267285e+03 5.772669317494545371e-01 3.942392472421720959e-03
3.763455087324201031e+03 5.915478714673192417e-01 4.101749673344419304e-03
3.767218542411526414e+03 6.058157854114396557e-01 3.938509836577804187e-03
3.770985760953939007e+03 6.222467810235595698e-01 3.990892014767182493e-03
3.774756746714894234e+03 6.374591891891393525e-01 3.872100337262524613e-03
3.778531503461610555e+03 6.520890961826448784e-01 3.792642688600052128e-03
3.782310034965073100e+03 6.676991354524377531e-01 4.010805394530984370e-03
3.786092345000039586e+03 6.827035012797511015e-01 3.610078485284647608e-03
3.789878437345040766e+03 6.958243961794620125e-01 3.460689659925418431e-03
3.793668315782387253e+03 7.068800013822943429e-01 3.283160837291486389e-03
3.797461984098170888e+03 7.150932671161307486e-01 4.064780627825819587e-03
3.801259446082270188e+03 7.235665244029223508e-01 4.142631419604342509e-03
3.805060705528353537e+03 7.296172131645778380e-01 4.006410086278828879e-03
3.808865766233883278e+03 7.358099648518942049e-01 2.631624639509960555e-03
3.812674632000118436e+03 7.442366325084539547e-01 1.961216148740682532e-03
3.816487306632119726e+03 7.569597770330417363e-01 2.835335866182374983e-03
3.820303793938753188e+03 7.711993063633899581e-01 2.808910366924026285e-03
3.824124097732693372e+03 7.868314779529239633e-01 2.534657785676696935e-03
3.827948221830427428e+03 8.003648110103173119e-01 2.353829564189405688e-03
3.831776170052258749e+03 8.130445164492138277e-01 2.206427219611252315e-03
3.835607946222312421e+03 8.240992084001632634e-01 2.144519247895724894e-03
3.839443554168536139e+03 8.337834180473115975e-01 2.117344863304846184e-03
3.843282997722705659e+03 8.418609294670978960e-01 2.142803989742678855e-03
3.847126280720429804e+03 8.471166335389398450e-01 2.347356687580755014e-03
3.850973407001151372e+03 8.526259692672466528e-01 2.166533734869637799e-03
3.854824380408153957e+03 8.583396750775980077e-01 2.097092495223733168e-03
3.858679204788563311e+03 8.635846851587160034e-01 2.001023493449339760e-03
3.862537883993353262e+03 8.697801315632777142e-01 1.970097835002760592e-03
3.866400421877347981e+03 8.747030669137918490e-01 3.438044061570510318e-03
3.870266822299226533e+03 8.825242989534770599e-01 3.267636729335715497e-03
3.874137089121526969e+03 8.932469603354009635e-01 3.551626082031291484e-03
3.878011226210649966e+03 9.027007314860421294e-01 3.745490983041538987e-03
3.881889237436861549e+03 9.125580208934038762e-01 4.394731532996849592e-03
3.885771126674299921e+03 9.190620947033418808e-01 4.373909499420625992e-03
3.889656897800975457e+03 9.251062162311215475e-01 4.072281822059961413e-03
3.893546554698777527e+03 9.285007266104652324e-01 4.106484142243050327e-03
3.897440101253477678e+03 9.302341090478594143e-01 4.284086915178643255e-03
3.901337541354732366e+03 9.292391624498496094e-01 4.695211498473150259e-03
3.905238878896088409e+03 9.268724642994018437e-01 5.463382904357889924e-03
3.909144117774985716e+03 9.234957490789738044e-01 5.911062369512536802e-03
3.913053261892762293e+03 9.225438386294804172e-01 5.766049357062984736e-03
3.916966315154656058e+03 9.228824245103500745e-01 5.472841849491523990e-03
3.920883281469812118e+03 9.257597922947111702e-01 6.375125762862907976e-03
3.924804164751283224e+03 9.304858080455785663e-01 6.727609419000602289e-03
3.928728968916035683e+03 9.368974440595809750e-01 6.218602002021368473e-03
3.932657697884953450e+03 9.409569489784223029e-01 4.796252335296069536e-03
3.936590355582839493e+03 9.406432880259681939e-01 4.403951051680575317e-03
3.940526945938423523e+03 9.339801607147283358e-01 3.911969104696093325e-03
3.944467472884363360e+03 9.277537250113170320e-01 3.960336703731861911e-03
3.948411940357249023e+03 9.182546018863144699e-01 4.787896497146455765e-03
3.952360352297607733e+03 9.088686084268332577e-01 4.803525498460139813e-03
3.956312712649906643e+03 9.022312505859333420e-01 5.258420642706160622e-03
3.960269025362557841e+03 8.990031261923174810e-01 3.722052540339389117e-03
3.964229294387921527e+03 9.021266963325518251e-01 4.308590291522825140e-03
3.968193523682310570e+03 9.115360148326231426e-01 6.414908970103957650e-03
3.972161717205994591e+03 9.206715287386489921e-01 6.292975011226708063e-03
3.976133878923201792e+03 9.302720419239459693e-01 5.276351783181480043e-03
3.980110012802126221e+03 9.369414021812513260e-01 5.040144689076197018e-03
3.984090122814929600e+03 9.412990257341128375e-01 5.326348626235420138e-03
3.988074212937745870e+03 9.454372566308513193e-01 5.372500215864862115e-03
3.992062287150684824e+03 9.474029306496678515e-01 5.230461148587080625e-03
3.996054349437837118e+03 9.492588750047539214e-01 5.205396936414479099e-03
4.000050403787276082e+03 9.492718943939950638e-01 4.931733237752545726e-03
4.004050454191064546e+03 9.496584958002578514e-01 5.144933769337095737e-03
4.008054504645257111e+03 9.468663971541722013e-01 5.023239045762563533e-03
4.012062559149903791e+03 9.452152909504116796e-01 5.031233768983562997e-03
4.016074621709055009e+03 9.472385933991227525e-01 4.697415562453159492e-03
4.020090696330765240e+03 9.488488108788555309e-01 5.226112478204050782e-03
4.024110787027097558e+03 9.515490227780813992e-01 5.598849579021384151e-03
4.028134897814125907e+03 9.566776785413169115e-01 5.380196451764961661e-03
4.032163032711941469e+03 9.635639484023226231e-01 4.808453904709626518e-03
4.036195195744654484e+03 9.740512037715676197e-01 6.455319566387688647e-03
4.040231390940400615e+03 9.846026567000042418e-01 6.825117989323555706e-03
4.044271622331342314e+03 9.957581200765078799e-01 5.766872656010134379e-03
4.048315893953675186e+03 1.002714597269154906e+00 5.465048512492179031e-03
4.052364209847629809e+03 1.008228194216342244e+00 5.389922424371766142e-03
4.056416574057479011e+03 1.010501431655535853e+00 5.826200693960111726e-03
4.060472990631537868e+03 1.010630109636278862e+00 5.914501044768877801e-03
4.064533463622170530e+03 1.010572423935504505e+00 5.563265040223853292e-03
4.068597997085794304e+03 1.009742834495954256e+00 4.958809153204494884e-03
4.072666595082881486e+03 1.008777408365894690e+00 4.378995601672616353e-03
4.076739261677965715e+03 1.010897451858957741e+00 4.789619782765162752e-03
4.080816000939644709e+03 1.014030924219641916e+00 4.626785867477907661e-03
4.084896816940585722e+03 1.015863499570646589e+00 4.503469931975664572e-03
4.088981713757527814e+03 1.018127258743987351e+00 3.871567953814583976e-03
4.093070695471286854e+03 1.018934463393804668e+00 3.198897897596275977e-03
4.097163766166759160e+03 1.016463901174625040e+00 3.124102501309714355e-03
4.101260929932927866e+03 1.011173380618145767e+00 3.018711963368557114e-03
4.105362190862862008e+03 1.002968339285609689e+00 2.829435398494487344e-03
4.109467553053726078e+03 9.932883374398381315e-01 2.826622803322918591e-03
4.113577020606780934e+03 9.826327586550076543e-01 3.469753743949551602e-03
4.117690597627389252e+03 9.724422735900106751e-01 3.540172193120688562e-03
4.121808288225018259e+03 9.628118804253928964e-01 3.706457118900968739e-03
4.125930096513244280e+03 9.539566767854997797e-01 3.472944401235428507e-03
4.130056026609759101e+03 9.483559371415646311e-01 3.452126962145744826e-03
4.134186082636369974e+03 9.449754259115140664e-01 3.746743501084287206e-03
4.138320268719007800e+03 9.433455877873919704e-01 3.936316644705078853e-03
4.142458588987728035e+03 9.433421945729651981e-01 3.843661071958450002e-03
4.146601047576717065e+03 9.449913640001744719e-01 4.108611858041816278e-03
4.150747648624294925e+03 9.492054618048030301e-01 4.452945575758637635e-03
4.154898396272920763e+03 9.591396226023490845e-01 4.386149901320792951e-03
4.159053294669195566e+03 9.699393725448420822e-01 4.350436252118851897e-03
4.163212347963865795e+03 9.822194804759830644e-01 4.312346525766891717e-03
4.167375560311830668e+03 9.955269564698779883e-01 4.473269951526725671e-03
4.171542935872143971e+03 1.008292690875996156e+00 4.729729695954697742e-03
4.175714478808017702e+03 1.021891252162583141e+00 4.682945248231570705e-03
4.179890193286827525e+03 1.033577905724935020e+00 4.172972251690601139e-03
4.184070083480115500e+03 1.043213178879343062e+00 3.616849038655143862e-03
4.188254153563597356e+03 1.048973318882520545e+00 3.746036975624110477e-03
4.192442407717161586e+03 1.050938937768902459e+00 3.636739520827587599e-03
4.196634850124880359e+03 1.050238484346619705e+00 3.598673886866567313e-03
4.200831484975006788e+03 1.044442901457964590e+00 3.123197084772584651e-03
4.205032316459983122e+03 1.036409887180131939e+00 2.466458211556858335e-03
4.209237348776444378e+03 1.027256802161415905e+00 2.388222488257246007e-03
4.213446586125221984e+03 1.019158422535875852e+00 2.607172552080976036e-03
4.217660032711349231e+03 1.009813898650917974e+00 2.590200727852509134e-03
4.221877692744061278e+03 9.960527490843987808e-01 2.470363331039047462e-03
4.226099570436806971e+03 9.790404259086671335e-01 2.692992452258855321e-03
4.230325670007245208e+03 9.610003658858231601e-01 2.661519654100184817e-03
4.234555995677254032e+03 9.422435979695962249e-01 2.559208180193628130e-03
4.238790551672932452e+03 9.193226020366245255e-01 2.983156770478862831e-03
4.243029342224606808e+03 8.975443924082264768e-01 2.871179260765183931e-03
4.247272371566832589e+03 8.768243758169281810e-01 3.024649672849266668e-03
4.251519643938400804e+03 8.557399695470537804e-01 2.976544009437625399e-03
4.255771163582340705e+03 8.341882614407023500e-01 3.445913564690980709e-03
4.260026934745924336e+03 8.152756669540074386e-01 3.351918314680574305e-03
4.264286961680671993e+03 7.980770470807853068e-01 3.292372075298651869e-03
4.268551248642354039e+03 7.834485374253210566e-01 3.360837088846769984e-03
4.272819799890998183e+03 7.722937164125148746e-01 3.353518267291026762e-03
4.277092619690890388e+03 7.623258231853250466e-01 3.235551586938082910e-03
4.281369712310583054e+03 7.537489302215356624e-01 3.505870066978872875e-03
4.285651082022895025e+03 7.489598454437536024e-01 3.460712506265955710e-03
4.289936733104918858e+03 7.466658624550122081e-01 3.263662676489240567e-03
4.294226669838025373e+03 7.504345941281741483e-01 3.243717402277988826e-03
4.298520896507864563e+03 7.579518419342411439e-01 3.196794867033915348e-03
4.302819417404373780e+03 7.674795271289061027e-01 3.101344314013865927e-03
4.307122236821779552e+03 7.816694534580790332e-01 2.932765227173009508e-03
4.311429359058603040e+03 8.017425646254813243e-01 3.211432117234981013e-03
4.315740788417662770e+03 8.229443303570374013e-01 3.153132907024887820e-03
4.320056529206081905e+03 8.448162484787565818e-01 3.001702228088597244e-03
4.324376585735290064e+03 8.707131333230336834e-01 2.847928323863459059e-03
4.328700962321026054e+03 8.966083042392524183e-01 2.424031016650011333e-03
4.333029663283348782e+03 9.215787429066055747e-01 2.861605994695017897e-03
4.337362692946633615e+03 9.428850940333362018e-01 3.500240774691667101e-03
4.341700055639581478e+03 9.612402962227195591e-01 3.664311485589974438e-03
4.346041755695222491e+03 9.731751397313963547e-01 3.585455152874677739e-03
4.350387797450919606e+03 9.798079843081445306e-01 3.134847465254834292e-03
4.354738185248371337e+03 9.788489288863453375e-01 3.575966030261868833e-03
4.359092923433621763e+03 9.712466600231886016e-01 4.639298918779552472e-03
4.363452016357056891e+03 9.606036181383860173e-01 4.489032833868887573e-03
4.367815468373414660e+03 9.478586302919211892e-01 4.412161678305242217e-03
4.372183283841789489e+03 9.333647477109456858e-01 4.065795134811134130e-03
4.376555467125633186e+03 9.212295297296929641e-01 3.794052382832788489e-03
4.380932022592760404e+03 9.129569705784059686e-01 3.563545485620868165e-03
