# starting wavelength: 3125.150
# ending wavelength: 9088.410
# wav flux eflux
3.128112789473103476e+03 3.000994877480613887e-01 1.320430638626173860e-02
3.131240902262577492e+03 2.771611351797705902e-01 1.111205092006138477e-02
3.134372143164840963e+03 2.567014947032915106e-01 8.205161734756242706e-03
3.137506515308006783e+03 2.422077793419284419e-01 8.070764055834355605e-03
3.140644021823316052e+03 2.300022560630459734e-01 7.166342988927140722e-03
3.143784665845140353e+03 2.183365656537605004e-01 5.718850903642345995e-03
3.146928450510986750e+03 2.081833760872528749e-01 4.621653715064426814e-03
3.150075378961498700e+03 1.994670887231578815e-01 3.769951686956438466e-03
3.153225454340461056e+03 1.929362214145152465e-01 3.181112694550297746e-03
3.156378679794802792e+03 1.890073556380419129e-01 3.185498868891595975e-03
3.159535058474598372e+03 1.878104188470686720e-01 2.957618105199883492e-03
3.162694593533074112e+03 1.887024341990913567e-01 2.659636968484986597e-03
3.165857288126608182e+03 1.916103722123936315e-01 2.474715436268201847e-03
3.169023145414736064e+03 1.960198455390477490e-01 2.301376295896009026e-03
3.172192168560151458e+03 2.013370415315780815e-01 2.166222537506766292e-03
3.175364360728712654e+03 2.081759943723783257e-01 2.080139929674410318e-03
3.178539725089442527e+03 2.157831253999734356e-01 2.004018396280644355e-03
3.181718264814533086e+03 2.238242798248915588e-01 1.930544828803331054e-03
3.184899983079348658e+03 2.321600192095227000e-01 1.878182723009700879e-03
3.188084883062429071e+03 2.411709410253272678e-01 1.845292627294523946e-03
3.191272967945492383e+03 2.507992151527744240e-01 1.825670815644489606e-03
3.194464240913438971e+03 2.606162757506602090e-01 1.816457706957636583e-03
3.197658705154353811e+03 2.706396098397192418e-01 1.821401025636837107e-03
3.200856363859509202e+03 2.809225318124091153e-01 1.781146671666805235e-03
3.204057220223369768e+03 2.904519126398798501e-01 1.741386410595509781e-03
3.207261277443593826e+03 2.994600616394049175e-01 1.787217465021301646e-03
3.210468538721038840e+03 3.077339159507356814e-01 1.925387878565866734e-03
3.213679007259760965e+03 3.155556925238297561e-01 1.985166820891900476e-03
3.216892686267021418e+03 3.234809549826986874e-01 1.958382831596294262e-03
3.220109578953289656e+03 3.315380063823435974e-01 1.909514974526633178e-03
3.223329688532243836e+03 3.394538454022464902e-01 1.859102387758567072e-03
3.226553018220777176e+03 3.474346169557284147e-01 1.830452863050549637e-03
3.229779571238999324e+03 3.552408216937106289e-01 1.805611496674363464e-03
3.233009350810239084e+03 3.628857523596916712e-01 1.805507600162174113e-03
3.236242360161050783e+03 3.704010107686094844e-01 1.735364744406302315e-03
3.239478602521212906e+03 3.780847704593712777e-01 1.684623002025854421e-03
3.242718081123734919e+03 3.865678682985444481e-01 1.683267971177188592e-03
3.245960799204859995e+03 3.960722988381313869e-01 1.547460699834121928e-03
3.249206760004065927e+03 4.059700227136125439e-01 1.378556682120756112e-03
3.252455966764071036e+03 4.156627106440030639e-01 1.402849130203511017e-03
3.255708422730835991e+03 4.251381070579229871e-01 1.290306246384384428e-03
3.258964131153567905e+03 4.348728005363503568e-01 1.237028655221149732e-03
3.262223095284722604e+03 4.451672370971923032e-01 1.138371834128566566e-03
3.265485318380008266e+03 4.561960990419409723e-01 1.117625181884775816e-03
3.268750803698389518e+03 4.679809740046587674e-01 1.131945193270059115e-03
3.272019554502088795e+03 4.806564930068854546e-01 1.062354157680271130e-03
3.275291574056592253e+03 4.934344871086120965e-01 1.073052394064876553e-03
3.278566865630649772e+03 5.066917967989057470e-01 1.106146082549531355e-03
3.281845432496281319e+03 5.208201070860405402e-01 1.207065413696041404e-03
3.285127277928778767e+03 5.351735888765795091e-01 1.357128087656166810e-03
3.288412405206708627e+03 5.494368919291021669e-01 1.372473923192885558e-03
3.291700817611916591e+03 5.633098825801325926e-01 1.354214997391103587e-03
3.294992518429529355e+03 5.768994327885693663e-01 1.398729677743326769e-03
3.298287510947960072e+03 5.903859650304245088e-01 1.397552857907509829e-03
3.301585798458909267e+03 6.040871006428341072e-01 1.379395114600324079e-03
3.304887384257369376e+03 6.180218388433269538e-01 1.290896437932340058e-03
3.308192271641627485e+03 6.317376902647819925e-01 1.300938756928393192e-03
3.311500463913270323e+03 6.456474139925361122e-01 1.302463694415249926e-03
3.314811964377184722e+03 6.591287630503765982e-01 1.516999070299499290e-03
3.318126776341563072e+03 6.716980597536138520e-01 1.576888823187139362e-03
3.321444903117905596e+03 6.849111064188513343e-01 1.420431603272649494e-03
3.324766348021024896e+03 6.988441134708058833e-01 1.224395646919617352e-03
3.328091114369046863e+03 7.137068304247542461e-01 1.124733311597505550e-03
3.331419205483417045e+03 7.294939942048370707e-01 1.080660760266741920e-03
3.334750624688901553e+03 7.461284011396058791e-01 1.097900935133708277e-03
3.338085375313591612e+03 7.636636565104709673e-01 1.210534715453636528e-03
3.341423460688906289e+03 7.817011335628752944e-01 1.313049904613738895e-03
3.344764884149596128e+03 8.002163082834282681e-01 1.385186440677565458e-03
3.348109649033746791e+03 8.193114263739491587e-01 1.424674473683430927e-03
3.351457758682781787e+03 8.390269752281941384e-01 1.375924902984763942e-03
3.354809216441465651e+03 8.588529719851989430e-01 1.324955427642394209e-03
3.358164025657908041e+03 8.790584946117497855e-01 1.227113668630672909e-03
3.361522189683567376e+03 8.993449759749009287e-01 1.100537668817320926e-03
3.364883711873251741e+03 9.195552100370728565e-01 8.942346906285845304e-04
3.368248595585126168e+03 9.391153720387771520e-01 8.760165265412714905e-04
3.371616844180712633e+03 9.581265448682569907e-01 9.522459691067755149e-04
3.374988461024894150e+03 9.766009040418984766e-01 1.042463588525029908e-03
3.378363449485920228e+03 9.940390038384205873e-01 9.733174350117259873e-04
3.381741812935407324e+03 1.011336438670197735e+00 7.886181717151045283e-04
3.385123554748343849e+03 1.028580606917243623e+00 7.082270907904687513e-04
3.388508678303093347e+03 1.045719103688630192e+00 7.846216759869617139e-04
3.391897186981397681e+03 1.062284492839270733e+00 8.658000329173637247e-04
3.395289084168380214e+03 1.077815342135756582e+00 8.737563761880307598e-04
3.398684373252549449e+03 1.092618400099246267e+00 8.995322968286314233e-04
3.402083057625803121e+03 1.106834955252136155e+00 9.255942488198774234e-04
3.405485140683430018e+03 1.120295718622789760e+00 8.768711185007462038e-04
3.408890625824114522e+03 1.132667881342406035e+00 7.646677246677642883e-04
3.412299516449939802e+03 1.143691335278065990e+00 6.789158348063240988e-04
3.415711815966390986e+03 1.153426914748859833e+00 4.884117269173318936e-04
3.419127527782358356e+03 1.161360727735806897e+00 4.778014848356545085e-04
3.422546655310141887e+03 1.167782324085235857e+00 4.729046745498936008e-04
3.425969201965453522e+03 1.172701980396581023e+00 4.791981103673968777e-04
3.429395171167419903e+03 1.176026163837520899e+00 5.167250916621177800e-04
3.432824566338588284e+03 1.177594948916057094e+00 5.251338279239100952e-04
3.436257390904928343e+03 1.177611387140170107e+00 5.400104400472687536e-04
3.439693648295834464e+03 1.176102561647723199e+00 5.532757725465438717e-04
3.443133341944131189e+03 1.172953575470564225e+00 6.701655257215148424e-04
3.446576475286076402e+03 1.168487118338064512e+00 7.949311739285590782e-04
3.450023051761363604e+03 1.163058368517414065e+00 9.251952779580738424e-04
3.453473074813126004e+03 1.157115465275024846e+00 9.949500185812915412e-04
3.456926547887940615e+03 1.151051130627742225e+00 9.878549943933821222e-04
3.460383474435829612e+03 1.144884627670818666e+00 1.009218578752115987e-03
3.463843857910266706e+03 1.138681032149970074e+00 1.015531034730493727e-03
3.467307701768178049e+03 1.132610125476749108e+00 9.479612968448386263e-04
3.470775009469947236e+03 1.127122597889702593e+00 8.487862446002524073e-04
3.474245784479418489e+03 1.122413834884270933e+00 7.104562293429174218e-04
3.477720030263898934e+03 1.118509753213112523e+00 5.576909229252819972e-04
3.481197750294164052e+03 1.115816921415642149e+00 4.944693231550046936e-04
3.484678948044459503e+03 1.114614159628822598e+00 5.066587582449598752e-04
3.488163626992504760e+03 1.114669573895965105e+00 5.629712596252400359e-04
3.491651790619498570e+03 1.115705989287270938e+00 6.382715796532645574e-04
3.495143442410119405e+03 1.117664272055292951e+00 7.247956980423917676e-04
3.498638585852530468e+03 1.120412495192733893e+00 8.997913486677805656e-04
3.502137224438384237e+03 1.123504277152584718e+00 1.094572491474071763e-03
3.505639361662823831e+03 1.126247565047912680e+00 1.160717070274124973e-03
3.509145001024487556e+03 1.128390251405632982e+00 1.175389014263902550e-03
3.512654146025513455e+03 1.129600613711336132e+00 1.152165024153410091e-03
3.516166800171540217e+03 1.129777457102394189e+00 1.064285955519015574e-03
3.519682966971712631e+03 1.128719171321144410e+00 9.819710520452462534e-04
3.523202649938685681e+03 1.126326989561461378e+00 1.045760545704491756e-03
3.526725852588625457e+03 1.122529817275017994e+00 1.271036694694607089e-03
3.530252578441215064e+03 1.117633377164223285e+00 1.421532935459436566e-03
3.533782831019657806e+03 1.111847303294113853e+00 1.487705205041766742e-03
3.537316613850678550e+03 1.105418834308219411e+00 1.399864973326842314e-03
3.540853930464530094e+03 1.098031518315109034e+00 1.181208316004007247e-03
3.544394784394995895e+03 1.090351163820812319e+00 8.945991691314952041e-04
3.547939179179392340e+03 1.082776372432675993e+00 7.521588528354140012e-04
3.551487118358572843e+03 1.075549566775496402e+00 8.285604848495517786e-04
3.555038605476932389e+03 1.068565047015564540e+00 8.253495100350754414e-04
3.558593644082410719e+03 1.061929219123735946e+00 7.904827931701058873e-04
3.562152237726494150e+03 1.055730584558731477e+00 7.242448330999739625e-04
3.565714389964221937e+03 1.049955979563497399e+00 6.822680386108173232e-04
3.569280104354187188e+03 1.044697519494986349e+00 6.952482933498592508e-04
3.572849384458542772e+03 1.039567650324266346e+00 6.777086793096034250e-04
3.576422233843002232e+03 1.034580296366318652e+00 6.764265467080608123e-04
3.579998656076846601e+03 1.029907470337235953e+00 7.202575035301490803e-04
3.583578654732924406e+03 1.025515219905259068e+00 8.442745259404588285e-04
3.587162233387658489e+03 1.021507277073577580e+00 9.423930134529737894e-04
3.590749395621047370e+03 1.017515005406158135e+00 9.073404237966011887e-04
3.594340145016669794e+03 1.013593410527075411e+00 8.887563661623929271e-04
3.597934485161687462e+03 1.010334062785236187e+00 8.755147054531608195e-04
3.601532419646850485e+03 1.007225078505781690e+00 1.072331377438390373e-03
3.605133952066498296e+03 1.004790786853391404e+00 1.384438226709034780e-03
3.608739086018566013e+03 1.003162403853113949e+00 1.716991573446699157e-03
3.612347825104585809e+03 1.001951259492994906e+00 1.639410766534675793e-03
3.615960172929691907e+03 1.003248985337993560e+00 1.460530309357576479e-03
3.619576133102622407e+03 1.006735488655139843e+00 1.187337972639782848e-03
3.623195709235726554e+03 1.013326281277553864e+00 8.907499014995122260e-04
3.626818904944963379e+03 1.022829104154870494e+00 8.894982428016410571e-04
3.630445723849909427e+03 1.034894258765557185e+00 1.153875021894056616e-03
3.634076169573760581e+03 1.049349643997554038e+00 1.702032883645817566e-03
3.637710245743335690e+03 1.064542818595505924e+00 2.109852647537047154e-03
3.641347955989080219e+03 1.079547743849573749e+00 2.285381975501086117e-03
3.644989303945070333e+03 1.093050734513716371e+00 2.262508192187169271e-03
3.648634293249016537e+03 1.103749591780571304e+00 1.924765703048024468e-03
3.652282927542266862e+03 1.110240523929789225e+00 1.275913634507547679e-03
3.655935210469810499e+03 1.111175428868709014e+00 9.740755755782048086e-04
3.659591145680281443e+03 1.106290603911865622e+00 8.220920305582570583e-04
3.663250736825963031e+03 1.095498707069618050e+00 6.949228903641763199e-04
3.666913987562790226e+03 1.078229207120537270e+00 6.632113516761437488e-04
3.670580901550354156e+03 1.054263421795277988e+00 8.384293860212524169e-04
3.674251482451905758e+03 1.024410880006764835e+00 1.196610528949348159e-03
3.677925733934358959e+03 9.896492691030530642e-01 1.430735297668583395e-03
3.681603659668294313e+03 9.517317765261817941e-01 1.580006292221394987e-03
3.685285263327964003e+03 9.119614186664311006e-01 1.630639820022983895e-03
3.688970548591293209e+03 8.719243775735927571e-01 1.642574946260471833e-03
3.692659519139885560e+03 8.328910046392894451e-01 1.459513408908313633e-03
3.696352178659026777e+03 7.959889345899521240e-01 1.094347999281309030e-03
3.700048530837686940e+03 7.622672704802209154e-01 1.012092001945986367e-03
3.703748579368525952e+03 7.322093253860131323e-01 1.088864370595944058e-03
3.707452327947895355e+03 7.061221319199841862e-01 1.270914263019208134e-03
3.711159780275844696e+03 6.844484482055473995e-01 1.285112856429306959e-03
3.714870940056121526e+03 6.665122005361435731e-01 1.196373519626221966e-03
3.718585810996179134e+03 6.516569062960088088e-01 9.516922911355195228e-04
3.722304396807176545e+03 6.401332597108460032e-01 5.826295437658174023e-04
3.726026701203984885e+03 6.307302170568236388e-01 3.502133235558518051e-04
3.729752727905190113e+03 6.227877547673592584e-01 3.530033694584242031e-04
3.733482480633096657e+03 6.162063497643420762e-01 3.509009420581917275e-04
3.737215963113731050e+03 6.115259664799125305e-01 3.607885472644894380e-04
3.740953179076846027e+03 6.083121620060051304e-01 3.782987312086470732e-04
3.744694132255923705e+03 6.064033981137776363e-01 4.051985832098011506e-04
3.748438826388181042e+03 6.056596544815757710e-01 3.881312918248654891e-04
3.752187265214570289e+03 6.061687666922828122e-01 3.485959717024360088e-04
3.755939452479786269e+03 6.079026440426782418e-01 3.407184307329830806e-04
3.759695391932267285e+03 6.107722150368826153e-01 3.289132004919518844e-04
3.763455087324201031e+03 6.145870497309929847e-01 3.391527649707716313e-04
3.767218542411526414e+03 6.194741136481677346e-01 4.754943057949298762e-04
3.770985760953939007e+03 6.250170579203407906e-01 4.042604717312883993e-04
3.774756746714894234e+03 6.307546787742757122e-01 3.480602310082512359e-04
3.778531503461610555e+03 6.367482735828949858e-01 2.823973073615557898e-04
3.782310034965073100e+03 6.428154132061423276e-01 2.494419928202150773e-04
3.786092345000039586e+03 6.490216895572831213e-01 3.914676864995550085e-04
3.789878437345040766e+03 6.551824644587844748e-01 4.670795094123643605e-04
3.793668315782387253e+03 6.613965208666289231e-01 4.387722705770787340e-04
3.797461984098170888e+03 6.679741426320543463e-01 4.674020733712620909e-04
3.801259446082270188e+03 6.751377749260712990e-01 8.568522892389811426e-04
3.805060705528353537e+03 6.837712804996634031e-01 1.016565825960058468e-03
3.808865766233883278e+03 6.947156807085302921e-01 1.164839104117447064e-03
3.812674632000118436e+03 7.090502166212597768e-01 1.100423668188328565e-03
3.816487306632119726e+03 7.272568898356491784e-01 9.631389125645849810e-04
3.820303793938753188e+03 7.501767593763492004e-01 7.989281061171676435e-04
3.824124097732693372e+03 7.782915862876007562e-01 8.610776811357615315e-04
3.827948221830427428e+03 8.112950545339312480e-01 8.640121531792942754e-04
3.831776170052258749e+03 8.498416515574556129e-01 9.069776943897429715e-04
3.835607946222312421e+03 8.933107414347558617e-01 8.535951017157814838e-04
3.839443554168536139e+03 9.418947924353753276e-01 7.593382131651383454e-04
3.843282997722705659e+03 9.950556058521882186e-01 7.800813222163799484e-04
3.847126280720429804e+03 1.052418522475784712e+00 7.840396879512325943e-04
3.850973407001151372e+03 1.113666912247127661e+00 7.359605698846968542e-04
3.854824380408153957e+03 1.178537714840899087e+00 1.098564572172290458e-03
3.858679204788563311e+03 1.245834169397314506e+00 1.164320661930134558e-03
3.862537883993353262e+03 1.314495840088527823e+00 1.234828102075479026e-03
3.866400421877347981e+03 1.384506136664887643e+00 1.318791696044272497e-03
3.870266822299226533e+03 1.455471159128528758e+00 1.329123105458007324e-03
3.874137089121526969e+03 1.525809223702335293e+00 1.542594059233414611e-03
3.878011226210649966e+03 1.594451022317816102e+00 1.961544632078941666e-03
3.881889237436861549e+03 1.659135614279369397e+00 2.126644417670799005e-03
3.885771126674299921e+03 1.719170984799079038e+00 2.182048978442516912e-03
3.889656897800975457e+03 1.773169112187732877e+00 2.173119788347276614e-03
3.893546554698777527e+03 1.820693772189101667e+00 2.035204469336478195e-03
3.897440101253477678e+03 1.861000814755676469e+00 1.851461171304595935e-03
3.901337541354732366e+03 1.893560904867563899e+00 2.214672186092975659e-03
3.905238878896088409e+03 1.919595098099294628e+00 2.760914785505167151e-03
3.909144117774985716e+03 1.939486137642701946e+00 3.104622140764200233e-03
3.913053261892762293e+03 1.955197067137232070e+00 2.759134344546992825e-03
3.916966315154656058e+03 1.968033024949095822e+00 2.067159533800650220e-03
3.920883281469812118e+03 1.979240470228512461e+00 1.622385593012119721e-03
3.924804164751283224e+03 1.989877214450790133e+00 1.885402349622988761e-03
3.928728968916035683e+03 2.000388951560234663e+00 1.656234158529141989e-03
3.932657697884953450e+03 2.009268415110700534e+00 1.596786697545875223e-03
3.936590355582839493e+03 2.017126696429673682e+00 1.915028914937584288e-03
3.940526945938423523e+03 2.025378934197388681e+00 1.902048498335050675e-03
3.944467472884363360e+03 2.034112196933473005e+00 1.926516460149831512e-03
3.948411940357249023e+03 2.042562183480207239e+00 1.970515021497966108e-03
3.952360352297607733e+03 2.050615040936250466e+00 2.045981620368967236e-03
3.956312712649906643e+03 2.057409862785255950e+00 2.114775416786146122e-03
3.960269025362557841e+03 2.063060435050062313e+00 2.146743973162627741e-03
3.964229294387921527e+03 2.067407750367749042e+00 2.103859046571733473e-03
3.968193523682310570e+03 2.070339335306435657e+00 1.878768540604860201e-03
3.972161717205994591e+03 2.070586619419474417e+00 1.659820542113560858e-03
3.976133878923201792e+03 2.067374574509490692e+00 1.645856846215725759e-03
3.980110012802126221e+03 2.060463079925745511e+00 1.680073403630912791e-03
3.984090122814929600e+03 2.049766419357847980e+00 1.479798859460876650e-03
3.988074212937745870e+03 2.036076758943178522e+00 1.665964421836600620e-03
3.992062287150684824e+03 2.018793779070649386e+00 1.930462633420527594e-03
3.996054349437837118e+03 1.998034865922328152e+00 1.863885631407531532e-03
4.000050403787276082e+03 1.973764919727115208e+00 1.377038463864249662e-03
4.004050454191064546e+03 1.945382840065159824e+00 1.383396466150481558e-03
4.008054504645257111e+03 1.912831829512215531e+00 1.804751114027715710e-03
4.012062559149903791e+03 1.878076200599931633e+00 1.809675907743615690e-03
4.016074621709055009e+03 1.842801263818161450e+00 1.704206004279600973e-03
4.020090696330765240e+03 1.807320860158891040e+00 1.619781143211286188e-03
4.024110787027097558e+03 1.772785526204675000e+00 1.431133989217550119e-03
4.028134897814125907e+03 1.740773641789396420e+00 1.165704878961590623e-03
4.032163032711941469e+03 1.711976270953879276e+00 1.078509269506193686e-03
4.036195195744654484e+03 1.686377200654838759e+00 1.220130487033864669e-03
4.040231390940400615e+03 1.664116395816740646e+00 1.493556621939599047e-03
4.044271622331342314e+03 1.644795238189703079e+00 1.548973087847469897e-03
4.048315893953675186e+03 1.626921606911375440e+00 1.324057086464650338e-03
4.052364209847629809e+03 1.609533119849728688e+00 1.182875382500836459e-03
4.056416574057479011e+03 1.591969113874402320e+00 1.118045374226695442e-03
4.060472990631537868e+03 1.574263117100420217e+00 1.068266735252257739e-03
4.064533463622170530e+03 1.556562044132629108e+00 8.926275344395950134e-04
4.068597997085794304e+03 1.538019545699436108e+00 9.990249214975243860e-04
4.072666595082881486e+03 1.519023447574922914e+00 1.194865806105353725e-03
