# starting wavelength: 3712.720
# ending wavelength: 7525.740
# wav flux eflux
3.714870940056121526e+03 1.547745333181772542e-01 5.309241499526577701e-02
3.718585810996179134e+03 1.927412766378585607e-01 4.036128831961188074e-02
3.722304396807176545e+03 2.209685499330599490e-01 3.033260766568378689e-02
3.726026701203984885e+03 2.392288767543925831e-01 2.350600933343775442e-02
3.729752727905190113e+03 2.466256092518098741e-01 1.916708631855383593e-02
3.733482480633096657e+03 2.506886144250454751e-01 1.565816259868894889e-02
3.737215963113731050e+03 2.521312847478054953e-01 1.288389310458995345e-02
3.740953179076846027e+03 2.491389849868424766e-01 1.057766067556183652e-02
3.744694132255923705e+03 2.432671078491958627e-01 9.044326540345969459e-03
3.748438826388181042e+03 2.345205966127142938e-01 7.882237586399309590e-03
3.752187265214570289e+03 2.259251414716962614e-01 6.926510984679333169e-03
3.755939452479786269e+03 2.194446389962991517e-01 6.447684852951929974e-03
3.759695391932267285e+03 2.126152300721336763e-01 5.953645131347901770e-03
3.763455087324201031e+03 2.067788757549020306e-01 5.615072125923189876e-03
3.767218542411526414e+03 2.035386124090495796e-01 5.507584195138991168e-03
3.770985760953939007e+03 1.986253450423718925e-01 5.279538961146690301e-03
3.774756746714894234e+03 1.946668634306973622e-01 5.124514619057240518e-03
3.778531503461610555e+03 1.929337209879604387e-01 5.106070501166023491e-03
3.782310034965073100e+03 1.916094285675400133e-01 4.937190702837549600e-03
3.786092345000039586e+03 1.916849477381212807e-01 4.974217390364682814e-03
3.789878437345040766e+03 1.920652043700864786e-01 4.993023515927410248e-03
3.793668315782387253e+03 1.927834892798452049e-01 4.532725420170749357e-03
3.797461984098170888e+03 1.932087354198565865e-01 4.474483453528936214e-03
3.801259446082270188e+03 1.923671113443695402e-01 4.319792952064315655e-03
3.805060705528353537e+03 1.916818125394506023e-01 4.220638123016670282e-03
3.808865766233883278e+03 1.894489416190631714e-01 4.249745988552304336e-03
3.812674632000118436e+03 1.844515586049239875e-01 4.345184708421345222e-03
3.816487306632119726e+03 1.813945061516204771e-01 4.454426823443851345e-03
3.820303793938753188e+03 1.787995897707653215e-01 4.516483039985272861e-03
3.824124097732693372e+03 1.741603505683999020e-01 4.427474074105525355e-03
3.827948221830427428e+03 1.683426033883182737e-01 4.376647266262421836e-03
3.831776170052258749e+03 1.635166114105640056e-01 4.425734862416540703e-03
3.835607946222312421e+03 1.577343056673495003e-01 4.296185635399860439e-03
3.839443554168536139e+03 1.526947758214477202e-01 4.317284218721021555e-03
3.843282997722705659e+03 1.485477994866381823e-01 4.216436085040361527e-03
3.847126280720429804e+03 1.428655831278767552e-01 4.220157510404939222e-03
3.850973407001151372e+03 1.361250363649343376e-01 4.079610679863550013e-03
3.854824380408153957e+03 1.321655189633005045e-01 4.076953176003253118e-03
3.858679204788563311e+03 1.291399952805523943e-01 4.036217198892981008e-03
3.862537883993353262e+03 1.292192584745593675e-01 3.676294593354876607e-03
3.866400421877347981e+03 1.267712378450396027e-01 3.510590987513524577e-03
3.870266822299226533e+03 1.251202724232022556e-01 3.458352241227494184e-03
3.874137089121526969e+03 1.219914299732123009e-01 3.319940927658250954e-03
3.878011226210649966e+03 1.200483544733400437e-01 3.241879816413458567e-03
3.881889237436861549e+03 1.207810864573640036e-01 3.328229425862968410e-03
3.885771126674299921e+03 1.233224996228890757e-01 3.455633181972332223e-03
3.889656897800975457e+03 1.250894210931416950e-01 3.517828810658674490e-03
3.893546554698777527e+03 1.284965019971287536e-01 3.736973387543590305e-03
3.897440101253477678e+03 1.326320926304453973e-01 3.650020517718865522e-03
3.901337541354732366e+03 1.400109866781619472e-01 3.836993372722725427e-03
3.905238878896088409e+03 1.522279489874746039e-01 4.049381224605340737e-03
3.909144117774985716e+03 1.665512476287109300e-01 4.008531467677033458e-03
3.913053261892762293e+03 1.823033937941908045e-01 4.115491317597826278e-03
3.916966315154656058e+03 2.000081861932562211e-01 4.060227194500810009e-03
3.920883281469812118e+03 2.211433619791408900e-01 4.247395512573685049e-03
3.924804164751283224e+03 2.393184208974597771e-01 4.449902621066695839e-03
3.928728968916035683e+03 2.602200169403077190e-01 4.620067380958864552e-03
3.932657697884953450e+03 2.784028519304215799e-01 4.722271014423767843e-03
3.936590355582839493e+03 2.999598572828456322e-01 4.522420493317969026e-03
3.940526945938423523e+03 3.180091532378268027e-01 4.551141916559356057e-03
3.944467472884363360e+03 3.356209789204406824e-01 4.418020741953591381e-03
3.948411940357249023e+03 3.499151944974087103e-01 4.475305201459682004e-03
3.952360352297607733e+03 3.620102561017906617e-01 4.600374285971881548e-03
3.956312712649906643e+03 3.724594721214066761e-01 4.728810018861343868e-03
3.960269025362557841e+03 3.753411651476540323e-01 4.907387348601369159e-03
3.964229294387921527e+03 3.777771298938070732e-01 5.011336057353209771e-03
3.968193523682310570e+03 3.762550987285451232e-01 4.958444099058247935e-03
3.972161717205994591e+03 3.774261310690401050e-01 5.107305944480697128e-03
3.976133878923201792e+03 3.722433768898541495e-01 4.719773300419665731e-03
3.980110012802126221e+03 3.698778036505172562e-01 5.109123598081424800e-03
3.984090122814929600e+03 3.677860860463326165e-01 5.435018825766876546e-03
3.988074212937745870e+03 3.638334205067941252e-01 5.659490599207047355e-03
3.992062287150684824e+03 3.611049615515933842e-01 5.482328718857636465e-03
3.996054349437837118e+03 3.563663091089122603e-01 4.445202868712684781e-03
4.000050403787276082e+03 3.433644676565999476e-01 4.475814375700302300e-03
4.004050454191064546e+03 3.280540898774788605e-01 4.600771203556293376e-03
4.008054504645257111e+03 3.137831438431677999e-01 4.563948809808882241e-03
4.012062559149903791e+03 2.934638604588873934e-01 4.524676886388085371e-03
4.016074621709055009e+03 2.751597030156411883e-01 6.386934710664131203e-03
4.020090696330765240e+03 2.586941568795120827e-01 7.103094534272052715e-03
4.024110787027097558e+03 2.550015160254849311e-01 8.189959032663935920e-03
4.028134897814125907e+03 2.595285089833443415e-01 8.239720892436026844e-03
4.032163032711941469e+03 2.895390080274790612e-01 7.992997516971639058e-03
4.036195195744654484e+03 3.361256016778553790e-01 8.469920290192143458e-03
4.040231390940400615e+03 3.997446214397187281e-01 1.038838160429911631e-02
4.044271622331342314e+03 4.762440746799371238e-01 1.244895494723446960e-02
4.048315893953675186e+03 5.584071430244932355e-01 1.310205928886251647e-02
4.052364209847629809e+03 6.429794488326496804e-01 1.325129452473761127e-02
4.056416574057479011e+03 7.205861463419113155e-01 1.262645909994856985e-02
4.060472990631537868e+03 7.802176743473081544e-01 1.125125493250237786e-02
4.064533463622170530e+03 8.175780341055591816e-01 1.055089971682174853e-02
4.068597997085794304e+03 8.316026799547869830e-01 1.177361794094430522e-02
4.072666595082881486e+03 8.186413185640507573e-01 1.366322568454915107e-02
4.076739261677965715e+03 7.879494361878190967e-01 1.404269643756130871e-02
4.080816000939644709e+03 7.440365079496575884e-01 1.266739879679776304e-02
4.084896816940585722e+03 6.940819216820800497e-01 1.041001963372233455e-02
4.088981713757527814e+03 6.470708913600441425e-01 8.344291288175939916e-03
4.093070695471286854e+03 6.136685514958295506e-01 9.251373288949697737e-03
4.097163766166759160e+03 5.954171726734642789e-01 9.190556925703606550e-03
4.101260929932927866e+03 5.761674094593689510e-01 8.513230232690788615e-03
4.105362190862862008e+03 5.545978132505237079e-01 6.204118484630646163e-03
4.109467553053726078e+03 5.224994921400225589e-01 6.334324227880175351e-03
4.113577020606780934e+03 4.846857707687366457e-01 6.713452272979289308e-03
4.117690597627389252e+03 4.486561608916586064e-01 7.242317745624547200e-03
4.121808288225018259e+03 4.155697008276665327e-01 7.276913101698298525e-03
4.125930096513244280e+03 3.777750329933631246e-01 6.657874184545303775e-03
4.130056026609759101e+03 3.423956105771920333e-01 5.133470837238848783e-03
4.134186082636369974e+03 3.162526797067063411e-01 5.110042584804423173e-03
4.138320268719007800e+03 2.988254308874225273e-01 4.862432908654125766e-03
4.142458588987728035e+03 2.881604001556397066e-01 4.388261452024772719e-03
4.146601047576717065e+03 2.778559254808096179e-01 4.192707945618272432e-03
4.150747648624294925e+03 2.689733548273928188e-01 4.114336601494279419e-03
4.154898396272920763e+03 2.634316246126012784e-01 3.943284171314455702e-03
4.159053294669195566e+03 2.583863784166559041e-01 4.056923810225228529e-03
4.163212347963865795e+03 2.547823320175176542e-01 3.949569570114019358e-03
4.167375560311830668e+03 2.507523030403381314e-01 3.775272940853360154e-03
4.171542935872143971e+03 2.468507433025888542e-01 3.769262542951482605e-03
4.175714478808017702e+03 2.473926784142383428e-01 3.850107868594020676e-03
4.179890193286827525e+03 2.528434179733081710e-01 3.824293056771891752e-03
4.184070083480115500e+03 2.567912203178723263e-01 4.768041521167319143e-03
4.188254153563597356e+03 2.660836138852702981e-01 5.410918901040021912e-03
4.192442407717161586e+03 2.800381377141265005e-01 5.283292560355489637e-03
4.196634850124880359e+03 3.011917233461146592e-01 4.394897652705811314e-03
4.200831484975006788e+03 3.338427390438060693e-01 5.071342337684415537e-03
4.205032316459983122e+03 3.680370504455494629e-01 6.244247654107423252e-03
4.209237348776444378e+03 4.069984680256615306e-01 7.881632932186490720e-03
4.213446586125221984e+03 4.409108534244014499e-01 7.810103314422622151e-03
4.217660032711349231e+03 4.629803280929200016e-01 6.722279898428115165e-03
4.221877692744061278e+03 4.717001457815858112e-01 5.542924690666533802e-03
4.226099570436806971e+03 4.612982609649789456e-01 6.475638058948935717e-03
4.230325670007245208e+03 4.342201005447302031e-01 7.906799764802727171e-03
4.234555995677254032e+03 3.995630767965090424e-01 7.954978290095941762e-03
4.238790551672932452e+03 3.545977156838170385e-01 6.969132209563647963e-03
4.243029342224606808e+03 3.122208903654254963e-01 6.246158569746430508e-03
4.247272371566832589e+03 2.731570401587340990e-01 5.251972464251295110e-03
4.251519643938400804e+03 2.450676459827656750e-01 4.781106890813713838e-03
4.255771163582340705e+03 2.313923803561257486e-01 5.658335161509358419e-03
4.260026934745924336e+03 2.285812728562712226e-01 4.865620068696820989e-03
4.264286961680671993e+03 2.331118411642827404e-01 4.356263490609467957e-03
4.268551248642354039e+03 2.458596761124917651e-01 4.182151851715627117e-03
4.272819799890998183e+03 2.610007350086834266e-01 4.101477978449280873e-03
4.277092619690890388e+03 2.786158809246682133e-01 3.925301966121614965e-03
4.281369712310583054e+03 2.928778161772848110e-01 3.711994523921273263e-03
4.285651082022895025e+03 3.106234271170325578e-01 3.843007220738826370e-03
4.289936733104918858e+03 3.260769218061126962e-01 3.787078283250610179e-03
4.294226669838025373e+03 3.409634674057386849e-01 3.937331057207672270e-03
4.298520896507864563e+03 3.510582601568747463e-01 4.046828891311045513e-03
4.302819417404373780e+03 3.604967853216167750e-01 3.860445201821194848e-03
4.307122236821779552e+03 3.615056923067566097e-01 3.741064818756568728e-03
4.311429359058603040e+03 3.581342064220025545e-01 3.706199903404393259e-03
4.315740788417662770e+03 3.513445583361465285e-01 3.596495444366297565e-03
4.320056529206081905e+03 3.405567251576308019e-01 3.656967494995120964e-03
4.324376585735290064e+03 3.242024516566583414e-01 3.765783425719015139e-03
4.328700962321026054e+03 3.062549024899443584e-01 3.808101808046179815e-03
4.333029663283348782e+03 2.910861067641073441e-01 3.893394072748137483e-03
4.337362692946633615e+03 2.821516455288138325e-01 3.918921855238439653e-03
4.341700055639581478e+03 2.743166505360689067e-01 3.507001885991838097e-03
4.346041755695222491e+03 2.707235715672817733e-01 3.230552965302999242e-03
4.350387797450919606e+03 2.747582412346183389e-01 3.133019492708654600e-03
4.354738185248371337e+03 2.834576792802175893e-01 3.158922658233419799e-03
4.359092923433621763e+03 2.973501106508499303e-01 3.235475478911951138e-03
4.363452016357056891e+03 3.103525602151658846e-01 3.141895932438197852e-03
4.367815468373414660e+03 3.269004069179575200e-01 2.880193953762397695e-03
4.372183283841789489e+03 3.405514239694432677e-01 3.243660815891780558e-03
4.376555467125633186e+03 3.525477447376279549e-01 3.352533173748776206e-03
4.380932022592760404e+03 3.646146851802410938e-01 3.430158959712901155e-03
4.385312954615354101e+03 3.689740516823164507e-01 3.489177325987180382e-03
4.389698267569970994e+03 3.715526774307986724e-01 3.518936038646306927e-03
4.394087965837542470e+03 3.714334037652843312e-01 3.513937201774996848e-03
4.398482053803381859e+03 3.663195235174525610e-01 4.199593970436967492e-03
4.402880535857186260e+03 3.600073322307087986e-01 5.536489559594778842e-03
4.407283416393044718e+03 3.569860762167776924e-01 5.757001679977227608e-03
4.411690699809440048e+03 3.608311053928267009e-01 5.416124853194257023e-03
4.416102390509250654e+03 3.727199409056428103e-01 5.641761661700475140e-03
4.420518492899761441e+03 3.911768035466528515e-01 6.678916769155615087e-03
4.424939011392662906e+03 4.118679957029063310e-01 6.931172872125758964e-03
4.429363950404056595e+03 4.303047098938340698e-01 6.800081409523479718e-03
4.433793314354462382e+03 4.485759254984533206e-01 6.484144558804994310e-03
4.438227107668818462e+03 4.580767266404593419e-01 6.195130619653156125e-03
4.442665334776488635e+03 4.642411095970009893e-01 5.779355133453473008e-03
4.447108000111265937e+03 4.603203399682014862e-01 5.929982018379110174e-03
4.451555108111379013e+03 4.467007552862758413e-01 6.356987870984724155e-03
4.456006663219492111e+03 4.280736373773277315e-01 6.194931587926440046e-03
4.460462669882713271e+03 4.022497378586861183e-01 4.610305479560631962e-03
4.464923132552597053e+03 3.805602407197113957e-01 4.571283254275024417e-03
4.469388055685150903e+03 3.572711757464623328e-01 4.526779853917760159e-03
4.473857443740837880e+03 3.401535368683931138e-01 4.215101178203292144e-03
4.478331301184580298e+03 3.255543605092119930e-01 3.628862588969990893e-03
4.482809632485766087e+03 3.113883682133670172e-01 3.257059829326216290e-03
4.487292442118253348e+03 2.953263603818538363e-01 3.058236569579192606e-03
4.491779734560373072e+03 2.814249941155103629e-01 2.953107605476066808e-03
4.496271514294934605e+03 2.684621003558346208e-01 2.648085133419245379e-03
4.500767785809231100e+03 2.641869804694110258e-01 2.662195563463750931e-03
4.505268553595042249e+03 2.686977863832666902e-01 3.197539125712323474e-03
4.509773822148638828e+03 2.756263554924626713e-01 3.204559594290584679e-03
4.514283595970789065e+03 2.887236423827727050e-01 3.778663531417501397e-03
4.518797879566761367e+03 3.098572980681550959e-01 4.149076065805241270e-03
4.523316677446328868e+03 3.282938240815894693e-01 4.222476980426938600e-03
4.527839994123776705e+03 3.488070436792274354e-01 5.763533773448726444e-03
4.532367834117902021e+03 3.723790061661043094e-01 9.463635506308699583e-03
4.536900201952022144e+03 4.068290255662854737e-01 1.106445498929789842e-02
4.541437102153975502e+03 4.624023875936138506e-01 1.078594687985757680e-02
4.545978539256130716e+03 5.441812735010744806e-01 1.050172165962769827e-02
4.550524517795388419e+03 6.579665626148903934e-01 1.688452895397652906e-02
4.555075042313184895e+03 7.698875643398984669e-01 2.062311052503707290e-02
4.559630117355500261e+03 8.767075778812877251e-01 2.184419185731472507e-02
4.564189747472856652e+03 9.610771825305650662e-01 2.009139470909804617e-02
4.568753937220330954e+03 1.011210313905391844e+00 1.852491200332969171e-02
4.573322691157552981e+03 1.026064126616365924e+00 2.133978552490671532e-02
4.577896013848711846e+03 1.011852341028680158e+00 2.608830639829117642e-02
4.582473909862562323e+03 9.797510520101764264e-01 2.729867244494378967e-02
4.587056383772426670e+03 9.469632297182321023e-01 2.494943213539304108e-02
4.591643440156200086e+03 9.204314836456704008e-01 2.232987873644230042e-02
4.596235083596357981e+03 9.033364557208751755e-01 2.226008053776717260e-02
4.600831318679955984e+03 9.044830806049848348e-01 2.532837836467421652e-02
4.605432149998637215e+03 9.207437829905480431e-01 2.489059806369164560e-02
4.610037582148637739e+03 9.363213856313958861e-01 2.202999970295979951e-02
4.614647619730787483e+03 9.493856693140345637e-01 2.112239943981458756e-02
4.619262267350520233e+03 9.595582636441868374e-01 2.325732179254273377e-02
4.623881529617872729e+03 9.685119977990332973e-01 2.481269540445045843e-02
4.628505411147491941e+03 9.793183971787648989e-01 2.209028097346193639e-02
4.633133916558640522e+03 1.004540118153452566e+00 1.937808712692455984e-02
4.637767050475200449e+03 1.048360956583554549e+00 2.043707089980698402e-02
4.642404817525677572e+03 1.108824958999643506e+00 2.261198282713995297e-02
4.647047222343205249e+03 1.179368685693860108e+00 2.239547158421911072e-02
4.651694269565549803e+03 1.247110642817831794e+00 1.826178473466599089e-02
4.656345963835116891e+03 1.302719281599261425e+00 1.383002789510061337e-02
4.661002309798953320e+03 1.332358283492016904e+00 1.244821565055600002e-02
4.665663312108753416e+03 1.322482981240707511e+00 1.345360365240503078e-02
4.670328975420864481e+03 1.277602536109815778e+00 1.497156103800281746e-02
4.674999304396286789e+03 1.210910050774310687e+00 1.406428777133600372e-02
4.679674303700684504e+03 1.147390577280636315e+00 1.113831365727597882e-02
4.684353978004386590e+03 1.095170252295058377e+00 7.832301682653688632e-03
4.689038331982392265e+03 1.068696973055600852e+00 8.238815939827566492e-03
4.693727370314376458e+03 1.063898107844170937e+00 9.872759448346703562e-03
4.698421097684692540e+03 1.071069219251202354e+00 1.019354157269735869e-02
4.703119518782378691e+03 1.081109684329404796e+00 1.051738653775048139e-02
4.707822638301162442e+03 1.087099608243253357e+00 1.030061843838019423e-02
4.712530460939465229e+03 1.082704251685718155e+00 1.005520658678261785e-02
4.717242991400406027e+03 1.070108100265171114e+00 9.985877835150319334e-03
4.721960234391808626e+03 1.051815120244859125e+00 1.025925257601406279e-02
4.726682194626201635e+03 1.028974737265693440e+00 1.036635783464315286e-02
4.731408876820829391e+03 9.956287003409202141e-01 1.004849194722136699e-02
4.736140285697651962e+03 9.529458297432243929e-01 9.586064094089725637e-03
4.740876425983350600e+03 8.972400308835074556e-01 7.420996547878538560e-03
4.745617302409335934e+03 8.579360508784715789e-01 6.576602221108493462e-03
4.750362919711747054e+03 8.378531496605177153e-01 6.378640687080599538e-03
4.755113282631459697e+03 8.290474009072081873e-01 5.799093186428829795e-03
4.759868395914093526e+03 8.242534074093726959e-01 6.772639394037678791e-03
4.764628264310008490e+03 8.318189930699088075e-01 7.272169622674483358e-03
4.769392892574320285e+03 8.538948996228871158e-01 7.123464426573191191e-03
4.774162285466896719e+03 8.855638028189373179e-01 7.285662290481196429e-03
4.778936447752364984e+03 9.373376065079611630e-01 1.133267246659401539e-02
4.783715384200118933e+03 9.867508217939255921e-01 1.375509090674234373e-02
4.788499099584319993e+03 1.021233573955750096e+00 1.414385647133051781e-02
4.793287598683906253e+03 1.037795426833943768e+00 1.232240725370157761e-02
4.798080886282591564e+03 1.023848553112310045e+00 1.199925072712755732e-02
4.802878967168876443e+03 9.889061128423389802e-01 1.389397439232613156e-02
4.807681846136046261e+03 9.276021064831221352e-01 1.580204638537403145e-02
4.812489527982183972e+03 8.547277890401953071e-01 1.583041296887940930e-02
4.817302017510168298e+03 7.834579646945173392e-01 1.506713314787712366e-02
4.822119319527679181e+03 7.290063093653162962e-01 1.345426654058760017e-02
4.826941438847208701e+03 6.911989877905911905e-01 1.264419796457868887e-02
4.831768380286057436e+03 6.752588707455832173e-01 1.449250421237982187e-02
4.836600148666345376e+03 6.873245860698276033e-01 1.786087205267920461e-02
