# starting wavelength: 3381.090
# ending wavelength: 10069.500
# wav flux eflux
3.381741812935407324e+03 -1.546344024652854254e-02 1.079070746983201018e-01
3.385123554748343849e+03 4.121959242380210386e-02 7.990636709723367148e-02
3.388508678303093347e+03 5.312779531189029680e-02 6.675228290322574032e-02
3.391897186981397681e+03 3.958825008768573905e-02 6.028330503584394817e-02
3.395289084168380214e+03 2.719436547523436387e-02 5.028385783706285084e-02
3.398684373252549449e+03 2.565083183988799143e-02 3.991222978102821478e-02
3.402083057625803121e+03 2.902756109570456267e-02 3.219423199075325398e-02
3.405485140683430018e+03 3.552943980967401827e-02 2.632775166438360709e-02
3.408890625824114522e+03 4.168262197794857238e-02 2.238908877170367809e-02
3.412299516449939802e+03 4.404906851515723309e-02 1.994071775082424669e-02
3.415711815966390986e+03 4.855082115856987346e-02 1.738393632485330659e-02
3.419127527782358356e+03 5.540475490176850759e-02 1.543130620650019075e-02
3.422546655310141887e+03 6.237722789943370150e-02 1.408614485677048278e-02
3.425969201965453522e+03 7.507557633867137370e-02 1.299371139444635732e-02
3.429395171167419903e+03 9.434385724566403397e-02 1.233473593865004776e-02
3.432824566338588284e+03 1.155801344274150488e-01 1.177742195766119659e-02
3.436257390904928343e+03 1.381405839730460994e-01 1.142369543698112423e-02
3.439693648295834464e+03 1.653993712133730309e-01 1.173981091981685966e-02
3.443133341944131189e+03 1.929610109898224624e-01 1.217807744786767767e-02
3.446576475286076402e+03 2.132215386274743940e-01 1.216513979539340928e-02
3.450023051761363604e+03 2.361530543685291250e-01 1.231389905317139578e-02
3.453473074813126004e+03 2.555581878663725770e-01 1.230369624866741764e-02
3.456926547887940615e+03 2.680046393157943241e-01 1.210187114259046563e-02
3.460383474435829612e+03 2.801029792921400086e-01 1.170585190577690463e-02
3.463843857910266706e+03 2.815725563772394358e-01 1.206301239966084578e-02
3.467307701768178049e+03 2.761031420842591788e-01 1.268242296588711730e-02
3.470775009469947236e+03 2.660669119082046397e-01 1.287894638988029521e-02
3.474245784479418489e+03 2.525455480800716801e-01 1.281226016433756505e-02
3.477720030263898934e+03 2.377789189953700977e-01 1.270190876701351133e-02
3.481197750294164052e+03 2.299519217784091740e-01 1.262708982302323743e-02
3.484678948044459503e+03 2.283776005551212129e-01 1.274491258763395772e-02
3.488163626992504760e+03 2.270365868715028268e-01 1.281661555001091697e-02
3.491651790619498570e+03 2.223160293458914805e-01 1.276986730254859627e-02
3.495143442410119405e+03 2.149311096950334288e-01 1.298682249919741460e-02
3.498638585852530468e+03 2.025253665436868855e-01 1.297962376786876947e-02
3.502137224438384237e+03 1.810679438908526229e-01 1.236387809412607328e-02
3.505639361662823831e+03 1.588027386839674371e-01 1.206123511786628098e-02
3.509145001024487556e+03 1.408100910180594967e-01 1.192389738919764214e-02
3.512654146025513455e+03 1.225634431426880500e-01 1.200088147119130963e-02
3.516166800171540217e+03 1.131962125976344602e-01 1.175368053750639429e-02
3.519682966971712631e+03 1.091550607823209007e-01 1.076848423704852495e-02
3.523202649938685681e+03 1.079983789055603272e-01 1.028744499020717643e-02
3.526725852588625457e+03 1.072606438606180518e-01 1.001062212842716848e-02
3.530252578441215064e+03 1.061043208481048383e-01 9.817772684108036496e-03
3.533782831019657806e+03 1.012708583875520651e-01 9.990344633006641856e-03
3.537316613850678550e+03 9.282196144941207150e-02 9.919640645976753393e-03
3.540853930464530094e+03 8.698560493243523428e-02 1.006520500292944036e-02
3.544394784394995895e+03 7.819536448686895125e-02 9.813620221384841344e-03
3.547939179179392340e+03 7.144554946126047135e-02 8.728081285762788813e-03
3.551487118358572843e+03 7.357533601072277496e-02 8.645922706865641003e-03
3.555038605476932389e+03 7.672694257204228097e-02 8.914950575531960242e-03
3.558593644082410719e+03 8.238517397443212431e-02 9.221665187538148623e-03
3.562152237726494150e+03 9.433917615261327994e-02 9.211604976949401558e-03
3.565714389964221937e+03 1.134759207459688779e-01 8.552563178457981904e-03
3.569280104354187188e+03 1.318658143400181504e-01 8.032066032927723948e-03
3.572849384458542772e+03 1.495630306773352014e-01 7.214349035694334750e-03
3.576422233843002232e+03 1.711955403760865302e-01 6.032125352922322603e-03
3.579998656076846601e+03 1.882624789760072026e-01 5.865468646900916933e-03
3.583578654732924406e+03 1.975383001499458058e-01 6.657259653602629057e-03
3.587162233387658489e+03 2.046002631394945870e-01 7.051538509327093078e-03
3.590749395621047370e+03 2.119585494292673400e-01 6.975037045730866914e-03
3.594340145016669794e+03 2.184294603824530334e-01 6.475115656833728937e-03
3.597934485161687462e+03 2.241048966488648764e-01 5.417663183788988014e-03
3.601532419646850485e+03 2.347671330560136826e-01 5.433129953483288935e-03
3.605133952066498296e+03 2.476952642163458007e-01 5.808502993140895153e-03
3.608739086018566013e+03 2.602767343333747263e-01 6.029017599456654684e-03
3.612347825104585809e+03 2.730413662627710347e-01 6.118536062300409563e-03
3.615960172929691907e+03 2.881325089258026662e-01 5.841466656301171415e-03
3.619576133102622407e+03 3.015202751665836400e-01 5.624883704860556000e-03
3.623195709235726554e+03 3.109205342081453605e-01 5.680709837575965981e-03
3.626818904944963379e+03 3.210888153406838974e-01 5.724973738782290072e-03
3.630445723849909427e+03 3.294309312586913840e-01 5.732641568678498514e-03
3.634076169573760581e+03 3.351817902658255077e-01 5.773157841851028239e-03
3.637710245743335690e+03 3.421964452796053546e-01 5.779327673022598491e-03
3.641347955989080219e+03 3.504130287047070302e-01 5.746958817567269021e-03
3.644989303945070333e+03 3.586706981668743577e-01 5.664610340330152559e-03
3.648634293249016537e+03 3.616238142497556485e-01 5.664705032201284955e-03
3.652282927542266862e+03 3.602133418434890211e-01 5.642154476445157552e-03
3.655935210469810499e+03 3.541673802113570191e-01 5.216913048627428579e-03
3.659591145680281443e+03 3.454793165983497394e-01 4.348931545009727777e-03
3.663250736825963031e+03 3.438969620018446083e-01 4.431079216461861550e-03
3.666913987562790226e+03 3.438633609092500709e-01 4.646117818004819218e-03
3.670580901550354156e+03 3.437765343642080751e-01 4.871121825075288431e-03
3.674251482451905758e+03 3.412925578195913912e-01 5.015028941213679411e-03
3.677925733934358959e+03 3.366986349277786839e-01 5.058446884002194659e-03
3.681603659668294313e+03 3.281150054584688336e-01 4.671408056295744265e-03
3.685285263327964003e+03 3.145969627367524168e-01 4.597129178348950337e-03
3.688970548591293209e+03 2.985182728484602754e-01 4.609035148447914593e-03
3.692659519139885560e+03 2.811623388419673408e-01 4.757527442499150279e-03
3.696352178659026777e+03 2.565658919321563425e-01 4.874202678164499605e-03
3.700048530837686940e+03 2.287436030099489481e-01 4.361870683186556269e-03
3.703748579368525952e+03 2.045221525324453227e-01 4.696526349807043053e-03
3.707452327947895355e+03 1.843032737220594020e-01 4.672655555902969007e-03
3.711159780275844696e+03 1.699831168843365381e-01 4.643657831337391975e-03
3.714870940056121526e+03 1.638655084665162354e-01 4.653733190049275971e-03
3.718585810996179134e+03 1.640701966957990310e-01 4.504615294733337570e-03
3.722304396807176545e+03 1.721058991779191027e-01 4.270209643806694225e-03
3.726026701203984885e+03 1.894569390258146746e-01 4.365188514837193591e-03
3.729752727905190113e+03 2.134769505469873152e-01 4.551526141465797592e-03
3.733482480633096657e+03 2.431901093471388609e-01 4.832473793942194430e-03
3.737215963113731050e+03 2.818828393428005619e-01 5.517228001407321197e-03
3.740953179076846027e+03 3.247685835632640461e-01 6.070023424841111855e-03
3.744694132255923705e+03 3.734402947890323454e-01 6.574076545271955938e-03
3.748438826388181042e+03 4.208105767297894984e-01 6.583462490233079820e-03
3.752187265214570289e+03 4.654684739965970763e-01 5.470895500366823420e-03
3.755939452479786269e+03 5.044927180265990074e-01 3.344993699665759889e-03
3.759695391932267285e+03 5.310985079509694673e-01 2.431626912580243677e-03
3.763455087324201031e+03 5.435919496469685530e-01 3.120142791943700949e-03
3.767218542411526414e+03 5.444516472213197789e-01 4.271996392694004177e-03
3.770985760953939007e+03 5.399290879032659918e-01 4.847625537132831640e-03
3.774756746714894234e+03 5.275585683702311846e-01 5.604322480013129194e-03
3.778531503461610555e+03 5.093165983599922120e-01 6.048817565517047856e-03
3.782310034965073100e+03 4.911969314970044409e-01 5.967798017594195918e-03
3.786092345000039586e+03 4.718153092620858136e-01 5.251224612890106370e-03
3.789878437345040766e+03 4.528325846729620574e-01 4.378961134092126083e-03
3.793668315782387253e+03 4.374059802128144048e-01 4.104261954515287664e-03
3.797461984098170888e+03 4.244576879896879151e-01 3.915256980236937398e-03
3.801259446082270188e+03 4.167891763922193515e-01 3.916959200712499811e-03
3.805060705528353537e+03 4.143997989680300309e-01 4.037615386020954392e-03
3.808865766233883278e+03 4.176834553254169524e-01 4.137216227023302918e-03
3.812674632000118436e+03 4.306790880106419750e-01 4.193423865629592254e-03
3.816487306632119726e+03 4.508837100098871398e-01 4.275423100705103528e-03
3.820303793938753188e+03 4.760911394369944372e-01 4.511691164409395785e-03
3.824124097732693372e+03 5.047964672620347537e-01 4.707786154266561593e-03
3.827948221830427428e+03 5.332924270523292654e-01 5.003946694511081025e-03
3.831776170052258749e+03 5.570919090193252599e-01 5.334584405739752414e-03
3.835607946222312421e+03 5.749584349430232333e-01 5.786624967546752547e-03
3.839443554168536139e+03 5.885190210078768969e-01 6.175835255213765231e-03
3.843282997722705659e+03 5.931263831212567617e-01 6.046818423037132045e-03
3.847126280720429804e+03 5.895178748260718748e-01 5.647504813767055716e-03
3.850973407001151372e+03 5.765014497196074839e-01 5.160007481198646342e-03
3.854824380408153957e+03 5.510324380561275603e-01 5.415482146626101993e-03
3.858679204788563311e+03 5.163727369917653354e-01 6.325119895001292403e-03
3.862537883993353262e+03 4.688852306627760425e-01 7.660750460830698279e-03
3.866400421877347981e+03 4.153026785817988120e-01 8.047648485647287270e-03
3.870266822299226533e+03 3.621128781430608123e-01 7.574127679044974706e-03
3.874137089121526969e+03 3.107121514546975494e-01 5.874473251112786662e-03
3.878011226210649966e+03 2.669556742034411290e-01 4.298771126601914558e-03
3.881889237436861549e+03 2.359612602873784604e-01 5.315020699356284850e-03
3.885771126674299921e+03 2.127348802085312629e-01 5.800554973866983884e-03
3.889656897800975457e+03 1.993994207308726063e-01 5.915280199689842977e-03
3.893546554698777527e+03 1.919579448884584649e-01 5.630085343042173611e-03
3.897440101253477678e+03 1.887755787836264965e-01 4.886648964109961517e-03
3.901337541354732366e+03 1.880373483026817061e-01 4.433005520344795308e-03
3.905238878896088409e+03 1.879307928268174055e-01 4.090420475659426770e-03
3.909144117774985716e+03 1.893405605521966684e-01 3.801979647159995333e-03
3.913053261892762293e+03 1.893690397017205040e-01 4.429920061567962919e-03
3.916966315154656058e+03 1.878056759086010052e-01 6.004103513851491956e-03
3.920883281469812118e+03 1.904295889305587242e-01 6.784123600846274187e-03
3.924804164751283224e+03 2.015710382745277696e-01 6.059547269270782084e-03
3.928728968916035683e+03 2.262301088860012577e-01 5.014516942815855881e-03
3.932657697884953450e+03 2.666741359278493873e-01 4.215662272219931721e-03
3.936590355582839493e+03 3.229613766774537265e-01 4.499256361543389066e-03
3.940526945938423523e+03 3.971252768325216342e-01 5.630943009357752653e-03
3.944467472884363360e+03 4.822883122042523896e-01 5.978921423521901465e-03
3.948411940357249023e+03 5.716107133235914795e-01 6.145534034130746212e-03
3.952360352297607733e+03 6.632127562838293633e-01 6.437552206516120208e-03
3.956312712649906643e+03 7.480660823309022156e-01 6.261176340012705732e-03
3.960269025362557841e+03 8.209365577246502399e-01 5.548729756623956705e-03
3.964229294387921527e+03 8.806919982443777162e-01 4.976615678408478904e-03
3.968193523682310570e+03 9.239114699123631702e-01 4.816775568514875504e-03
3.972161717205994591e+03 9.483047236348343123e-01 5.891597846364244467e-03
3.976133878923201792e+03 9.539962214969572862e-01 6.258979299052541863e-03
3.980110012802126221e+03 9.477398987003492481e-01 5.830350209787088511e-03
3.984090122814929600e+03 9.301853187268886991e-01 3.998282325190365659e-03
3.988074212937745870e+03 9.113296503219969757e-01 2.516345359264045723e-03
3.992062287150684824e+03 8.941410744455451365e-01 2.012690695642599652e-03
3.996054349437837118e+03 8.811679569752669527e-01 2.211392271313215776e-03
4.000050403787276082e+03 8.707504127549647865e-01 2.912878165050571989e-03
4.004050454191064546e+03 8.604095907528643838e-01 4.059060387542014724e-03
4.008054504645257111e+03 8.532476012076047889e-01 5.405473982826958755e-03
4.012062559149903791e+03 8.403970589105034250e-01 5.558952972546236070e-03
4.016074621709055009e+03 8.167589522340034103e-01 4.797204746944416266e-03
4.020090696330765240e+03 7.828188269066962413e-01 4.283175952059247588e-03
4.024110787027097558e+03 7.364563731456817974e-01 6.831712384411068283e-03
4.028134897814125907e+03 6.855967281177636208e-01 9.131060677025504974e-03
4.032163032711941469e+03 6.377311347310978817e-01 1.089741888337281313e-02
4.036195195744654484e+03 6.093328178361318015e-01 1.080629348858988016e-02
4.040231390940400615e+03 6.038005461587570011e-01 9.233404791899530936e-03
4.044271622331342314e+03 6.305171566259366589e-01 8.555162455405029495e-03
4.048315893953675186e+03 6.891338092617860234e-01 1.030247500185379333e-02
4.052364209847629809e+03 7.719347182587255052e-01 1.240100664202516655e-02
4.056416574057479011e+03 8.694596788829602740e-01 1.254685760991315104e-02
4.060472990631537868e+03 9.783249660133056524e-01 1.117822736611577376e-02
4.064533463622170530e+03 1.087333445680100485e+00 8.946818782129687883e-03
4.068597997085794304e+03 1.182892870268255958e+00 6.678165582963912182e-03
4.072666595082881486e+03 1.256460474499279556e+00 5.816496705108498491e-03
4.076739261677965715e+03 1.300272421322125727e+00 5.956657011696609577e-03
4.080816000939644709e+03 1.309933707569730155e+00 5.940935523872695710e-03
4.084896816940585722e+03 1.296812790651220126e+00 5.735637439582693189e-03
4.088981713757527814e+03 1.272800614833491828e+00 5.445649888268564061e-03
4.093070695471286854e+03 1.243912128489445434e+00 4.999661264577169931e-03
4.097163766166759160e+03 1.216678213434641886e+00 4.862165742376295743e-03
4.101260929932927866e+03 1.191691721498187029e+00 4.889640264240013336e-03
4.105362190862862008e+03 1.166137722435446555e+00 4.955453453217618237e-03
4.109467553053726078e+03 1.140959742379999531e+00 5.233078750590486848e-03
4.113577020606780934e+03 1.120246476128812230e+00 6.426267694243018372e-03
4.117690597627389252e+03 1.097771091497527163e+00 7.076403939777833017e-03
4.121808288225018259e+03 1.070593736823389763e+00 6.683502539329178559e-03
4.125930096513244280e+03 1.037798653170033614e+00 5.695741479915477842e-03
4.130056026609759101e+03 9.968429452560536586e-01 7.045040901306024415e-03
4.134186082636369974e+03 9.450772727648391047e-01 1.006166328279418064e-02
4.138320268719007800e+03 8.957321345676347857e-01 1.037100527563513015e-02
4.142458588987728035e+03 8.655724085732738882e-01 8.855361727824029305e-03
4.146601047576717065e+03 8.574833419896779052e-01 8.432396963551368890e-03
4.150747648624294925e+03 8.716674397118601147e-01 1.161895822915601575e-02
4.154898396272920763e+03 8.984778496781855583e-01 1.398839543262203611e-02
4.159053294669195566e+03 9.258284179457141327e-01 1.457238476567876070e-02
4.163212347963865795e+03 9.380917474698816649e-01 1.315984889831135415e-02
4.167375560311830668e+03 9.357332890439123974e-01 1.239031004095474293e-02
4.171542935872143971e+03 9.152575143816317205e-01 1.345536895032609787e-02
4.175714478808017702e+03 8.811657727187718336e-01 1.454024541496315263e-02
4.179890193286827525e+03 8.398801198314596039e-01 1.439893547641735161e-02
4.184070083480115500e+03 7.919205087822086542e-01 1.300162806858445180e-02
4.188254153563597356e+03 7.423244869626999254e-01 1.125832351627450469e-02
4.192442407717161586e+03 6.989685681442892040e-01 1.028933990498906784e-02
4.196634850124880359e+03 6.695891954051285122e-01 1.035244518198418992e-02
4.200831484975006788e+03 6.593068406054959363e-01 1.021227981422100257e-02
4.205032316459983122e+03 6.696121177318916651e-01 1.017143873001476531e-02
4.209237348776444378e+03 6.961533634619915256e-01 1.071042523921244410e-02
4.213446586125221984e+03 7.416319540090725582e-01 1.064856029624528834e-02
4.217660032711349231e+03 8.016083023299609422e-01 1.057646226627530391e-02
4.221877692744061278e+03 8.687337722221455394e-01 1.189182060928687182e-02
4.226099570436806971e+03 9.497433231013768795e-01 1.574213323295681199e-02
4.230325670007245208e+03 1.019334906815653863e+00 1.678243689748666265e-02
4.234555995677254032e+03 1.070393379551333846e+00 1.540020130471637071e-02
4.238790551672932452e+03 1.092404958734707776e+00 1.190823192747167414e-02
4.243029342224606808e+03 1.071166870309090857e+00 1.038940320624781935e-02
4.247272371566832589e+03 1.000485054305821908e+00 1.335586703216169908e-02
4.251519643938400804e+03 8.934944381025208271e-01 1.539028977460536220e-02
4.255771163582340705e+03 7.621995402288486154e-01 1.505985337852565678e-02
4.260026934745924336e+03 6.258500490429155239e-01 1.112056967264778845e-02
4.264286961680671993e+03 5.095942810961597846e-01 7.409628677339782921e-03
4.268551248642354039e+03 4.238563003300106491e-01 6.092588112561863820e-03
4.272819799890998183e+03 3.707059151198604519e-01 7.519841194393941247e-03
4.277092619690890388e+03 3.521452268691452336e-01 9.055519874371290370e-03
4.281369712310583054e+03 3.657132374875891045e-01 8.398171519962641801e-03
4.285651082022895025e+03 3.888635956594878040e-01 6.282857540141646019e-03
4.289936733104918858e+03 4.174333728090879880e-01 4.561926031421078415e-03
4.294226669838025373e+03 4.459839386639220526e-01 6.025872423370146926e-03
4.298520896507864563e+03 4.780586229376541096e-01 7.587027275910761780e-03
4.302819417404373780e+03 5.194777515951445324e-01 7.359574835905585873e-03
4.307122236821779552e+03 5.725564408199579347e-01 6.685609593934789714e-03
4.311429359058603040e+03 6.319235632588354745e-01 6.484542070457188952e-03
4.315740788417662770e+03 7.006229588503973815e-01 8.318152645364052661e-03
4.320056529206081905e+03 7.725210917021422263e-01 1.007604372043910228e-02
4.324376585735290064e+03 8.319336188100734386e-01 1.064120940787893245e-02
4.328700962321026054e+03 8.771101453792746749e-01 9.492713267308565753e-03
4.333029663283348782e+03 8.905123439387657713e-01 8.137277994541251488e-03
4.337362692946633615e+03 8.756726765606123175e-01 9.125692452790341164e-03
4.341700055639581478e+03 8.320370435973891698e-01 1.177362996483916936e-02
4.346041755695222491e+03 7.740760766824300587e-01 1.243156166894588029e-02
4.350387797450919606e+03 7.084140615808190988e-01 1.105099207770992957e-02
4.354738185248371337e+03 6.428077724176999297e-01 7.700529892309429698e-03
4.359092923433621763e+03 5.964707442001403459e-01 5.530593870507689684e-03
4.363452016357056891e+03 5.729913258598525738e-01 4.750989608804010410e-03
4.367815468373414660e+03 5.793699585685018194e-01 4.852958033219538329e-03
4.372183283841789489e+03 6.170328607581764269e-01 5.310287599754650797e-03
4.376555467125633186e+03 6.730729580551748636e-01 5.539903371704041346e-03
4.380932022592760404e+03 7.453672831285411693e-01 6.321112880742258897e-03
4.385312954615354101e+03 8.184956669789491546e-01 6.203713584502291642e-03
4.389698267569970994e+03 8.828122371513288380e-01 5.515500074378960026e-03
4.394087965837542470e+03 9.351081156239841041e-01 5.406607561595764590e-03
4.398482053803381859e+03 9.698844979234653163e-01 5.216133557803719414e-03
4.402880535857186260e+03 9.821426972166950042e-01 5.027805593873781523e-03
