# starting wavelength: 1151.270
# ending wavelength: 7289.720
# wav flux eflux
1.151343529481074029e+03 4.340647922379993126e-03 1.257590362718811160e-02
1.152494873010555466e+03 9.762363327645585606e-03 9.425721229014839830e-03
1.153647367883566403e+03 1.402343311373085988e-02 6.748198360748489631e-03
1.154801015251450281e+03 1.665495404195545606e-02 5.182184429779557698e-03
1.155955816266702186e+03 1.789053355110488061e-02 4.008742381276820914e-03
1.157111772082969310e+03 1.855097176631561456e-02 3.158460432628453982e-03
1.158268883855052536e+03 1.835991388806252830e-02 3.152943714460859463e-03
1.159427152738908035e+03 1.817452531365536597e-02 2.558672595872407522e-03
1.160586579891647261e+03 1.759222991581751994e-02 2.110544144808712119e-03
1.161747166471539231e+03 1.666078426513862079e-02 1.820193102407519645e-03
1.162908913638011200e+03 1.553889779741696522e-02 1.575812755394724422e-03
1.164071822551649575e+03 1.448522007151045038e-02 1.429703594112214553e-03
1.165235894374201735e+03 1.318222162231907392e-02 1.299186764234102785e-03
1.166401130268576253e+03 1.220640010917531208e-02 1.239344712759266618e-03
1.167567531398845176e+03 1.088679383293930658e-02 1.171163431647682246e-03
1.168735098930244476e+03 9.744800505965153098e-03 1.093144691176949762e-03
1.169903834029175187e+03 8.502087742330546177e-03 1.061650603733390675e-03
1.171073737863204542e+03 7.461326270653358128e-03 9.977415117207362200e-04
1.172244811601068250e+03 6.386594261428511429e-03 9.871255115021892838e-04
1.173417056412669808e+03 5.546537819811047862e-03 9.355546707851856514e-04
1.174590473469082781e+03 5.125189615234284138e-03 8.662279377952402390e-04
1.175765063942552160e+03 4.557505608543509744e-03 8.173232086880953496e-04
1.176940829006495278e+03 4.150304453369165619e-03 8.547312852802325554e-04
1.178117769835502031e+03 3.729841275789793579e-03 8.551199813621841121e-04
1.179295887605337839e+03 3.561897282446972561e-03 8.321879498921316062e-04
1.180475183492943643e+03 3.376563589632854655e-03 8.817176236057915322e-04
1.181655658676437042e+03 3.202810396004188154e-03 8.265091700865687552e-04
1.182837314335113888e+03 3.077213635071228762e-03 8.817410584024490145e-04
1.184020151649449417e+03 2.906118043225037768e-03 8.387053528743868567e-04
1.185204171801099164e+03 2.784451159865291431e-03 8.804026747562182032e-04
1.186389375972900780e+03 3.191229080171621799e-03 9.369363140116109597e-04
1.187575765348874029e+03 3.546467837650723719e-03 9.297484611992664835e-04
1.188763341114223294e+03 4.846285328223785480e-03 1.800117669238826632e-03
1.189952104455337803e+03 5.146978551764277467e-03 1.788593180191870970e-03
1.191142056559793673e+03 4.173293333870255022e-03 1.841011380956745352e-03
1.192333198616353684e+03 3.853629266003933199e-03 1.964628372108568732e-03
1.193525531814970464e+03 2.738775744957701146e-03 2.035350091459745166e-03
1.194719057346785803e+03 2.873000238229826610e-03 2.126080200468360906e-03
1.195913776404133159e+03 1.542855330642967093e-03 2.401187116212685681e-03
1.197109690180537655e+03 9.020158934189325198e-04 2.417954181419762396e-03
1.198306799870718578e+03 3.768378196131591182e-04 2.369059018898094209e-03
1.199505106670589612e+03 3.049054621101238843e-05 2.388499218459419048e-03
1.200704611777260652e+03 7.972430722138065459e-04 2.270770495568621809e-03
1.201905316389038262e+03 1.086405526413797458e-03 2.398834295997800785e-03
1.203107221705427719e+03 1.818660303237924509e-03 2.400061355618673172e-03
1.204310328927133469e+03 2.970456931035483743e-03 2.556651175062306294e-03
1.205514639256061173e+03 3.748874653581625582e-03 2.554950988412373926e-03
1.206720153895317480e+03 5.395654267560830858e-03 2.619079555554428267e-03
1.207926874049213211e+03 6.386395298276402281e-03 2.781907571780383153e-03
1.209134800923262901e+03 7.704776132573237096e-03 2.711266610705595406e-03
1.210343935724186622e+03 9.028331883023515969e-03 2.788461477051998056e-03
1.211554279659911117e+03 9.882269531355673819e-03 2.639866032250141620e-03
1.212765833939571394e+03 1.106731786831955527e-02 2.676500387424706959e-03
1.213978599773511405e+03 1.116261687737667499e-02 2.518004896444279821e-03
1.215192578373285187e+03 1.202163248061407196e-02 2.559158986887214923e-03
1.216407770951658904e+03 1.146627182533453346e-02 2.487772795605372889e-03
1.217624178722611077e+03 1.172876293197795683e-02 2.614573644106975465e-03
1.218841802901333949e+03 1.092611225432561090e-02 2.520658422142601964e-03
1.220060644704235756e+03 1.048993527372809979e-02 2.689478355830274888e-03
1.221280705348940501e+03 9.253395199873934440e-03 2.629379903833798434e-03
1.222501986054289773e+03 8.083849463793061838e-03 2.751379374168524267e-03
1.223724488040344568e+03 6.839085303859439302e-03 2.627681270032482252e-03
1.224948212528385284e+03 4.739977799292255899e-03 2.414714960730742887e-03
1.226173160740914000e+03 3.753648937925082273e-03 2.263105919596796779e-03
1.227399333901655382e+03 1.367030924989679451e-03 1.735238533482974218e-03
1.228626733235557367e+03 9.668773990233687013e-04 1.755304516615164125e-03
1.229855359968793437e+03 -1.048680143498669295e-04 1.854963257034007631e-03
1.231085215328762615e+03 -2.461345138245352865e-04 1.844602181894911116e-03
1.232316300544091746e+03 8.276476878861099840e-04 8.344206252969709912e-04
1.233548616844636172e+03 7.810802554443427304e-04 7.860459021307511507e-04
1.234782165461481327e+03 9.586133690275447199e-04 8.008955477327789818e-04
1.236016947626943193e+03 1.040372003370543339e-03 7.513189002270053048e-04
1.237252964574570569e+03 1.734158707460732324e-03 4.336905868544574209e-04
1.238490217539145533e+03 1.933753294698082638e-03 4.064923218212451598e-04
1.239728707756685026e+03 1.999466777974011258e-03 4.167565524201398571e-04
1.240968436464442220e+03 1.952411742781362492e-03 4.403419720452984919e-04
1.242209404900906975e+03 1.800648936185054571e-03 3.422160685154759037e-04
1.243451614305808334e+03 1.858874050755688224e-03 3.209204526070636278e-04
1.244695065920114530e+03 1.854589359958855712e-03 3.338115914324095500e-04
1.245939760986035026e+03 1.903820012252998174e-03 3.128851724947476491e-04
1.247185700747021428e+03 1.959917230051493302e-03 3.332537761545653577e-04
1.248432886447768851e+03 2.033424889580722709e-03 3.160547395006684575e-04
1.249681319334217051e+03 2.035287779126740762e-03 3.370650412798033594e-04
1.250931000653551791e+03 1.995740433177776822e-03 3.190771579299014915e-04
1.252181931654205755e+03 1.962042950935055739e-03 3.387055479603035056e-04
1.253434113585860359e+03 1.948057508796637418e-03 3.174140967492082208e-04
1.254687547699446668e+03 1.998262264976304135e-03 3.291701890241747249e-04
1.255942235247146527e+03 1.921502931497987097e-03 3.175645704560026367e-04
1.257198177482393930e+03 1.837365522801280441e-03 3.268657804949879437e-04
1.258455375659876836e+03 1.847250305649504988e-03 3.083400748292878320e-04
1.259713831035537169e+03 1.750266658366873493e-03 3.185771622701044810e-04
1.260973544866573093e+03 1.689963079945559993e-03 3.007505141263154872e-04
1.262234518411440149e+03 1.815312014927394956e-03 2.829893183883937040e-04
1.263496752929851937e+03 1.843551953799242842e-03 2.653070894052580986e-04
1.264760249682782160e+03 1.794349181077889432e-03 2.716103958953206866e-04
1.266025009932465309e+03 1.835128301341172607e-03 2.566537904273912072e-04
1.267291034942398255e+03 1.802033164832310755e-03 2.689305920856201312e-04
1.268558325977341156e+03 1.767211760271753191e-03 2.591761903903638071e-04
1.269826884303318820e+03 1.752559368703450688e-03 2.699674879806142217e-04
1.271096711187622532e+03 1.845791951140599713e-03 2.594952816832205803e-04
1.272367807898810725e+03 2.022602545291022486e-03 2.396798765099495754e-04
1.273640175706709897e+03 2.069001302798896633e-03 2.285131611391502671e-04
1.274913815882417111e+03 2.135768899663265021e-03 2.423052016563287392e-04
1.276188729698299767e+03 2.266331900293478557e-03 2.329069595770989418e-04
1.277464918427998555e+03 2.299163182791514898e-03 2.437147299779680919e-04
1.278742383346427005e+03 2.390066485925799317e-03 2.302541463698734104e-04
1.280021125729773757e+03 2.468595077268657696e-03 2.447321762774567165e-04
1.281301146855503930e+03 2.621766596810628895e-03 2.643620656009517821e-04
1.282582448002360024e+03 2.796339105953490455e-03 2.187313247330289361e-04
1.283865030450362838e+03 2.771512930361187677e-03 2.091734169662678804e-04
1.285148895480813508e+03 2.673151872550064666e-03 2.054397025418918993e-04
1.286434044376294878e+03 2.579245717822496731e-03 2.003881201315114210e-04
1.287720478420671498e+03 2.546578713151342096e-03 2.120968944265893218e-04
1.289008198899092577e+03 2.378134351338810973e-03 2.410937253583741991e-04
1.290297207097992214e+03 2.296503659591735916e-03 2.547481883899949638e-04
1.291587504305090533e+03 2.276862721859022800e-03 2.562081840802247069e-04
1.292879091809395959e+03 2.217699173880388012e-03 2.557202763587600115e-04
1.294171970901205896e+03 2.095438584655051617e-03 2.456367727189206736e-04
1.295466142872107412e+03 2.022670836916616154e-03 2.454684649140130917e-04
1.296761609014979967e+03 1.899606433234376406e-03 2.478359235254780574e-04
1.298058370623995415e+03 1.850498927259350800e-03 2.479895519771476917e-04
1.299356428994619819e+03 1.759966252982110265e-03 2.357048017307300817e-04
1.300655785423614816e+03 1.724693089976607778e-03 2.361776072045621694e-04
1.301956441209038985e+03 1.752989237209494388e-03 2.358594291198546061e-04
1.303258397650248526e+03 1.829620210662779656e-03 2.388629386285576412e-04
1.304561656047899078e+03 1.803355330297241356e-03 2.540149985369441542e-04
1.305866217703947541e+03 1.804365902790013368e-03 2.380576103400208071e-04
1.307172083921651847e+03 1.905793313046500424e-03 2.296902936684486402e-04
1.308479256005573916e+03 1.899927133614923202e-03 2.187081303341879346e-04
1.309787735261579883e+03 2.007405621063133513e-03 2.187214277847678771e-04
1.311097522996841917e+03 2.067576944908120287e-03 2.062835566617558379e-04
1.312408620519839133e+03 2.069613078609209081e-03 2.186382509664259479e-04
1.313721029140359406e+03 2.135965280790380182e-03 2.181650756691444623e-04
1.315034750169500285e+03 2.173850390821812587e-03 2.233600642529160873e-04
1.316349784919670128e+03 2.096611013157074349e-03 2.173666029431662390e-04
1.317666134704590377e+03 1.986810658180307877e-03 2.194888702538903770e-04
1.318983800839295327e+03 1.867146554453938141e-03 2.259047895679086647e-04
1.320302784640135087e+03 1.811484054847340786e-03 2.252712243034379707e-04
1.321623087424775576e+03 1.594598848825078173e-03 2.486875863198949104e-04
1.322944710512200800e+03 1.570052082394881232e-03 2.484932441856865576e-04
1.324267655222713529e+03 1.613484924167207487e-03 2.419428272038385847e-04
1.325591922877936668e+03 1.640615249804706433e-03 2.422660785404944352e-04
1.326917514800815070e+03 1.754264278713628736e-03 2.787810968447918696e-04
1.328244432315616223e+03 1.766186022590835554e-03 2.797696614612483210e-04
1.329572676747932292e+03 1.784250429527487391e-03 2.792533431865413911e-04
1.330902249424680576e+03 1.772575994958237085e-03 2.631583177418911107e-04
1.332233151674105784e+03 1.726707187064389004e-03 2.707526991570077053e-04
1.333565384825780257e+03 1.812634720703094893e-03 2.688233596478547486e-04
1.334898950210606472e+03 1.921653201059864017e-03 2.617702589829764312e-04
1.336233849160817726e+03 1.927948992551647501e-03 2.456125538449214010e-04
1.337570083009978816e+03 1.991684153751817343e-03 2.558716178488378099e-04
1.338907653092989221e+03 2.017264361497815572e-03 2.579875488548848757e-04
1.340246560746082650e+03 2.004329644824704489e-03 2.570856020823701214e-04
1.341586807306829314e+03 1.928706011728956431e-03 2.738658982889897770e-04
1.342928394114136609e+03 1.916909084234621292e-03 2.736281428861912584e-04
1.344271322508251160e+03 1.851339903714088178e-03 2.756725839687941917e-04
1.345615593830759735e+03 1.833379635518138330e-03 2.761854460833027556e-04
1.346961209424591061e+03 1.878289492168267296e-03 2.798808271194960329e-04
1.348308170634016051e+03 1.843674935676679373e-03 2.811942630709566389e-04
1.349656478804650533e+03 1.635949320763601051e-03 2.746203646436977744e-04
1.351006135283455706e+03 1.574449382374896404e-03 2.616661927515197402e-04
1.352357141418739502e+03 1.457337184614641455e-03 2.462193378221788089e-04
1.353709498560158636e+03 1.579289157868949463e-03 2.773470023767452301e-04
1.355063208058719283e+03 1.588738060322704860e-03 2.756572867932714842e-04
1.356418271266778447e+03 1.703227290565109816e-03 2.528408678743306135e-04
1.357774689538045777e+03 1.769312202197838866e-03 2.520844486373546097e-04
1.359132464227584251e+03 1.870208976919112819e-03 2.501106287868953837e-04
1.360491596691812219e+03 1.951677177412025144e-03 2.501566585149180184e-04
1.361852088288504547e+03 2.148096608257373669e-03 2.729095680692288084e-04
1.363213940376793516e+03 2.191071572614067438e-03 2.738577897046401313e-04
1.364577154317170653e+03 2.144428714931765137e-03 2.639507388789202251e-04
1.365941731471488310e+03 2.141387352342703863e-03 2.657697085703628753e-04
1.367307673202960132e+03 2.112122617375424786e-03 2.683110689549680103e-04
1.368674980876163545e+03 2.180845320233461108e-03 2.455818212175801363e-04
1.370043655857040221e+03 2.182528879320449772e-03 2.440273539005315877e-04
1.371413699512897665e+03 2.072435246245832828e-03 2.491041590096008886e-04
1.372785113212411034e+03 2.047101826648733795e-03 2.484178720031550848e-04
1.374157898325624046e+03 1.914879841780438080e-03 2.332927703816681957e-04
1.375532056223950121e+03 1.868201088573917404e-03 2.335056342861881965e-04
1.376907588280174423e+03 1.923637170966748531e-03 2.566587573460566850e-04
1.378284495868454997e+03 1.851258538595130457e-03 2.578634809844999984e-04
1.379662780364323908e+03 1.688260664789284623e-03 2.648840044126689135e-04
1.381042443144688832e+03 1.645639287462634381e-03 2.830040148352752638e-04
1.382423485587833966e+03 1.613982842408594404e-03 2.660827664015401632e-04
1.383805909073422299e+03 1.529779324871014846e-03 2.635538838992386077e-04
1.385189714982496071e+03 1.446721068922867618e-03 2.624747650659506500e-04
1.386574904697479042e+03 1.382561482833891174e-03 2.614636995364267506e-04
1.387961479602176951e+03 1.325397611694387710e-03 2.614566449106699771e-04
1.389349441081779560e+03 1.355743890856892344e-03 2.387063471840051383e-04
1.390738790522861791e+03 1.332905959496771212e-03 2.396987005993719410e-04
1.392129529313385092e+03 1.167317368762626952e-03 2.410642636868174250e-04
1.393521658842699026e+03 1.103821500623640255e-03 2.502055612446504526e-04
1.394915180501542181e+03 1.199820167329860784e-03 2.669660295865352532e-04
1.396310095682044221e+03 1.264170032208076925e-03 2.624206841132664951e-04
1.397706405777726786e+03 1.243164701364158319e-03 2.614307405230856642e-04
1.399104112183504867e+03 1.154904994095032203e-03 2.500080650485140697e-04
1.400503216295688844e+03 1.111520892682418393e-03 2.501851642741931433e-04
1.401903719511984946e+03 1.031673012610192283e-03 2.536580123471249260e-04
1.403305623231497520e+03 1.011638540056712492e-03 2.550083802568197744e-04
1.404708928854729493e+03 1.065268479510103790e-03 2.401718505117070844e-04
1.406113637783584636e+03 1.084857214846692355e-03 2.568821632338733020e-04
1.407519751421368710e+03 1.144110845007480053e-03 2.412259887311381636e-04
1.408927271172790597e+03 1.152402643742829729e-03 2.398177229969088132e-04
1.410336198443963667e+03 1.188303981875150125e-03 2.394016503757832111e-04
1.411746534642408278e+03 1.191608965680061340e-03 2.428987205949418074e-04
1.413158281177051094e+03 1.250195363633409577e-03 2.436728545665621342e-04
1.414571439458228497e+03 1.310221408983103328e-03 2.487307506024802480e-04
1.415986010897687265e+03 1.337397698195281256e-03 2.662458000801651748e-04
1.417401996908585488e+03 1.414891835066954973e-03 2.530148045358502403e-04
1.418819398905494381e+03 1.523723071363620573e-03 2.326768113958266597e-04
1.420238218304400334e+03 1.571375046838969624e-03 2.319422131257403187e-04
1.421658456522705364e+03 1.582586698774622125e-03 2.282288495009489662e-04
1.423080114979228483e+03 1.585375939946769269e-03 2.287066728280035053e-04
1.424503195094208195e+03 1.650603070097382595e-03 2.096712917474603702e-04
1.425927698289302953e+03 1.717991918583003808e-03 2.116419520863037731e-04
1.427353625987592523e+03 1.650783987150623031e-03 2.125813156182550993e-04
1.428780979613580712e+03 1.602044367557634887e-03 2.235954995843189986e-04
1.430209760593194687e+03 1.590506137569619102e-03 2.099628831251113220e-04
1.431639970353788385e+03 1.423221824553546873e-03 2.150647280209590283e-04
1.433071610324142739e+03 1.385467469308706298e-03 2.155099668580181399e-04
1.434504681934467271e+03 1.230932029943314658e-03 1.637996037760228933e-04
1.435939186616402139e+03 1.250329948264150256e-03 1.619611722526936794e-04
1.437375125803019046e+03 1.266327109496694948e-03 1.553682780074796611e-04
1.438812500928822601e+03 1.277621573664353052e-03 1.655781500688484266e-04
1.440251313429751917e+03 1.246724650917404665e-03 1.653866759698799295e-04
1.441691564743182198e+03 1.456880679422762432e-03 2.345902720745095303e-04
1.443133256307925876e+03 1.474496427840589182e-03 2.508761956930092977e-04
1.444576389564234205e+03 1.450753543703742123e-03 2.358710112438590530e-04
1.446020965953798850e+03 1.455228474385110871e-03 2.528428161843465920e-04
1.447466986919753253e+03 1.377482103071461707e-03 2.598515619623709681e-04
1.448914453906673316e+03 1.467726999974069838e-03 2.733165288682082436e-04
1.450363368360580580e+03 1.451965815182309398e-03 2.765903792445836059e-04
1.451813731728941548e+03 1.521617450542619120e-03 2.736243476041877649e-04
1.453265545460671092e+03 1.525820048149175616e-03 2.767626631807511501e-04
1.454718811006132228e+03 1.741941736466001570e-03 3.087977906048613953e-04
1.456173529817138842e+03 1.853425223829260155e-03 3.234899497493516391e-04
1.457629703346956376e+03 1.893518282761964084e-03 3.023519677610124598e-04
1.459087333050303869e+03 2.035852261224095194e-03 3.195981000114069101e-04
1.460546420383354643e+03 2.057481081144927910e-03 3.413807337622885201e-04
1.462006966803738578e+03 1.941227944864411551e-03 3.401946281206137787e-04
1.463468973770542789e+03 1.998195644426564114e-03 3.583626005709945016e-04
1.464932442744313676e+03 1.985577442482976129e-03 3.345089397303220580e-04
1.466397375187058515e+03 1.957716217822653114e-03 3.589383196577150092e-04
1.467863772562246140e+03 1.889929077619577260e-03 3.597635001551567429e-04
1.469331636334808763e+03 1.814588218871775096e-03 3.370842997665357316e-04
1.470800967971144019e+03 1.810686775708429501e-03 3.589409600041412610e-04
1.472271768939115645e+03 1.663735077333993329e-03 3.670868726509559743e-04
1.473744040708055309e+03 1.536714037611560573e-03 3.630458804458451820e-04
1.475217784748763961e+03 1.584650238508724003e-03 3.790342432642452176e-04
1.476693002533513209e+03 1.582620154481849048e-03 3.792382592784477821e-04
1.478169695536047129e+03 1.615822120609103265e-03 3.842578116094930358e-04
1.479647865231583637e+03 1.639576453921303550e-03 3.585184383143217939e-04
1.481127513096815846e+03 1.617963130429779647e-03 3.803145019958920439e-04
1.482608640609912982e+03 1.939387896275662944e-03 2.777839159669914164e-04
1.484091249250523560e+03 2.025276865990931208e-03 2.774462105902140356e-04
1.485575340499774484e+03 2.108435172971742048e-03 2.775973946465731573e-04
1.487060915840274674e+03 2.136874422488175933e-03 2.648464148570374541e-04
1.488547976756115531e+03 2.151593279253437036e-03 2.788470789247574988e-04
1.490036524732872067e+03 2.120398730593126696e-03 2.627383046837231746e-04
1.491526561257605408e+03 2.106157456663036807e-03 2.621323530639152791e-04
1.493018087818863478e+03 2.100099951552450352e-03 2.654962944809324170e-04
1.494511105906682815e+03 2.022521650419050864e-03 2.490404368375117076e-04
1.496005617012590164e+03 2.021793952665515946e-03 2.591912962553903697e-04
1.497501622629603162e+03 1.984948569210994579e-03 2.716457601401232554e-04
1.498999124252233287e+03 1.868809152916586867e-03 2.709029611420114684e-04
