# starting wavelength: 3491.650
# ending wavelength: 9971.170
# wav flux eflux
3.491651790619498570e+03 1.964978383630535674e-01 2.731754777392566419e-02
3.495143442410119405e+03 1.865690337427991508e-01 2.115546740348348692e-02
3.498638585852530468e+03 1.742857841646241468e-01 1.616539969318630393e-02
3.502137224438384237e+03 1.628748457491104862e-01 1.212799248144982682e-02
3.505639361662823831e+03 1.523782651921229969e-01 9.397153491209961698e-03
3.509145001024487556e+03 1.428236039141986269e-01 7.549543953397097086e-03
3.512654146025513455e+03 1.333316259751899380e-01 6.351660082938847054e-03
3.516166800171540217e+03 1.236353728853895328e-01 5.121051734162492680e-03
3.519682966971712631e+03 1.144278081306364381e-01 4.297270802960778333e-03
3.523202649938685681e+03 1.057841591505105927e-01 3.683587793160411367e-03
3.526725852588625457e+03 9.761982963608695218e-02 3.162836893709778090e-03
3.530252578441215064e+03 8.982565153280200332e-02 2.829231673318363931e-03
3.533782831019657806e+03 8.235184800888545320e-02 2.607405151666460346e-03
3.537316613850678550e+03 7.598545852884835972e-02 2.409280390496626977e-03
3.540853930464530094e+03 6.657602335269521832e-02 4.146394449854376267e-03
3.544394784394995895e+03 5.851990472954489431e-02 5.060917050443121748e-03
3.547939179179392340e+03 5.562561464111060588e-02 4.921114994773182968e-03
3.551487118358572843e+03 5.482462981842532723e-02 4.715839795449851268e-03
3.555038605476932389e+03 5.694513598355768064e-02 5.004511393675963905e-03
3.558593644082410719e+03 5.796620303333888113e-02 5.011214075989702324e-03
3.562152237726494150e+03 6.287770292455957533e-02 6.163867313618468825e-03
3.565714389964221937e+03 6.860444126251603880e-02 7.103265829953014400e-03
3.569280104354187188e+03 7.185714238283739952e-02 7.185560797991625594e-03
3.572849384458542772e+03 7.428740851697886172e-02 7.173384705264176583e-03
3.576422233843002232e+03 7.740649497253711264e-02 7.143081844876053577e-03
3.579998656076846601e+03 8.159698979741145108e-02 6.979381842831916885e-03
3.583578654732924406e+03 8.665733391644725447e-02 7.086357927932993191e-03
3.587162233387658489e+03 8.975007369964363435e-02 6.854729814892547048e-03
3.590749395621047370e+03 9.334063303168689540e-02 6.956215040687012754e-03
3.594340145016669794e+03 9.806463410773368083e-02 7.216842029899077360e-03
3.597934485161687462e+03 1.013225671611753531e-01 7.398441959193301568e-03
3.601532419646850485e+03 1.047171438207671335e-01 7.142512469313920358e-03
3.605133952066498296e+03 1.080981642984731733e-01 7.455486626003858877e-03
3.608739086018566013e+03 1.098261325457134813e-01 7.333150774341076587e-03
3.612347825104585809e+03 1.112989945647601120e-01 7.223416253365208886e-03
3.615960172929691907e+03 1.138792956917555332e-01 7.007310177067812770e-03
3.619576133102622407e+03 1.142019150880851375e-01 7.262165131270052233e-03
3.623195709235726554e+03 1.147319733613039738e-01 7.343981218211232363e-03
3.626818904944963379e+03 1.150295331235973023e-01 7.487328493345417162e-03
3.630445723849909427e+03 1.143023803793627169e-01 7.477893713142559108e-03
3.634076169573760581e+03 1.132706088818111329e-01 7.585064396127110149e-03
3.637710245743335690e+03 1.117116286570321998e-01 7.761065978901349888e-03
3.641347955989080219e+03 1.104470328380351696e-01 8.129553320245867451e-03
3.644989303945070333e+03 1.076505614653746473e-01 7.960523541969074385e-03
3.648634293249016537e+03 1.074026575019114277e-01 7.800599599113056982e-03
3.652282927542266862e+03 1.072252639813164876e-01 7.546523887530003777e-03
3.655935210469810499e+03 1.065752486715371705e-01 7.427872775120587800e-03
3.659591145680281443e+03 1.011641832854080353e-01 7.660389460106983850e-03
3.663250736825963031e+03 9.631064933675931306e-02 8.496740315996948248e-03
3.666913987562790226e+03 8.338830850548391294e-02 7.361486069371638193e-03
3.670580901550354156e+03 6.879097458452967939e-02 4.455179927350223605e-03
3.674251482451905758e+03 6.387866864841308667e-02 4.409054099707931072e-03
3.677925733934358959e+03 5.605903441445587998e-02 3.533467544876274513e-03
3.681603659668294313e+03 5.164540840866128218e-02 3.447842885417250810e-03
3.685285263327964003e+03 5.320888578343171971e-02 3.350882418950570322e-03
3.688970548591293209e+03 5.746691598467974782e-02 2.646011355086732783e-03
3.692659519139885560e+03 6.032427830124184598e-02 2.639698475546198991e-03
3.696352178659026777e+03 6.374368845906111525e-02 2.739962074692423987e-03
3.700048530837686940e+03 6.962780337245041973e-02 2.908265227264518558e-03
3.703748579368525952e+03 7.899418435925097126e-02 2.878303295586114204e-03
3.707452327947895355e+03 8.801804204357920047e-02 2.819064504885819382e-03
3.711159780275844696e+03 9.956975059410667905e-02 2.839183528048811606e-03
3.714870940056121526e+03 1.089444116870821044e-01 3.173360139793975510e-03
3.718585810996179134e+03 1.178903845395632977e-01 3.220274084200454735e-03
3.722304396807176545e+03 1.288828372592946969e-01 3.834926938498127089e-03
3.726026701203984885e+03 1.404041489495006789e-01 4.347356864039755679e-03
3.729752727905190113e+03 1.512389183097769818e-01 4.436835463789205909e-03
3.733482480633096657e+03 1.627622256391823563e-01 4.138454527745590895e-03
3.737215963113731050e+03 1.729893277682196806e-01 3.608451881320803595e-03
3.740953179076846027e+03 1.781708413061519058e-01 3.506700613157369244e-03
3.744694132255923705e+03 1.840423730610716013e-01 3.019576166829225725e-03
3.748438826388181042e+03 1.862862426421212081e-01 3.118590042041684447e-03
3.752187265214570289e+03 1.844432277281334853e-01 3.714638342930188727e-03
3.755939452479786269e+03 1.822347040567855736e-01 3.726856526636417814e-03
3.759695391932267285e+03 1.761832860603459450e-01 4.209156774938851292e-03
3.763455087324201031e+03 1.699370632652640045e-01 4.757272615323680787e-03
3.767218542411526414e+03 1.618815068057231910e-01 5.035752919183061373e-03
3.770985760953939007e+03 1.530323649533948671e-01 4.661904345152408091e-03
3.774756746714894234e+03 1.464477775236203150e-01 4.588480513572506386e-03
3.778531503461610555e+03 1.373471482471276262e-01 3.920743171573314555e-03
3.782310034965073100e+03 1.297380670166069783e-01 3.598242241613026655e-03
3.786092345000039586e+03 1.215198621482449226e-01 2.968746366761752884e-03
3.789878437345040766e+03 1.187619037353907225e-01 3.708793130602341601e-03
3.793668315782387253e+03 1.154305841675756228e-01 4.153169145518329983e-03
3.797461984098170888e+03 1.143297766915165742e-01 3.428091601669627612e-03
3.801259446082270188e+03 1.135552962386743581e-01 3.029378128049444417e-03
3.805060705528353537e+03 1.123712755140528902e-01 2.010458259587665289e-03
3.808865766233883278e+03 1.086364088082300144e-01 1.936258000117023741e-03
3.812674632000118436e+03 1.037885402934158319e-01 1.934728011686137660e-03
3.816487306632119726e+03 9.841729094949502876e-02 2.082285801242902447e-03
3.820303793938753188e+03 9.233723080294627128e-02 2.353045490271067457e-03
3.824124097732693372e+03 8.534403766021619875e-02 2.658218741470710737e-03
3.827948221830427428e+03 7.888550359825655112e-02 2.803888720320122600e-03
3.831776170052258749e+03 7.231037733746842333e-02 2.730639798364293928e-03
3.835607946222312421e+03 6.484824323363838627e-02 2.617857439276027355e-03
3.839443554168536139e+03 5.671820033209806766e-02 2.099219185569242089e-03
3.843282997722705659e+03 4.900331324529043353e-02 1.354406173490962538e-03
3.847126280720429804e+03 4.371394486262782098e-02 1.374415104292661888e-03
3.850973407001151372e+03 4.024298863188723041e-02 1.474583002714504199e-03
3.854824380408153957e+03 3.775150803819541517e-02 1.529445049951968279e-03
3.858679204788563311e+03 3.671217142617672763e-02 1.716364715833084385e-03
3.862537883993353262e+03 3.750484149976371362e-02 1.952605752661537965e-03
3.866400421877347981e+03 3.901621102206534464e-02 1.827605729391078293e-03
3.870266822299226533e+03 3.975699426164671507e-02 1.828633310024950888e-03
3.874137089121526969e+03 4.227514954780799833e-02 1.604541378686426961e-03
3.878011226210649966e+03 4.491394004060286077e-02 1.703706530997069375e-03
3.881889237436861549e+03 4.808846977601565625e-02 1.816483760074619376e-03
3.885771126674299921e+03 5.242591056054527604e-02 1.863615319376848642e-03
3.889656897800975457e+03 5.749941738354372167e-02 2.582682630865707971e-03
3.893546554698777527e+03 6.433018643280558058e-02 2.405189023244879831e-03
3.897440101253477678e+03 7.404158855133935457e-02 2.420629098006739973e-03
3.901337541354732366e+03 8.536296777098073552e-02 2.533819122223222951e-03
3.905238878896088409e+03 9.838964949642102498e-02 2.608971215749139334e-03
3.909144117774985716e+03 1.136480554358886980e-01 2.658130737654823376e-03
3.913053261892762293e+03 1.311965980956001365e-01 3.028690451589921822e-03
3.916966315154656058e+03 1.518064856086622227e-01 3.078977674409213907e-03
3.920883281469812118e+03 1.742722924212983804e-01 3.013282634346952944e-03
3.924804164751283224e+03 2.004669487402153116e-01 3.163146799292723080e-03
3.928728968916035683e+03 2.301308417694042097e-01 4.109643191083318936e-03
3.932657697884953450e+03 2.601716854568555948e-01 4.051258563274771733e-03
3.936590355582839493e+03 2.911530395561941487e-01 4.934985320632216330e-03
3.940526945938423523e+03 3.229339253450991265e-01 5.172190531119487053e-03
3.944467472884363360e+03 3.506274311363615781e-01 5.070027669968420539e-03
3.948411940357249023e+03 3.746649600255351209e-01 5.226972879996777573e-03
3.952360352297607733e+03 3.958868537359060413e-01 4.995426545567827753e-03
3.956312712649906643e+03 4.111758349993671069e-01 5.003726535731424507e-03
3.960269025362557841e+03 4.236678708837553486e-01 5.339387357961906770e-03
3.964229294387921527e+03 4.341040694152681900e-01 5.647967706964227876e-03
3.968193523682310570e+03 4.382277811878216855e-01 6.080738594104563750e-03
3.972161717205994591e+03 4.378421754296425994e-01 5.907148439873097234e-03
3.976133878923201792e+03 4.364414088352466803e-01 5.848376507212555558e-03
3.980110012802126221e+03 4.322446152317291346e-01 5.855028927712815391e-03
3.984090122814929600e+03 4.244452369605918318e-01 5.976211540627404326e-03
3.988074212937745870e+03 4.141562860950492864e-01 6.757443752941494006e-03
3.992062287150684824e+03 4.041630425343374355e-01 6.781501875758184396e-03
3.996054349437837118e+03 3.926306219150118015e-01 5.822079882637764929e-03
4.000050403787276082e+03 3.819702886598104752e-01 5.583491239600659080e-03
4.004050454191064546e+03 3.658728548114706380e-01 3.411598333442285129e-03
4.008054504645257111e+03 3.416721230397892217e-01 5.299026152363110059e-03
4.012062559149903791e+03 3.211543853648876068e-01 5.680335315804259377e-03
4.016074621709055009e+03 2.960867768061777872e-01 9.238968905613318891e-03
4.020090696330765240e+03 2.686692412832153432e-01 1.770980693913589907e-02
4.024110787027097558e+03 2.534147676163018836e-01 1.905153090272960689e-02
4.028134897814125907e+03 2.585517029739540784e-01 1.673913650756825994e-02
4.032163032711941469e+03 2.935596495940835382e-01 1.670311091357250602e-02
4.036195195744654484e+03 3.406816931586473807e-01 1.561379689793034216e-02
4.040231390940400615e+03 4.108968735817092321e-01 1.937118179583275160e-02
4.044271622331342314e+03 5.018417711463567521e-01 2.505936543567101674e-02
4.048315893953675186e+03 5.922257321136507047e-01 2.554503175164755946e-02
4.052364209847629809e+03 7.014131500813483022e-01 2.661207696059561187e-02
4.056416574057479011e+03 8.030896018839731587e-01 2.319746652921439445e-02
4.060472990631537868e+03 8.755735492271740084e-01 2.220904989028482310e-02
4.064533463622170530e+03 9.421898070327431318e-01 1.801401830660311412e-02
4.068597997085794304e+03 9.828467629135420047e-01 1.512710353212511245e-02
4.072666595082881486e+03 9.855738558126988513e-01 2.193712415387787801e-02
4.076739261677965715e+03 9.602415390212840629e-01 2.532747577774769124e-02
4.080816000939644709e+03 9.170044631747024111e-01 1.930474089024603740e-02
4.084896816940585722e+03 8.719428745651099932e-01 1.435068364335895935e-02
4.088981713757527814e+03 8.339735353667866447e-01 1.349039346231847153e-02
4.093070695471286854e+03 7.883473060109859043e-01 1.150696411385900356e-02
4.097163766166759160e+03 7.532958047762402520e-01 1.385876047105383084e-02
4.101260929932927866e+03 7.211980496022816212e-01 1.216115074391984144e-02
4.105362190862862008e+03 6.891213298006746424e-01 1.276750007102635774e-02
4.109467553053726078e+03 6.576532984468721477e-01 1.095881773707456722e-02
4.113577020606780934e+03 6.210142037724746267e-01 1.041402577782635751e-02
4.117690597627389252e+03 5.794647882916901249e-01 1.058705724333664291e-02
4.121808288225018259e+03 5.438278344483785665e-01 1.117202684194403516e-02
4.125930096513244280e+03 5.005700893854226896e-01 1.150476287647992507e-02
4.130056026609759101e+03 4.569105038251068951e-01 1.000586192260997064e-02
4.134186082636369974e+03 4.178363002210585542e-01 8.313871513247543879e-03
4.138320268719007800e+03 3.813156782798773348e-01 7.773725511263891025e-03
4.142458588987728035e+03 3.599945190830021180e-01 7.943039931816695681e-03
4.146601047576717065e+03 3.390588989927325603e-01 7.982459585361928109e-03
4.150747648624294925e+03 3.273822397299911424e-01 3.510376414626680160e-03
4.154898396272920763e+03 3.124113180658700251e-01 3.382568879853325040e-03
4.159053294669195566e+03 2.978360532400129435e-01 4.176898698621718704e-03
4.163212347963865795e+03 2.864070258826397763e-01 4.244553165932403969e-03
4.167375560311830668e+03 2.766010294701271022e-01 3.434559704400273143e-03
4.171542935872143971e+03 2.715971090709958791e-01 3.360020965188679001e-03
4.175714478808017702e+03 2.684143347786086542e-01 3.320241341618758273e-03
4.179890193286827525e+03 2.692149906342656274e-01 3.431274559821393885e-03
4.184070083480115500e+03 2.729782355516451320e-01 6.827336780255275142e-03
4.188254153563597356e+03 2.857252317894926064e-01 7.531058606996309315e-03
4.192442407717161586e+03 3.075625665239082873e-01 7.520193739678888989e-03
4.196634850124880359e+03 3.383364933991630519e-01 7.111224320423204653e-03
4.200831484975006788e+03 3.754258852137968838e-01 7.543641003874278737e-03
4.205032316459983122e+03 4.204233915639207786e-01 1.124092257001473548e-02
4.209237348776444378e+03 4.666402691653235291e-01 1.394036664758357275e-02
4.213446586125221984e+03 5.102300741704528519e-01 1.445323003481720561e-02
4.217660032711349231e+03 5.404296976021368826e-01 1.193180371357110275e-02
4.221877692744061278e+03 5.497454407210238259e-01 1.190933574007526675e-02
4.226099570436806971e+03 5.504395149571263968e-01 9.660706476518914412e-03
4.230325670007245208e+03 5.295492776120644951e-01 1.256999587690443843e-02
4.234555995677254032e+03 4.902303378475836304e-01 1.471409700345409181e-02
4.238790551672932452e+03 4.391738889296672999e-01 1.254123626922777450e-02
4.243029342224606808e+03 3.883373511595090699e-01 9.010143919190612485e-03
4.247272371566832589e+03 3.494907545631998902e-01 9.045130364984010213e-03
4.251519643938400804e+03 3.093582934495598957e-01 5.145235014162782665e-03
4.255771163582340705e+03 2.845321430696519105e-01 5.707358383756438135e-03
4.260026934745924336e+03 2.755953244453343554e-01 5.857685002876361971e-03
4.264286961680671993e+03 2.747707487494596146e-01 5.930925944172632525e-03
4.268551248642354039e+03 2.837869516504997192e-01 3.000946248439312087e-03
4.272819799890998183e+03 2.949368229573672284e-01 2.084299953432156103e-03
4.277092619690890388e+03 3.092249804285071568e-01 1.942986182387427272e-03
4.281369712310583054e+03 3.274808734679536260e-01 1.871483558095976291e-03
4.285651082022895025e+03 3.457299527817001561e-01 2.330123516569951661e-03
4.289936733104918858e+03 3.642610517285515548e-01 1.498511578305190524e-03
4.294226669838025373e+03 3.857773592124956186e-01 2.797446528012554560e-03
4.298520896507864563e+03 4.052520789017191594e-01 3.976311391508992495e-03
4.302819417404373780e+03 4.196129872757445312e-01 4.533164401865467236e-03
4.307122236821779552e+03 4.292131200805996416e-01 4.008672349569410327e-03
4.311429359058603040e+03 4.320134869727710880e-01 3.839959571033455324e-03
4.315740788417662770e+03 4.287691301775055641e-01 3.168878382679842648e-03
4.320056529206081905e+03 4.169400337879875518e-01 4.120858804194981254e-03
4.324376585735290064e+03 3.981934086835271502e-01 5.557326618243693672e-03
4.328700962321026054e+03 3.754798585311086012e-01 5.948020913786432849e-03
4.333029663283348782e+03 3.564075343454404798e-01 6.506043257086217314e-03
4.337362692946633615e+03 3.373765120294187070e-01 5.017361885767292543e-03
4.341700055639581478e+03 3.249694028750804153e-01 3.377987070807910580e-03
4.346041755695222491e+03 3.188274704556349759e-01 2.768671549932546008e-03
4.350387797450919606e+03 3.234530714798353745e-01 3.979442990166039140e-03
4.354738185248371337e+03 3.348685774019922179e-01 4.224895284225428996e-03
4.359092923433621763e+03 3.525075188322920328e-01 2.900882417511505430e-03
4.363452016357056891e+03 3.711507760159552527e-01 2.443295284816764633e-03
4.367815468373414660e+03 3.888536662567790847e-01 2.454608165919703374e-03
4.372183283841789489e+03 4.077642890765261763e-01 2.288747912580687497e-03
4.376555467125633186e+03 4.237207704793582996e-01 1.576357794608220821e-03
4.380932022592760404e+03 4.357949116163833403e-01 1.456444413249390318e-03
4.385312954615354101e+03 4.430549939678606330e-01 1.503300227356955043e-03
4.389698267569970994e+03 4.447661310035008753e-01 1.621402734961939268e-03
4.394087965837542470e+03 4.438748067927000829e-01 1.994173035319710390e-03
4.398482053803381859e+03 4.405298747947803961e-01 2.909581155486369933e-03
4.402880535857186260e+03 4.333613873572069175e-01 7.235836985154343350e-03
4.407283416393044718e+03 4.298820355723311781e-01 8.097617448072483293e-03
4.411690699809440048e+03 4.334981575163401879e-01 7.121278200879502251e-03
4.416102390509250654e+03 4.456212963334681976e-01 6.829078214908907221e-03
4.420518492899761441e+03 4.665237827110427227e-01 9.262489882836578634e-03
4.424939011392662906e+03 4.871296004287844483e-01 9.802133896915579334e-03
4.429363950404056595e+03 5.167783765019151598e-01 1.078636857817124109e-02
4.433793314354462382e+03 5.376276703273048518e-01 1.074040468343030394e-02
4.438227107668818462e+03 5.575852129998077888e-01 9.100175652556904624e-03
4.442665334776488635e+03 5.690309717480253049e-01 7.637385017368090480e-03
4.447108000111265937e+03 5.694339700856110298e-01 8.071043417465589842e-03
4.451555108111379013e+03 5.595095396187579340e-01 8.572034340268886929e-03
4.456006663219492111e+03 5.403095593760819382e-01 8.350770828154418721e-03
4.460462669882713271e+03 5.143386418449974462e-01 6.491126956269428934e-03
4.464923132552597053e+03 4.851709418241765825e-01 5.228719845252721710e-03
4.469388055685150903e+03 4.545335839321631433e-01 5.123472815282935355e-03
4.473857443740837880e+03 4.266226906825988374e-01 5.045734355458250144e-03
4.478331301184580298e+03 4.015492424214812117e-01 4.474546726131362756e-03
4.482809632485766087e+03 3.801449798574081385e-01 2.277249192348292962e-03
4.487292442118253348e+03 3.567538837097342652e-01 2.645601176455214185e-03
4.491779734560373072e+03 3.374608912790336146e-01 2.488942879558936599e-03
4.496271514294934605e+03 3.219489750888083757e-01 1.886273482205588770e-03
4.500767785809231100e+03 3.138191561512242433e-01 2.404728444531628595e-03
4.505268553595042249e+03 3.120627191748860940e-01 2.588595230570357470e-03
4.509773822148638828e+03 3.205733929089921164e-01 4.641723716812708525e-03
4.514283595970789065e+03 3.306815229569003423e-01 4.599112068795800472e-03
4.518797879566761367e+03 3.481709163644268745e-01 4.128340216687454746e-03
4.523316677446328868e+03 3.716843147898684641e-01 4.085699249521360966e-03
4.527839994123776705e+03 4.010216768539761611e-01 6.286060656018299143e-03
4.532367834117902021e+03 4.318998958670187682e-01 1.790116899691938587e-02
4.536900201952022144e+03 4.836194968508956693e-01 1.946993676410040119e-02
4.541437102153975502e+03 5.587104197255422511e-01 1.715471515538007433e-02
4.545978539256130716e+03 6.648418550719883413e-01 1.765831092319262649e-02
