# starting wavelength: 3712.720
# ending wavelength: 7525.740
# wav flux eflux
3.714870940056121526e+03 5.002769765752255182e-01 6.480465508568646060e-02
3.718585810996179134e+03 5.235941950066191897e-01 4.858535829203602247e-02
3.722304396807176545e+03 5.507267931158807972e-01 3.779682209304698753e-02
3.726026701203984885e+03 5.724362459391030278e-01 2.877804707499753006e-02
3.729752727905190113e+03 5.911128038761531700e-01 2.272574802996472215e-02
3.733482480633096657e+03 6.048241350985548159e-01 1.841958275891441080e-02
3.737215963113731050e+03 6.133971256062129562e-01 1.487903847837168322e-02
3.740953179076846027e+03 6.182856090465569388e-01 1.278797074545186784e-02
3.744694132255923705e+03 6.201870988659969886e-01 1.143959590696101702e-02
3.748438826388181042e+03 6.218595376708084821e-01 9.876293053769738192e-03
3.752187265214570289e+03 6.266529182687753385e-01 9.117149962387794196e-03
3.755939452479786269e+03 6.307610511509149642e-01 8.238531660712714033e-03
3.759695391932267285e+03 6.395302335755604917e-01 8.253087929848683391e-03
3.763455087324201031e+03 6.480149084942796733e-01 8.040377590897139840e-03
3.767218542411526414e+03 6.613446418250739089e-01 8.657564195567839238e-03
3.770985760953939007e+03 6.700866049570185501e-01 8.838534707304014290e-03
3.774756746714894234e+03 6.773584190674709626e-01 9.304492851405964104e-03
3.778531503461610555e+03 6.824744534729095813e-01 9.771978377406993418e-03
3.782310034965073100e+03 6.793552415883437057e-01 9.869469880221890673e-03
3.786092345000039586e+03 6.768563744877631461e-01 9.150218054451387736e-03
3.789878437345040766e+03 6.676758061827178237e-01 8.859508137354589821e-03
3.793668315782387253e+03 6.514156296444706395e-01 8.693692727576942531e-03
3.797461984098170888e+03 6.326620541134608811e-01 8.360070123357080454e-03
3.801259446082270188e+03 6.054076190251531653e-01 8.585980898632775832e-03
3.805060705528353537e+03 5.773107058200984687e-01 8.689637760046071274e-03
3.808865766233883278e+03 5.421161781214351993e-01 9.472902363886490443e-03
3.812674632000118436e+03 4.993430236463150540e-01 1.032679799289538611e-02
3.816487306632119726e+03 4.574992686250207719e-01 1.060720447216517183e-02
3.820303793938753188e+03 4.119211942848246544e-01 1.042703633799231186e-02
3.824124097732693372e+03 3.709862235476021897e-01 9.735988042320351324e-03
3.827948221830427428e+03 3.300844702003107867e-01 8.920031861003079737e-03
3.831776170052258749e+03 2.886146018017590187e-01 7.390314664969555372e-03
3.835607946222312421e+03 2.567225194292469537e-01 6.950174952882937421e-03
3.839443554168536139e+03 2.307252315486755523e-01 6.873334284033165084e-03
3.843282997722705659e+03 2.147555471473209243e-01 7.647513233361111565e-03
3.847126280720429804e+03 2.040696479892457338e-01 8.151921742859547654e-03
3.850973407001151372e+03 1.996693600038356442e-01 8.260801925292981032e-03
3.854824380408153957e+03 2.016106125490791379e-01 8.106726328470616888e-03
3.858679204788563311e+03 2.083683670478146677e-01 7.139591379310005100e-03
3.862537883993353262e+03 2.193368520421645207e-01 6.166869184025011545e-03
3.866400421877347981e+03 2.301491721650133493e-01 5.744666363572064650e-03
3.870266822299226533e+03 2.399228139530131254e-01 6.134774195572266671e-03
3.874137089121526969e+03 2.527314837881596832e-01 6.181792836912108381e-03
3.878011226210649966e+03 2.688601585731543175e-01 6.479479293351068925e-03
3.881889237436861549e+03 2.833373251070699927e-01 7.178273990857722033e-03
3.885771126674299921e+03 3.025326351373589517e-01 6.689303759668334924e-03
3.889656897800975457e+03 3.260045688714485745e-01 6.144362401647524702e-03
3.893546554698777527e+03 3.583376347607870049e-01 5.563893500355385040e-03
3.897440101253477678e+03 3.997337059122964553e-01 5.222114158827602035e-03
3.901337541354732366e+03 4.490335159847291258e-01 5.237903804588850756e-03
3.905238878896088409e+03 5.050498599818683543e-01 5.890891586683525208e-03
3.909144117774985716e+03 5.672594403754378511e-01 7.451934257866839328e-03
3.913053261892762293e+03 6.378813316842871783e-01 9.031169374589398044e-03
3.916966315154656058e+03 7.065701412219189681e-01 9.507469143288359639e-03
3.920883281469812118e+03 7.723210613474216224e-01 9.241900952674606678e-03
3.924804164751283224e+03 8.333532221857510303e-01 8.489211789780612416e-03
3.928728968916035683e+03 8.876161871143026794e-01 7.946527936855431878e-03
3.932657697884953450e+03 9.316476679326020083e-01 7.530199686149247236e-03
3.936590355582839493e+03 9.662131002155046611e-01 8.028811854141244125e-03
3.940526945938423523e+03 9.898497159077285223e-01 9.383336072294358801e-03
3.944467472884363360e+03 1.006868250538550669e+00 9.893739860501495065e-03
3.948411940357249023e+03 1.018126154710615072e+00 9.492863012045799076e-03
3.952360352297607733e+03 1.018222705724716626e+00 9.332827244013805826e-03
3.956312712649906643e+03 1.017206986686590486e+00 8.408909372506913338e-03
3.960269025362557841e+03 1.014596592573853373e+00 7.497837937059567345e-03
3.964229294387921527e+03 1.012101000821229002e+00 6.827496579546154729e-03
3.968193523682310570e+03 1.012584634141038276e+00 6.718140472633323153e-03
3.972161717205994591e+03 1.019898519145539639e+00 7.655225512911069397e-03
3.976133878923201792e+03 1.027048328504601038e+00 8.107920839869232552e-03
3.980110012802126221e+03 1.038141393472139962e+00 7.636636917583445455e-03
3.984090122814929600e+03 1.042144034426585320e+00 7.095233010372396787e-03
3.988074212937745870e+03 1.049962452414334280e+00 6.656882980660638015e-03
3.992062287150684824e+03 1.055752479508172970e+00 5.776785354685219122e-03
3.996054349437837118e+03 1.051575013887395382e+00 5.902540343104200823e-03
4.000050403787276082e+03 1.040894416027440261e+00 5.947129935456193194e-03
4.004050454191064546e+03 1.024034101524989193e+00 5.958366659681097605e-03
4.008054504645257111e+03 1.002652692039192717e+00 5.721756248134948070e-03
4.012062559149903791e+03 9.798599888619348164e-01 6.125348752614607865e-03
4.016074621709055009e+03 9.540061504483658972e-01 7.102921022021687313e-03
4.020090696330765240e+03 9.351223340216344715e-01 7.018644171557419410e-03
4.024110787027097558e+03 9.165467443562028693e-01 7.340667714903156144e-03
4.028134897814125907e+03 9.066390839164664150e-01 7.377644577952797642e-03
4.032163032711941469e+03 9.018306426904008077e-01 7.247204761326962556e-03
4.036195195744654484e+03 9.003373553657714190e-01 6.953460217985662356e-03
4.040231390940400615e+03 9.101612651065429382e-01 7.051110275367111248e-03
4.044271622331342314e+03 9.287401628504552420e-01 7.053357835466079681e-03
4.048315893953675186e+03 9.509450823725960067e-01 6.879558579072729899e-03
4.052364209847629809e+03 9.786774023554570823e-01 6.873463422847171135e-03
4.056416574057479011e+03 1.013756500716172404e+00 7.909862216229189211e-03
4.060472990631537868e+03 1.043757320551299550e+00 8.019355005123225341e-03
4.064533463622170530e+03 1.073741093467002639e+00 7.228547523163362555e-03
4.068597997085794304e+03 1.094520946779938164e+00 6.771774949668817045e-03
4.072666595082881486e+03 1.103353351728241893e+00 6.708493319552686664e-03
4.076739261677965715e+03 1.100869922914415433e+00 6.742749364576913935e-03
4.080816000939644709e+03 1.091985187266436119e+00 6.378168650084808933e-03
4.084896816940585722e+03 1.071149556068587527e+00 6.472314476793258366e-03
4.088981713757527814e+03 1.037105861703093046e+00 7.042929698057097225e-03
4.093070695471286854e+03 9.973616314884076184e-01 7.933197772983664395e-03
4.097163766166759160e+03 9.537446509115261595e-01 8.069004688514272786e-03
4.101260929932927866e+03 9.060347141747804312e-01 7.304352020753336616e-03
4.105362190862862008e+03 8.724607265837565073e-01 7.494420875756215711e-03
4.109467553053726078e+03 8.469083808050995588e-01 6.247598147085655328e-03
4.113577020606780934e+03 8.419725546707671482e-01 7.324159803384105993e-03
4.117690597627389252e+03 8.458832821077011399e-01 7.369029258799689175e-03
4.121808288225018259e+03 8.584352016190114343e-01 7.555168634865138018e-03
4.125930096513244280e+03 8.803213595872341202e-01 8.133020160225132994e-03
4.130056026609759101e+03 8.979198585769029295e-01 7.752681110648203255e-03
4.134186082636369974e+03 9.083528247548603440e-01 7.457945818123914647e-03
4.138320268719007800e+03 9.176498710122349411e-01 5.291831084848238990e-03
4.142458588987728035e+03 9.107245361451408172e-01 5.099381634570378068e-03
4.146601047576717065e+03 8.898581528337758950e-01 5.341047463101864824e-03
4.150747648624294925e+03 8.557728570629186127e-01 5.369145481279851556e-03
4.154898396272920763e+03 8.150173351312955949e-01 5.102566782284160413e-03
4.159053294669195566e+03 7.754584556157294584e-01 5.647697366429766871e-03
4.163212347963865795e+03 7.383200078628978646e-01 5.069486800152662662e-03
4.167375560311830668e+03 7.104415508705302917e-01 4.775166463626018612e-03
4.171542935872143971e+03 6.914835053253560737e-01 4.377693332320518535e-03
4.175714478808017702e+03 6.900989322612168797e-01 5.902244434454596497e-03
4.179890193286827525e+03 6.897796625503352930e-01 6.334356396813097326e-03
4.184070083480115500e+03 6.939503367948082202e-01 6.497824802383261530e-03
4.188254153563597356e+03 7.044930134691778090e-01 6.750350542448942115e-03
4.192442407717161586e+03 7.121851623780411922e-01 5.149531045118029698e-03
4.196634850124880359e+03 7.106470739920061064e-01 4.931532429652909361e-03
4.200831484975006788e+03 7.033439552975997433e-01 4.828085348847415553e-03
4.205032316459983122e+03 6.882735098159161735e-01 4.951239815375230516e-03
4.209237348776444378e+03 6.593922423342174488e-01 5.829620498798628904e-03
4.213446586125221984e+03 6.262275789123900038e-01 5.727874439460759436e-03
4.217660032711349231e+03 5.927966077813368040e-01 4.864930731727549161e-03
4.221877692744061278e+03 5.646139676124927176e-01 4.545589872827038996e-03
4.226099570436806971e+03 5.397051857558499144e-01 4.616195868734300663e-03
4.230325670007245208e+03 5.193405779949064049e-01 4.591064660120794567e-03
4.234555995677254032e+03 5.053086699055564512e-01 4.749602987000227546e-03
4.238790551672932452e+03 4.960080128300956570e-01 4.595539182342791955e-03
4.243029342224606808e+03 4.919238154129751961e-01 4.542090026510198046e-03
4.247272371566832589e+03 4.924852751209023438e-01 4.479086329129134715e-03
4.251519643938400804e+03 4.954198624236738069e-01 4.554602565837156253e-03
4.255771163582340705e+03 5.071298080866277758e-01 4.318233347756302368e-03
4.260026934745924336e+03 5.170138539678915679e-01 4.629386335874861001e-03
4.264286961680671993e+03 5.345666996428432016e-01 4.624130398270887357e-03
4.268551248642354039e+03 5.564371277025439433e-01 4.753274641992589339e-03
4.272819799890998183e+03 5.879007068414339177e-01 4.913413344107594137e-03
4.277092619690890388e+03 6.250120148134368225e-01 5.538851546441333172e-03
4.281369712310583054e+03 6.663297980906185414e-01 5.533045906462478319e-03
4.285651082022895025e+03 7.051026345562181330e-01 5.621488527835158400e-03
4.289936733104918858e+03 7.329353794228928853e-01 5.577363690629200642e-03
4.294226669838025373e+03 7.520687662029282849e-01 5.316563382865936715e-03
4.298520896507864563e+03 7.592561105898021356e-01 5.739003246332178079e-03
4.302819417404373780e+03 7.570069761404428776e-01 6.951300131788407978e-03
4.307122236821779552e+03 7.478193700184174730e-01 7.552775967309560863e-03
4.311429359058603040e+03 7.341437312191118059e-01 6.945222618642552144e-03
4.315740788417662770e+03 7.194482584208903297e-01 6.475243284349447084e-03
4.320056529206081905e+03 7.047984743396029650e-01 5.417788373944270285e-03
4.324376585735290064e+03 6.979167698150731125e-01 5.280953556849177569e-03
4.328700962321026054e+03 6.955220104459833852e-01 5.110891162285132600e-03
4.333029663283348782e+03 7.040886688425365136e-01 5.147967552443299261e-03
4.337362692946633615e+03 7.244142829536558414e-01 5.236563266862576810e-03
4.341700055639581478e+03 7.457262671725822800e-01 4.506204339908555061e-03
4.346041755695222491e+03 7.671690074280871352e-01 4.483639815711489007e-03
4.350387797450919606e+03 7.867486542802262228e-01 4.534092592350918299e-03
4.354738185248371337e+03 8.047396381675715471e-01 4.359556043365533928e-03
4.359092923433621763e+03 8.164005918041513654e-01 4.359221577352839078e-03
4.363452016357056891e+03 8.241451733819368242e-01 4.339968641680480056e-03
4.367815468373414660e+03 8.312357660722978769e-01 4.333418509627626897e-03
4.372183283841789489e+03 8.298272812261662246e-01 5.012577002800908642e-03
4.376555467125633186e+03 8.277532914959966348e-01 5.547940098772565116e-03
4.380932022592760404e+03 8.229812617277926234e-01 5.600721374127084692e-03
4.385312954615354101e+03 8.205163501543840665e-01 4.587731738092469362e-03
4.389698267569970994e+03 8.202802885422748602e-01 4.811857715879207589e-03
4.394087965837542470e+03 8.226276319587160213e-01 5.047943571608632003e-03
4.398482053803381859e+03 8.241892256012044449e-01 4.899988752797366197e-03
4.402880535857186260e+03 8.244877886316939186e-01 4.607076466877803658e-03
4.407283416393044718e+03 8.255552846280331813e-01 4.265176937920368838e-03
4.411690699809440048e+03 8.162135788471865938e-01 4.368926121521491193e-03
4.416102390509250654e+03 8.026240561693315234e-01 4.369763677891679889e-03
4.420518492899761441e+03 7.853854572972549519e-01 4.650412497305468976e-03
4.424939011392662906e+03 7.651644251985613154e-01 4.484850686836793464e-03
4.429363950404056595e+03 7.432821815514291108e-01 4.162800259631854564e-03
4.433793314354462382e+03 7.226966681429548567e-01 4.003038482444865737e-03
4.438227107668818462e+03 7.047086729770731806e-01 4.261716657766305427e-03
4.442665334776488635e+03 6.833797666061254272e-01 4.236006048297457673e-03
4.447108000111265937e+03 6.665432045995036692e-01 4.155771896430501822e-03
4.451555108111379013e+03 6.533162224596306134e-01 3.209760302096161758e-03
4.456006663219492111e+03 6.353360922694170076e-01 3.238317556236932054e-03
4.460462669882713271e+03 6.149529422851716109e-01 3.414953500348215636e-03
4.464923132552597053e+03 5.954367765928875178e-01 3.718708717407143930e-03
4.469388055685150903e+03 5.825921327663541316e-01 3.609307974900118499e-03
4.473857443740837880e+03 5.708016516653319217e-01 3.582952792593448697e-03
4.478331301184580298e+03 5.648996429019744747e-01 3.536508095247688482e-03
4.482809632485766087e+03 5.623173934761999115e-01 3.459380108483073833e-03
4.487292442118253348e+03 5.660959289160246710e-01 3.444750207481600806e-03
4.491779734560373072e+03 5.805935731219492579e-01 3.368326820304428162e-03
4.496271514294934605e+03 5.986826170106326339e-01 3.929130140781957568e-03
4.500767785809231100e+03 6.274087949538917908e-01 4.246559233105112047e-03
4.505268553595042249e+03 6.643394155623199016e-01 4.435343636930032599e-03
4.509773822148638828e+03 7.147438657538486284e-01 4.140964047131271558e-03
4.514283595970789065e+03 7.779031862676571984e-01 5.088936831286377041e-03
4.518797879566761367e+03 8.494816867514691783e-01 6.370243370828597256e-03
4.523316677446328868e+03 9.231339789117627426e-01 6.657908103154886251e-03
4.527839994123776705e+03 9.959692917260001277e-01 7.277368282549346104e-03
4.532367834117902021e+03 1.061170099717208215e+00 6.612451224209665683e-03
4.536900201952022144e+03 1.112347858275352319e+00 6.278460868643263686e-03
4.541437102153975502e+03 1.150980243278026949e+00 7.008942585286606283e-03
4.545978539256130716e+03 1.178534343142940699e+00 7.775325462449311949e-03
4.550524517795388419e+03 1.194592910144371078e+00 7.234937132328670903e-03
4.555075042313184895e+03 1.208103469508349459e+00 6.889372389127393012e-03
4.559630117355500261e+03 1.218139955792943541e+00 5.744702435271118596e-03
4.564189747472856652e+03 1.227983520257613703e+00 5.525864079156007393e-03
4.568753937220330954e+03 1.240055856963185654e+00 5.681747236480625025e-03
4.573322691157552981e+03 1.256305332373643058e+00 5.654922075331787409e-03
4.577896013848711846e+03 1.273839650427680104e+00 4.725075188077979861e-03
4.582473909862562323e+03 1.288549386556243181e+00 4.703561516331744054e-03
4.587056383772426670e+03 1.306134673187463013e+00 4.534367308668700927e-03
4.591643440156200086e+03 1.317031052281088410e+00 4.552961020273208793e-03
4.596235083596357981e+03 1.325335479944301120e+00 4.345321063866456474e-03
4.600831318679955984e+03 1.332713037317160953e+00 4.407686440392468222e-03
4.605432149998637215e+03 1.339609274163955810e+00 4.413754046977778206e-03
4.610037582148637739e+03 1.342561451912196668e+00 4.338303359597900886e-03
4.614647619730787483e+03 1.347428642077479921e+00 4.080867366349075383e-03
4.619262267350520233e+03 1.353244612594006302e+00 3.744549082484347272e-03
4.623881529617872729e+03 1.355687481068776012e+00 3.733765712409221026e-03
4.628505411147491941e+03 1.351871187909069683e+00 3.701594706853324462e-03
4.633133916558640522e+03 1.345252126451327968e+00 3.851121941883315150e-03
4.637767050475200449e+03 1.332411071571632633e+00 4.078398311937850990e-03
4.642404817525677572e+03 1.320311100141857041e+00 4.118539340773588221e-03
4.647047222343205249e+03 1.305631852518394975e+00 4.295387574644074849e-03
4.651694269565549803e+03 1.286487010293015709e+00 4.416329361065088506e-03
4.656345963835116891e+03 1.265401930289054455e+00 4.272638039858995054e-03
4.661002309798953320e+03 1.237163662076743442e+00 4.122156506620391556e-03
4.665663312108753416e+03 1.198759933714546255e+00 4.600943363052568610e-03
4.670328975420864481e+03 1.160095122262346790e+00 4.688278996086949618e-03
4.674999304396286789e+03 1.121215696096325987e+00 4.729042205873678489e-03
4.679674303700684504e+03 1.081971863285296376e+00 4.679909032278101524e-03
4.684353978004386590e+03 1.043294781760765622e+00 4.800977911331274009e-03
4.689038331982392265e+03 1.007624076158064819e+00 4.811506233241323940e-03
4.693727370314376458e+03 9.797306868005880576e-01 4.653959227052848792e-03
4.698421097684692540e+03 9.562789234520793213e-01 4.526045801800803077e-03
4.703119518782378691e+03 9.393816602675435501e-01 4.646541711708249318e-03
4.707822638301162442e+03 9.304550064556149636e-01 5.081900206594287123e-03
4.712530460939465229e+03 9.258880496825550033e-01 4.585883142387929372e-03
4.717242991400406027e+03 9.186140320367558454e-01 4.244719833033366342e-03
4.721960234391808626e+03 9.107062379593324764e-01 3.729904998031384998e-03
4.726682194626201635e+03 8.941688807914944803e-01 3.604359084560122481e-03
4.731408876820829391e+03 8.782210924432696242e-01 3.849655488616490154e-03
4.736140285697651962e+03 8.557134249067310794e-01 3.724893604591172219e-03
4.740876425983350600e+03 8.269181271054348858e-01 3.978336660278714368e-03
4.745617302409335934e+03 7.907648825292998840e-01 3.749997179180969680e-03
4.750362919711747054e+03 7.460954514508870705e-01 4.741202896708342045e-03
4.755113282631459697e+03 6.951936876841599000e-01 6.146966134590405029e-03
4.759868395914093526e+03 6.530105133496491021e-01 6.469827635747977743e-03
4.764628264310008490e+03 6.226507401145109366e-01 6.654544328168406596e-03
4.769392892574320285e+03 6.095348940981157870e-01 6.748382910788023811e-03
4.774162285466896719e+03 6.139082133266864361e-01 5.672204230750938457e-03
4.778936447752364984e+03 6.458683544954493261e-01 5.158092816530115629e-03
4.783715384200118933e+03 7.030481832542730958e-01 6.353309048222458705e-03
4.788499099584319993e+03 7.796266586855948866e-01 7.954910683427435236e-03
4.793287598683906253e+03 8.725783949259542371e-01 9.140530481714042796e-03
4.798080886282591564e+03 9.737348286187577084e-01 8.778818931556280764e-03
4.802878967168876443e+03 1.071873810172646380e+00 6.546961957548939025e-03
4.807681846136046261e+03 1.150153224378518857e+00 4.851412463174712385e-03
4.812489527982183972e+03 1.201823165574336771e+00 4.070766669360716995e-03
4.817302017510168298e+03 1.224860395476713215e+00 5.719899985618213424e-03
4.822119319527679181e+03 1.224717663196446926e+00 8.306569023996403581e-03
4.826941438847208701e+03 1.207513141564500181e+00 8.459290463011071709e-03
4.831768380286057436e+03 1.182719700935676910e+00 8.973955684376557634e-03
4.836600148666345376e+03 1.155069588992879481e+00 8.478367193778358485e-03
