# starting wavelength: 3990.460
# ending wavelength: 9973.660
# wav flux eflux
3.992062287150684824e+03 1.104297779210237751e+00 6.406014821675530546e-02
3.996054349437837118e+03 1.069561887880886131e+00 4.709809982746086116e-02
4.000050403787276082e+03 1.038844814621056267e+00 3.537259691833005010e-02
4.004050454191064546e+03 1.014609297608208394e+00 2.697974386877893468e-02
4.008054504645257111e+03 9.948090549081212153e-01 2.097933646135574648e-02
4.012062559149903791e+03 9.803980686907454167e-01 1.808538755322729522e-02
4.016074621709055009e+03 9.771241210431809154e-01 1.516513723996045990e-02
4.020090696330765240e+03 9.834806951231562788e-01 1.324561746326316167e-02
4.024110787027097558e+03 9.985713490997120134e-01 1.112535238709395045e-02
4.028134897814125907e+03 1.020877886414994107e+00 9.627561726933181810e-03
4.032163032711941469e+03 1.048608629160471706e+00 8.380301498636069657e-03
4.036195195744654484e+03 1.081763240156348393e+00 7.549095626609997854e-03
4.040231390940400615e+03 1.121082441582795575e+00 7.350403119295439124e-03
4.044271622331342314e+03 1.163068342466630822e+00 7.454744338899524023e-03
4.048315893953675186e+03 1.210034113651028864e+00 8.266706810087769836e-03
4.052364209847629809e+03 1.253524591544247890e+00 8.806057485454163794e-03
4.056416574057479011e+03 1.300243015017232384e+00 1.060219020028940404e-02
4.060472990631537868e+03 1.336902177793265700e+00 1.147185216481431957e-02
4.064533463622170530e+03 1.368284025691312467e+00 1.202527828268573455e-02
4.068597997085794304e+03 1.392146721414852184e+00 1.101557960753015222e-02
4.072666595082881486e+03 1.411162482749156455e+00 9.107972441938566241e-03
4.076739261677965715e+03 1.418832111416495456e+00 8.436863557105435743e-03
4.080816000939644709e+03 1.409722137622632099e+00 9.633380175923151462e-03
4.084896816940585722e+03 1.388338489616222748e+00 1.250555992096681612e-02
4.088981713757527814e+03 1.363698532665814867e+00 1.400348798443421146e-02
4.093070695471286854e+03 1.327619301275413166e+00 1.605084942977020798e-02
4.097163766166759160e+03 1.293881530836260785e+00 1.668282544143753071e-02
4.101260929932927866e+03 1.250450721201622484e+00 1.698583522323882794e-02
4.105362190862862008e+03 1.209701604209435288e+00 1.682565764354824675e-02
4.109467553053726078e+03 1.166495101960424607e+00 1.595516711259925210e-02
4.113577020606780934e+03 1.127205868894618490e+00 1.529345074458403342e-02
4.117690597627389252e+03 1.085549874455848274e+00 1.403269649592432840e-02
4.121808288225018259e+03 1.048779643916913917e+00 1.397478591607237766e-02
4.125930096513244280e+03 1.014758183764067789e+00 1.444029536908364095e-02
4.130056026609759101e+03 9.854695683827257024e-01 1.551018034832393581e-02
4.134186082636369974e+03 9.571138908661307454e-01 1.606512566544779363e-02
4.138320268719007800e+03 9.343938096416120054e-01 1.570052943573398488e-02
4.142458588987728035e+03 9.092472619895791697e-01 1.541805907743610572e-02
4.146601047576717065e+03 8.861652711208563016e-01 1.532131046280756081e-02
4.150747648624294925e+03 8.641543270516051090e-01 1.576827373492430476e-02
4.154898396272920763e+03 8.509315001578574567e-01 1.610242406873044554e-02
4.159053294669195566e+03 8.362867109703542301e-01 1.660657308474030106e-02
4.163212347963865795e+03 8.315470204050793290e-01 1.703374173292518737e-02
4.167375560311830668e+03 8.265799328434848547e-01 1.707531477042501314e-02
4.171542935872143971e+03 8.226964688749083265e-01 1.693630811694950278e-02
4.175714478808017702e+03 8.240587337218352459e-01 1.635985036506931029e-02
4.179890193286827525e+03 8.235998126839676470e-01 1.583502650227334302e-02
4.184070083480115500e+03 8.221833919479124564e-01 1.603667229627897192e-02
4.188254153563597356e+03 8.297340576510168209e-01 1.786758580533967522e-02
4.192442407717161586e+03 8.340578333469613748e-01 1.909704469788788689e-02
4.196634850124880359e+03 8.422991933159086342e-01 1.950865070065018608e-02
4.200831484975006788e+03 8.519291904124968173e-01 1.833926222667535411e-02
4.205032316459983122e+03 8.564847705592909533e-01 1.680366098440880945e-02
4.209237348776444378e+03 8.561003121372798841e-01 1.477206242827048752e-02
4.213446586125221984e+03 8.465688532720420101e-01 1.391964126062404834e-02
4.217660032711349231e+03 8.310160969850998169e-01 1.392077306980425352e-02
4.221877692744061278e+03 8.046736824773476071e-01 1.554078844282966686e-02
4.226099570436806971e+03 7.745503870307877126e-01 1.645331634261086931e-02
4.230325670007245208e+03 7.344981396778877958e-01 1.679500500818881595e-02
4.234555995677254032e+03 6.995090873069731430e-01 1.626760221400489967e-02
4.238790551672932452e+03 6.555890120747535077e-01 1.448878297689975767e-02
4.243029342224606808e+03 6.132950657831056640e-01 1.192955422578832574e-02
4.247272371566832589e+03 5.776914654322540255e-01 9.073501668183759500e-03
4.251519643938400804e+03 5.511888206275626922e-01 6.813715018461648579e-03
4.255771163582340705e+03 5.372956136730808741e-01 6.348098168490664932e-03
4.260026934745924336e+03 5.355856697574440384e-01 6.718902897931530033e-03
4.264286961680671993e+03 5.497312208366802455e-01 7.139582408081646819e-03
4.268551248642354039e+03 5.713507944113774828e-01 6.595553071254562673e-03
4.272819799890998183e+03 6.029377045581356676e-01 6.516693127675727247e-03
4.277092619690890388e+03 6.357106198108583017e-01 7.028455494882307301e-03
4.281369712310583054e+03 6.697513106310576392e-01 6.359111065052920272e-03
4.285651082022895025e+03 7.050348611061063586e-01 6.809480147961990450e-03
4.289936733104918858e+03 7.349047332545253219e-01 6.822591152156259192e-03
4.294226669838025373e+03 7.626098250978491366e-01 6.270519802068075590e-03
4.298520896507864563e+03 7.813806994865721833e-01 5.828643007060589631e-03
4.302819417404373780e+03 7.960588580301073414e-01 5.776365626503416305e-03
4.307122236821779552e+03 8.017695312411130537e-01 6.487621468938993378e-03
4.311429359058603040e+03 8.043484591879670464e-01 7.178761880892360440e-03
4.315740788417662770e+03 8.003293591087238257e-01 8.416460436717201204e-03
4.320056529206081905e+03 7.914756411746927123e-01 9.346648201213600404e-03
4.324376585735290064e+03 7.844156313984727014e-01 9.479936696260030105e-03
4.328700962321026054e+03 7.717447258275020872e-01 9.251129755763844165e-03
4.333029663283348782e+03 7.610236755893537985e-01 8.331296493009891779e-03
4.337362692946633615e+03 7.543626385183331839e-01 7.158527000647528504e-03
4.341700055639581478e+03 7.527624670053548739e-01 6.107683906675292172e-03
4.346041755695222491e+03 7.591180250915033900e-01 7.218308676605405053e-03
4.350387797450919606e+03 7.679548698764450121e-01 7.957823363372648964e-03
4.354738185248371337e+03 7.851658728578061464e-01 8.667248400201135045e-03
4.359092923433621763e+03 8.047717693201665856e-01 7.618744666484126779e-03
4.363452016357056891e+03 8.254264654760455899e-01 6.246234179709870930e-03
4.367815468373414660e+03 8.434217248492098529e-01 4.998926759941773462e-03
4.372183283841789489e+03 8.599642307664552288e-01 4.426403997829302453e-03
4.376555467125633186e+03 8.703027187082589267e-01 5.212419507868275466e-03
4.380932022592760404e+03 8.779218025886621479e-01 6.038876286396116337e-03
4.385312954615354101e+03 8.853163769963311447e-01 6.300926943055192193e-03
4.389698267569970994e+03 8.895947795611545139e-01 5.932520256329195871e-03
4.394087965837542470e+03 8.942354962966265752e-01 5.086163804092110052e-03
4.398482053803381859e+03 8.982641500090281506e-01 4.413086463769903649e-03
4.402880535857186260e+03 9.052904350004301604e-01 4.784653870912740185e-03
4.407283416393044718e+03 9.127464343818338932e-01 5.301029872848422517e-03
4.411690699809440048e+03 9.175097510092802278e-01 5.528463874159096625e-03
4.416102390509250654e+03 9.228628651686916484e-01 5.749770210533897141e-03
4.420518492899761441e+03 9.257944819535196546e-01 5.370783562856387867e-03
4.424939011392662906e+03 9.250654043410451166e-01 4.537408586979633021e-03
4.429363950404056595e+03 9.201897916449736092e-01 3.603318553403144376e-03
4.433793314354462382e+03 9.093758350791064649e-01 3.023998524289096042e-03
4.438227107668818462e+03 8.914179388453787878e-01 3.177020125162746938e-03
4.442665334776488635e+03 8.644498379335538996e-01 3.244526826882868781e-03
4.447108000111265937e+03 8.320485278898832604e-01 2.626615752996542836e-03
4.451555108111379013e+03 7.996278736967672440e-01 2.334748124301165486e-03
4.456006663219492111e+03 7.651920865474813871e-01 1.786563693908761741e-03
4.460462669882713271e+03 7.309732562622750507e-01 1.445549899393394145e-03
4.464923132552597053e+03 6.987047243699553434e-01 1.353673600007915430e-03
4.469388055685150903e+03 6.694107646692208924e-01 1.366254802159683202e-03
4.473857443740837880e+03 6.447349657122858346e-01 1.392717575317503186e-03
4.478331301184580298e+03 6.249014218772755980e-01 1.417643938127420697e-03
4.482809632485766087e+03 6.109187802567581649e-01 1.698094681618113983e-03
4.487292442118253348e+03 6.022764637331999849e-01 2.232333688637603078e-03
4.491779734560373072e+03 5.979577010877852317e-01 2.300713528674664613e-03
4.496271514294934605e+03 5.993914629257699467e-01 2.298123655019928928e-03
4.500767785809231100e+03 6.073271525135470750e-01 3.322134906139776953e-03
4.505268553595042249e+03 6.249025566932464582e-01 4.493789041320616837e-03
4.509773822148638828e+03 6.485794777615074835e-01 7.287019483850050786e-03
4.514283595970789065e+03 6.851141140096745907e-01 8.364378214554378174e-03
4.518797879566761367e+03 7.399076392955686865e-01 7.786973991620513118e-03
4.523316677446328868e+03 8.122586910630239521e-01 6.955775304264594401e-03
4.527839994123776705e+03 9.043680999469925208e-01 8.769235702610053695e-03
4.532367834117902021e+03 1.015078636374027399e+00 1.359707473226992418e-02
4.536900201952022144e+03 1.126507531342640256e+00 1.567065545525572062e-02
4.541437102153975502e+03 1.242823537097313746e+00 1.677202105317169428e-02
4.545978539256130716e+03 1.346691402185470343e+00 1.500632256824796333e-02
4.550524517795388419e+03 1.433949711848962583e+00 1.289772194307567225e-02
4.555075042313184895e+03 1.497230407414247733e+00 1.392068059865031460e-02
4.559630117355500261e+03 1.536651765412483606e+00 1.766132349353030651e-02
4.564189747472856652e+03 1.565367435011629782e+00 1.875356726554752718e-02
4.568753937220330954e+03 1.584197781172306696e+00 1.783054779868850290e-02
4.573322691157552981e+03 1.593250911635343714e+00 1.499473386180164881e-02
4.577896013848711846e+03 1.602282901202374710e+00 1.278813023255494404e-02
4.582473909862562323e+03 1.614025292381663146e+00 1.301009952564474541e-02
4.587056383772426670e+03 1.636753494838984802e+00 1.426452261411638965e-02
4.591643440156200086e+03 1.664793981738572848e+00 1.322403201031876856e-02
4.596235083596357981e+03 1.692128750866174203e+00 1.070928310470097532e-02
4.600831318679955984e+03 1.713987689076423848e+00 1.010281809138157197e-02
4.605432149998637215e+03 1.728698749578255756e+00 1.122719719437034400e-02
4.610037582148637739e+03 1.743758700727405797e+00 1.141591430068933204e-02
4.614647619730787483e+03 1.751711040735962843e+00 9.757305836209605870e-03
4.619262267350520233e+03 1.761101231788111399e+00 7.560531421348474883e-03
4.623881529617872729e+03 1.775510789949871882e+00 7.828147696687109622e-03
4.628505411147491941e+03 1.795940004566814352e+00 8.596369837813054582e-03
4.633133916558640522e+03 1.818710379877535255e+00 8.032888279070808310e-03
4.637767050475200449e+03 1.833346772198474417e+00 7.058921910143609035e-03
4.642404817525677572e+03 1.838941765409325635e+00 3.884597639745694404e-03
4.647047222343205249e+03 1.827269195368346422e+00 3.214221616050502890e-03
4.651694269565549803e+03 1.796883938436208750e+00 5.577457854612668901e-03
4.656345963835116891e+03 1.754388692904057079e+00 8.023264929376902263e-03
4.661002309798953320e+03 1.706057430819049481e+00 8.682061688094004984e-03
4.665663312108753416e+03 1.659168960463860198e+00 6.983823429251078373e-03
4.670328975420864481e+03 1.624024640905514349e+00 5.800794917248055897e-03
4.674999304396286789e+03 1.596760995532084282e+00 5.637946070333566678e-03
4.679674303700684504e+03 1.580130700700670632e+00 6.434995240574292903e-03
4.684353978004386590e+03 1.572715750536549217e+00 7.243025732950432276e-03
4.689038331982392265e+03 1.570413056868270596e+00 7.147814437135848083e-03
4.693727370314376458e+03 1.572418290079306002e+00 6.591772022863846316e-03
4.698421097684692540e+03 1.574110499474615121e+00 5.550023752496604373e-03
4.703119518782378691e+03 1.569615871192949985e+00 4.683934000804307850e-03
4.707822638301162442e+03 1.561628370056983517e+00 3.873878604763135707e-03
4.712530460939465229e+03 1.542463355551934701e+00 3.849095819156023255e-03
4.717242991400406027e+03 1.511529110757516836e+00 3.265204701439898636e-03
4.721960234391808626e+03 1.473959761555192705e+00 2.164269951275281552e-03
4.726682194626201635e+03 1.433288926846982392e+00 1.924265518346833645e-03
4.731408876820829391e+03 1.390232406159158440e+00 2.333826907441658924e-03
4.736140285697651962e+03 1.347070759675978557e+00 2.498509688226217221e-03
4.740876425983350600e+03 1.302771899119756327e+00 2.639651391242564191e-03
4.745617302409335934e+03 1.258724641644800135e+00 2.431756579019329640e-03
4.750362919711747054e+03 1.217565144954488643e+00 3.435851869109431741e-03
4.755113282631459697e+03 1.179522705591289355e+00 5.839164845312209973e-03
4.759868395914093526e+03 1.141828769634721130e+00 6.961878900462229423e-03
4.764628264310008490e+03 1.099346070187630309e+00 6.411910856297962057e-03
4.769392892574320285e+03 1.049309620054491132e+00 6.057194081467399786e-03
4.774162285466896719e+03 9.937251884466792307e-01 8.644495326220295872e-03
4.778936447752364984e+03 9.395040203999664996e-01 1.204345210123761514e-02
4.783715384200118933e+03 8.936624405261770487e-01 1.417427227528257790e-02
4.788499099584319993e+03 8.653588846454541850e-01 1.370118033724209913e-02
4.793287598683906253e+03 8.622712830876535506e-01 1.103615254789921084e-02
4.798080886282591564e+03 8.910461113250648379e-01 9.153801931765079627e-03
4.802878967168876443e+03 9.484050690383505344e-01 9.706902956471454014e-03
4.807681846136046261e+03 1.039261740621815866e+00 1.326071216693771974e-02
4.812489527982183972e+03 1.154371099005160550e+00 1.659587572205650438e-02
4.817302017510168298e+03 1.278744420305639062e+00 1.677310188575992234e-02
4.822119319527679181e+03 1.393330364891429474e+00 1.324951342928533393e-02
4.826941438847208701e+03 1.484298153006524679e+00 7.969485360756568826e-03
4.831768380286057436e+03 1.537217269091871952e+00 5.993488712426955911e-03
4.836600148666345376e+03 1.555650537337058381e+00 8.602578124771973617e-03
4.841436748815013743e+03 1.536927138585924224e+00 1.409195828478594648e-02
4.846278185563829538e+03 1.495195479406418615e+00 1.771783123085985887e-02
4.851124463749395545e+03 1.447191510914805246e+00 1.790257097697445579e-02
4.855975588213146693e+03 1.409613758012220330e+00 1.530733328787590129e-02
4.860831563801360971e+03 1.395233767148711834e+00 1.131305113154909732e-02
4.865692395365163975e+03 1.413339651095508520e+00 9.688701179756674040e-03
4.870558087760530725e+03 1.464008887774258749e+00 1.134751903688505786e-02
4.875428645848292945e+03 1.545953536904921766e+00 1.345047451889882367e-02
4.880304074494142696e+03 1.652663235842853684e+00 1.393022705823712334e-02
4.885184378568638749e+03 1.770533362327654459e+00 1.192849725862258660e-02
4.890069562947209306e+03 1.884837304919052103e+00 8.863831704131576797e-03
4.894959632510157462e+03 1.984525315635223608e+00 6.032252044551905668e-03
4.899854592142669389e+03 2.056124741555251489e+00 5.041102673034494018e-03
4.904754446734813428e+03 2.098653898275453233e+00 3.466071448459556639e-03
4.909659201181550088e+03 2.102282718970421627e+00 3.141471604294002271e-03
4.914568860382732964e+03 2.065477611087795928e+00 3.016008385616239604e-03
4.919483429243117826e+03 1.990592264185899074e+00 3.593606869455570965e-03
4.924402912672362618e+03 1.883127775916454194e+00 6.797478381696089693e-03
4.929327315585036558e+03 1.750076956665448158e+00 1.109565611459115142e-02
4.934256642900622865e+03 1.602220601298499636e+00 1.422161102787994520e-02
4.939190899543525120e+03 1.454554804865345830e+00 1.500697272274899643e-02
4.944130090443070912e+03 1.322468931098510270e+00 1.361226990458214679e-02
4.949074220533515472e+03 1.221168510245775440e+00 1.030073600320259401e-02
4.954023294754050767e+03 1.162933497177346176e+00 7.427007679448249626e-03
4.958977318048806410e+03 1.154055493490003581e+00 8.798384519631566314e-03
4.963936295366856939e+03 1.191784454091323830e+00 1.186019617155914703e-02
4.968900231662225451e+03 1.271339826878714607e+00 1.432925165785652565e-02
4.973869131893889062e+03 1.382481118925843910e+00 1.442351030721993228e-02
4.978843001025784361e+03 1.509211169776740302e+00 1.207870683585237324e-02
4.983821844026811959e+03 1.636888517261340992e+00 8.533457719029963542e-03
4.988805665870840130e+03 1.753940188853911675e+00 4.804999392393203769e-03
4.993794471536712990e+03 1.849342165807358329e+00 4.095222195871087503e-03
4.998788266008251412e+03 1.918670005334031536e+00 6.104135877604380776e-03
5.003787054274261209e+03 1.962889614467918653e+00 7.172102983394779314e-03
5.008790841328536771e+03 1.986848166493037304e+00 7.324553390669466535e-03
5.013799632169867436e+03 1.994980871426616398e+00 6.370835408440422148e-03
5.018813431802038394e+03 1.989956595762553127e+00 4.608391952868910388e-03
5.023832245233842514e+03 1.976019931123177864e+00 2.982107630742214435e-03
5.028856077479077612e+03 1.957021399633374514e+00 3.733055057019414244e-03
5.033884933556558281e+03 1.931264323091557156e+00 4.757314370875777472e-03
5.038918818490116792e+03 1.895832649722402063e+00 4.859905880044108201e-03
5.043957737308608557e+03 1.849402893342865228e+00 4.299846835350148826e-03
5.049001695045918495e+03 1.791252897572967573e+00 3.259354172908419250e-03
5.054050696740966487e+03 1.719898854362466256e+00 2.244062006980061287e-03
5.059104747437709193e+03 1.633237206093522742e+00 1.811609492633320471e-03
5.064163852185148244e+03 1.531715821578343961e+00 1.929017404150397928e-03
5.069228016037335692e+03 1.417480107303892067e+00 3.047428405627658661e-03
5.074297244053374015e+03 1.294783685884394409e+00 4.678877611613274472e-03
5.079371541297429758e+03 1.171998892090401423e+00 5.912202261078801022e-03
5.084450912838728073e+03 1.057242909583393065e+00 6.282012912926599781e-03
5.089535363751569093e+03 9.609768524807491552e-01 5.496182288715193744e-03
5.094624899115322478e+03 8.855176956744060801e-01 4.574984168555204338e-03
5.099719524014439230e+03 8.342692536075932974e-01 3.997315037583752499e-03
5.104819243538455339e+03 8.096707867917061208e-01 3.821120069765484521e-03
5.109924062781995417e+03 8.136681674739212333e-01 4.075380469011241277e-03
5.115033986844779065e+03 8.443025562113232185e-01 4.430067662428399666e-03
5.120149020831625421e+03 8.999134545187856826e-01 5.116420031717494078e-03
5.125269169852458617e+03 9.775501574400047300e-01 6.136926161562644352e-03
5.130394439022313236e+03 1.066497336239500937e+00 6.752201735584354922e-03
5.135524833461337039e+03 1.154809815545743801e+00 6.455381198763204299e-03
5.140660358294800062e+03 1.234761087196380780e+00 5.804566777716987751e-03
5.145801018653096435e+03 1.302548810622485176e+00 5.889826873370604919e-03
5.150946819671751655e+03 1.357663633959945715e+00 7.214939553672135124e-03
5.156097766491425318e+03 1.400438976973392924e+00 8.583457318781363352e-03
5.161253864257918394e+03 1.438787149635144313e+00 8.622996942503907344e-03
5.166415118122177773e+03 1.469490230702449107e+00 8.220810448728533767e-03
5.171581533240301724e+03 1.492356314076941359e+00 8.008742597618464382e-03
5.176753114773543530e+03 1.506264566441011254e+00 8.225874462534591564e-03
5.181929867888318768e+03 1.510731336999260543e+00 8.260958608240108123e-03
5.187111797756208944e+03 1.509565306898144277e+00 8.398128512601689757e-03
5.192298909553966951e+03 1.503592625773698011e+00 8.625431312356612173e-03
5.197491208463522526e+03 1.495444898039634873e+00 8.983681462252500471e-03
