# starting wavelength: 3712.720
# ending wavelength: 7525.740
# wav flux eflux
3.714870940056121526e+03 2.383010235607715188e+00 1.179430172783161035e-01
3.718585810996179134e+03 2.363633850687613780e+00 8.688085448084401086e-02
3.722304396807176545e+03 2.366136038977862288e+00 6.635246471187450368e-02
3.726026701203984885e+03 2.386558531568832020e+00 5.762317667010268679e-02
3.729752727905190113e+03 2.406199522738459606e+00 4.873568197759865772e-02
3.733482480633096657e+03 2.411717546168752335e+00 3.858139894233848788e-02
3.737215963113731050e+03 2.417092829092035711e+00 3.160606533550194830e-02
3.740953179076846027e+03 2.424799306053365466e+00 2.608514787994380482e-02
3.744694132255923705e+03 2.434032984273413192e+00 2.268975134967552570e-02
3.748438826388181042e+03 2.442253279011847855e+00 1.940981116600314429e-02
3.752187265214570289e+03 2.448289886740868226e+00 1.701531789533199807e-02
3.755939452479786269e+03 2.446238829234488321e+00 1.614750932434782030e-02
3.759695391932267285e+03 2.448640056006306853e+00 1.478493876534049678e-02
3.763455087324201031e+03 2.446802515854911153e+00 1.383550419022576070e-02
3.767218542411526414e+03 2.445678950743022106e+00 1.298996864524906356e-02
3.770985760953939007e+03 2.446196243826193051e+00 1.243384647488524411e-02
3.774756746714894234e+03 2.444965310952675885e+00 1.200347494928436995e-02
3.778531503461610555e+03 2.439899823291512782e+00 1.161699974973429833e-02
3.782310034965073100e+03 2.430478178525436128e+00 1.141217925532866592e-02
3.786092345000039586e+03 2.426149660604792757e+00 1.128495078626378344e-02
3.789878437345040766e+03 2.419193204731451718e+00 1.109574167653080631e-02
3.793668315782387253e+03 2.408720948791915450e+00 1.104301713107061315e-02
3.797461984098170888e+03 2.397018780919219605e+00 1.118329509791577553e-02
3.801259446082270188e+03 2.387445532450829244e+00 1.112167173496632355e-02
3.805060705528353537e+03 2.379226626010682466e+00 1.107913664399432126e-02
3.808865766233883278e+03 2.369639106747844615e+00 1.089921940518013069e-02
3.812674632000118436e+03 2.359547401886156415e+00 1.081397898269389514e-02
3.816487306632119726e+03 2.349625709903570669e+00 1.089612473260418921e-02
3.820303793938753188e+03 2.339432080563193850e+00 1.081611603378000198e-02
3.824124097732693372e+03 2.330238203079938675e+00 1.073265369281906426e-02
3.827948221830427428e+03 2.317354738317116691e+00 1.073215774432999259e-02
3.831776170052258749e+03 2.298398132345091494e+00 1.030287511037878724e-02
3.835607946222312421e+03 2.286435087865746230e+00 1.041583229084930978e-02
3.839443554168536139e+03 2.276243688029033763e+00 1.033260158781168329e-02
3.843282997722705659e+03 2.269074278363125252e+00 1.012707110466056111e-02
3.847126280720429804e+03 2.267778365341167834e+00 9.978315606293305245e-03
3.850973407001151372e+03 2.258723955422256680e+00 9.794736840393775471e-03
3.854824380408153957e+03 2.247818225329766939e+00 9.797871399766474795e-03
3.858679204788563311e+03 2.232785822610374282e+00 8.890522296484022757e-03
3.862537883993353262e+03 2.220521671862724755e+00 8.915391616422674997e-03
3.866400421877347981e+03 2.214497643894619117e+00 8.593925814234827654e-03
3.870266822299226533e+03 2.211269899774009673e+00 8.838443811624714999e-03
3.874137089121526969e+03 2.209030541341600706e+00 8.382544893423854448e-03
3.878011226210649966e+03 2.199793060803660438e+00 8.381176695974658711e-03
3.881889237436861549e+03 2.188854025634579870e+00 8.634788769987218962e-03
3.885771126674299921e+03 2.172963845958211238e+00 8.603448824557128824e-03
3.889656897800975457e+03 2.155816641091168773e+00 8.412546441114731460e-03
3.893546554698777527e+03 2.143693766176632653e+00 8.535342783461635427e-03
3.897440101253477678e+03 2.124803899516130912e+00 8.970086174530069595e-03
3.901337541354732366e+03 2.106381957654061665e+00 9.187657726291436830e-03
3.905238878896088409e+03 2.086954211725931430e+00 9.091639681517469512e-03
3.909144117774985716e+03 2.071202699772920042e+00 9.526441545827105811e-03
3.913053261892762293e+03 2.057194869051334418e+00 9.372768417338013178e-03
3.916966315154656058e+03 2.042264146449487949e+00 9.034190068766214179e-03
3.920883281469812118e+03 2.032383823289831692e+00 8.836553781395460952e-03
3.924804164751283224e+03 2.022479414539516185e+00 8.697220718220781757e-03
3.928728968916035683e+03 2.017289557701281488e+00 8.756624860978248076e-03
3.932657697884953450e+03 2.022150942432026532e+00 9.019906721123776422e-03
3.936590355582839493e+03 2.026842064323805648e+00 9.201033091074013737e-03
3.940526945938423523e+03 2.038082468846984074e+00 9.161604288224262441e-03
3.944467472884363360e+03 2.053210635366631731e+00 9.273037262916917003e-03
3.948411940357249023e+03 2.072119510180295165e+00 9.688996108111204084e-03
3.952360352297607733e+03 2.092469579065535878e+00 9.831203622463252981e-03
3.956312712649906643e+03 2.111635895906315064e+00 9.786363589861953732e-03
3.960269025362557841e+03 2.134987896055027701e+00 9.189190928380079268e-03
3.964229294387921527e+03 2.156645698107064746e+00 9.272307178125955424e-03
3.968193523682310570e+03 2.172122781874588515e+00 9.464317344341518709e-03
3.972161717205994591e+03 2.181135803242838733e+00 9.348214692438447382e-03
3.976133878923201792e+03 2.192323667035635637e+00 9.267952638980739288e-03
3.980110012802126221e+03 2.205257478197388821e+00 9.370394793687527799e-03
3.984090122814929600e+03 2.219251252459013557e+00 9.362818783564624825e-03
3.988074212937745870e+03 2.231039361758221595e+00 9.412211100687659787e-03
3.992062287150684824e+03 2.238208474582117358e+00 9.214883733392785839e-03
3.996054349437837118e+03 2.247017086467601565e+00 9.580148003023571113e-03
4.000050403787276082e+03 2.256828553285631145e+00 9.377248102351493086e-03
4.004050454191064546e+03 2.253844607445690595e+00 9.013263213925804679e-03
4.008054504645257111e+03 2.256618893616264110e+00 8.833560872106540479e-03
4.012062559149903791e+03 2.253470403347540341e+00 8.926638994441305971e-03
4.016074621709055009e+03 2.250064531527374179e+00 8.695108373313636951e-03
4.020090696330765240e+03 2.243357626219882661e+00 8.903378553075099594e-03
4.024110787027097558e+03 2.234902755230190774e+00 9.111210785552629685e-03
4.028134897814125907e+03 2.227401279544143353e+00 9.190697129256934425e-03
4.032163032711941469e+03 2.224788931834876138e+00 9.518471633569391965e-03
4.036195195744654484e+03 2.210276814954859059e+00 8.634172199645059886e-03
4.040231390940400615e+03 2.204160928693899013e+00 8.874060261245032138e-03
4.044271622331342314e+03 2.196375181108666474e+00 8.728497610545784061e-03
4.048315893953675186e+03 2.186196978194911544e+00 8.721653985093466219e-03
4.052364209847629809e+03 2.178012001749049187e+00 8.498491915520380371e-03
4.056416574057479011e+03 2.170736623241231289e+00 8.357974619215021925e-03
4.060472990631537868e+03 2.167491912872627768e+00 8.263781208693053715e-03
4.064533463622170530e+03 2.151069371782428963e+00 9.102031175528673204e-03
4.068597997085794304e+03 2.146718637821547482e+00 9.395871937179736677e-03
4.072666595082881486e+03 2.140741033054953224e+00 9.174911999579614397e-03
4.076739261677965715e+03 2.137389014401884335e+00 9.718268647243949801e-03
4.080816000939644709e+03 2.129005950191285912e+00 9.571248237946805570e-03
4.084896816940585722e+03 2.128330560055676113e+00 9.616324000065958402e-03
4.088981713757527814e+03 2.120795163173556208e+00 9.475654588612950069e-03
4.093070695471286854e+03 2.113322270375795231e+00 9.404292363272058128e-03
4.097163766166759160e+03 2.101555642891083320e+00 9.515298734030615962e-03
4.101260929932927866e+03 2.086403341022981195e+00 9.451700967191768027e-03
4.105362190862862008e+03 2.070006157764820554e+00 8.983755209115323534e-03
4.109467553053726078e+03 2.051757183593288847e+00 9.055509761095117266e-03
4.113577020606780934e+03 2.031794133383620693e+00 9.268399292129504696e-03
4.117690597627389252e+03 2.001726152346078536e+00 1.019375886386810620e-02
4.121808288225018259e+03 1.981809870899791548e+00 1.017686089265223449e-02
4.125930096513244280e+03 1.969388499464086006e+00 1.043157252605251238e-02
4.130056026609759101e+03 1.949475106518570477e+00 1.050171470438008084e-02
4.134186082636369974e+03 1.933133539226944864e+00 1.041459589621811579e-02
4.138320268719007800e+03 1.923248987353937789e+00 1.055368668739760374e-02
4.142458588987728035e+03 1.915884049236733055e+00 1.068779180823519435e-02
4.146601047576717065e+03 1.901344412980072063e+00 9.903919531442949287e-03
4.150747648624294925e+03 1.891847916038683408e+00 9.852207025079471464e-03
4.154898396272920763e+03 1.890586325680608359e+00 9.877606536232413220e-03
4.159053294669195566e+03 1.886078705885032125e+00 9.734737832838758279e-03
4.163212347963865795e+03 1.882820456826157951e+00 9.571358752325903260e-03
4.167375560311830668e+03 1.876522602338940526e+00 9.930344371357747307e-03
4.171542935872143971e+03 1.871631937794273393e+00 9.707174411403694803e-03
4.175714478808017702e+03 1.865529983974938411e+00 9.244325975902549161e-03
4.179890193286827525e+03 1.862625393519505845e+00 9.497430490032033462e-03
4.184070083480115500e+03 1.862363231007269082e+00 9.276711279194882476e-03
4.188254153563597356e+03 1.864677451284894039e+00 8.779765908911985745e-03
4.192442407717161586e+03 1.867850949679356498e+00 8.671124916382950965e-03
4.196634850124880359e+03 1.860981583825496166e+00 8.116883101303113551e-03
4.200831484975006788e+03 1.855590931538686039e+00 8.233962796279673327e-03
4.205032316459983122e+03 1.855556812327100236e+00 7.398084516801684864e-03
4.209237348776444378e+03 1.843868514831778382e+00 7.623928544882071189e-03
4.213446586125221984e+03 1.837309880622200353e+00 7.543708085701649434e-03
4.217660032711349231e+03 1.827537175263859170e+00 7.500228506050970502e-03
4.221877692744061278e+03 1.826422727939126300e+00 7.384430831649075981e-03
4.226099570436806971e+03 1.829636178241850875e+00 7.659772652158706834e-03
4.230325670007245208e+03 1.828108959694502822e+00 7.760406558149799891e-03
4.234555995677254032e+03 1.831427089517002615e+00 6.972828241862507812e-03
4.238790551672932452e+03 1.832382842454071126e+00 6.870957949817587881e-03
4.243029342224606808e+03 1.831026858731327200e+00 6.733381591179692961e-03
4.247272371566832589e+03 1.827780375592066964e+00 6.787708571721984795e-03
4.251519643938400804e+03 1.825426231933261256e+00 6.284556286730070412e-03
4.255771163582340705e+03 1.824199548839866125e+00 6.292997805901518957e-03
4.260026934745924336e+03 1.825738865583281356e+00 6.334922163882313745e-03
4.264286961680671993e+03 1.821660843349401704e+00 6.347369692328785722e-03
4.268551248642354039e+03 1.818764136317063684e+00 6.326893356593874321e-03
4.272819799890998183e+03 1.822926616595440974e+00 7.101593268464051131e-03
4.277092619690890388e+03 1.827212091101046099e+00 7.039799743500073370e-03
4.281369712310583054e+03 1.830604046687930531e+00 6.481168972239961107e-03
4.285651082022895025e+03 1.823391332238000873e+00 6.982740297784552526e-03
4.289936733104918858e+03 1.819315038423346298e+00 6.914226215643601813e-03
4.294226669838025373e+03 1.818113494311986544e+00 6.735389679845525841e-03
4.298520896507864563e+03 1.808938975909364810e+00 5.714265540730078391e-03
4.302819417404373780e+03 1.803546289358949117e+00 5.776752598194712096e-03
4.307122236821779552e+03 1.802889147328154529e+00 5.977699225319124850e-03
4.311429359058603040e+03 1.799965344021866143e+00 6.240290420585856840e-03
4.315740788417662770e+03 1.795646466772070848e+00 6.360229708602979475e-03
4.320056529206081905e+03 1.795916792567557430e+00 6.293865829290780194e-03
4.324376585735290064e+03 1.792323663710156501e+00 6.302536860732461076e-03
4.328700962321026054e+03 1.790122456884892799e+00 6.593759820938100737e-03
4.333029663283348782e+03 1.787635327057100376e+00 6.641039369500155790e-03
4.337362692946633615e+03 1.778362991652271408e+00 7.220991201992422309e-03
4.341700055639581478e+03 1.771452031407144467e+00 7.227639017003088286e-03
4.346041755695222491e+03 1.761557425806203225e+00 6.832794331648886846e-03
4.350387797450919606e+03 1.759252132116148726e+00 6.729082753532324157e-03
4.354738185248371337e+03 1.756520883679087763e+00 6.565331246105861156e-03
4.359092923433621763e+03 1.758613933302201504e+00 6.111323901882525361e-03
4.363452016357056891e+03 1.765103395210893433e+00 6.514565074677726615e-03
4.367815468373414660e+03 1.764614531863567537e+00 6.343752224387595555e-03
4.372183283841789489e+03 1.765204334477734616e+00 6.394044651719725698e-03
4.376555467125633186e+03 1.767729329020632179e+00 6.463971740310495845e-03
4.380932022592760404e+03 1.768217283585330479e+00 6.437552761833897214e-03
4.385312954615354101e+03 1.769554481048691619e+00 6.540919518286273347e-03
4.389698267569970994e+03 1.763254288432047012e+00 6.692931402396116482e-03
4.394087965837542470e+03 1.755413469771709201e+00 6.410323958875194413e-03
4.398482053803381859e+03 1.745290292398590681e+00 6.306844300939250768e-03
4.402880535857186260e+03 1.733191455703349648e+00 6.029780661155889794e-03
4.407283416393044718e+03 1.722693948769351335e+00 5.886729362908495189e-03
4.411690699809440048e+03 1.715949860495015189e+00 5.703005692962960158e-03
4.416102390509250654e+03 1.710655967399273392e+00 5.484677732446428464e-03
4.420518492899761441e+03 1.706508177016731409e+00 5.080943524513919368e-03
4.424939011392662906e+03 1.705701307565258951e+00 5.186577455723101991e-03
4.429363950404056595e+03 1.702695733973662584e+00 5.312050997453159583e-03
4.433793314354462382e+03 1.706947528823606897e+00 5.300492002656771034e-03
4.438227107668818462e+03 1.711154580789994606e+00 5.375908010821534196e-03
4.442665334776488635e+03 1.713374616905048331e+00 5.529998912331184936e-03
4.447108000111265937e+03 1.716279613988846320e+00 5.786932646274891949e-03
4.451555108111379013e+03 1.720609247347761883e+00 5.784513344903485788e-03
4.456006663219492111e+03 1.729153069355830130e+00 5.660510163405121573e-03
4.460462669882713271e+03 1.739138021057201389e+00 5.780893839174131715e-03
4.464923132552597053e+03 1.750521785040473954e+00 5.749155706870128987e-03
4.469388055685150903e+03 1.762677851334477852e+00 5.505868823183174970e-03
4.473857443740837880e+03 1.772924767696716586e+00 5.660065894766341463e-03
4.478331301184580298e+03 1.785537640960536798e+00 5.513869985910800284e-03
4.482809632485766087e+03 1.796856107555622417e+00 5.472501507212811089e-03
4.487292442118253348e+03 1.804005474414047239e+00 5.490296782231784099e-03
4.491779734560373072e+03 1.815361309951875723e+00 5.503403413024776300e-03
4.496271514294934605e+03 1.821606474175061052e+00 5.471905018178372000e-03
4.500767785809231100e+03 1.828350822807934817e+00 5.507427210242155785e-03
4.505268553595042249e+03 1.831459224192434121e+00 5.570339151968218064e-03
4.509773822148638828e+03 1.833793051079633418e+00 5.737038005296047315e-03
4.514283595970789065e+03 1.839171688404481753e+00 5.924992931256439603e-03
4.518797879566761367e+03 1.848088771669747388e+00 5.766234482778375726e-03
4.523316677446328868e+03 1.856755576382156603e+00 5.500599133643629263e-03
4.527839994123776705e+03 1.862811252155240904e+00 5.484224726713184637e-03
4.532367834117902021e+03 1.867998271417752099e+00 5.252392719735975504e-03
4.536900201952022144e+03 1.871560237974914553e+00 4.934776187780813561e-03
4.541437102153975502e+03 1.882403783872145242e+00 5.373193314765733510e-03
4.545978539256130716e+03 1.889290510637937404e+00 5.113649123783582835e-03
4.550524517795388419e+03 1.893026735233656055e+00 5.078639391735662381e-03
4.555075042313184895e+03 1.897723959470350108e+00 5.106755272385314973e-03
4.559630117355500261e+03 1.897203233690577084e+00 5.317236370512822170e-03
4.564189747472856652e+03 1.900076892095754699e+00 5.367237845194092194e-03
4.568753937220330954e+03 1.895803526543025752e+00 5.339193571035927635e-03
4.573322691157552981e+03 1.883689471812308280e+00 5.663133313003270754e-03
4.577896013848711846e+03 1.876199837554021421e+00 5.601310419919491509e-03
4.582473909862562323e+03 1.863588548682798107e+00 5.706232604302731437e-03
4.587056383772426670e+03 1.857770975717855766e+00 5.695004330991182417e-03
4.591643440156200086e+03 1.848546984171499874e+00 5.791710841959000176e-03
4.596235083596357981e+03 1.841652805816495375e+00 5.914334309332538141e-03
4.600831318679955984e+03 1.835462854301740832e+00 5.981270247672266713e-03
4.605432149998637215e+03 1.831129757457973906e+00 5.465703464384689264e-03
4.610037582148637739e+03 1.818482697022741013e+00 5.677534160942714590e-03
4.614647619730787483e+03 1.804534510807331182e+00 5.776735525649177687e-03
4.619262267350520233e+03 1.791241222969920610e+00 5.714670082620346148e-03
4.623881529617872729e+03 1.777988591598301804e+00 5.711025692881115980e-03
4.628505411147491941e+03 1.767263745904443573e+00 5.564414244041876283e-03
4.633133916558640522e+03 1.753922879016277525e+00 5.275222919703680818e-03
4.637767050475200449e+03 1.741324589865340888e+00 5.268468049278878830e-03
4.642404817525677572e+03 1.727831778774148397e+00 5.057769373442317154e-03
4.647047222343205249e+03 1.712195122225356636e+00 5.221817343496044234e-03
4.651694269565549803e+03 1.706187397866620881e+00 4.622043590144672871e-03
4.656345963835116891e+03 1.698147605892632805e+00 4.548246825230081898e-03
4.661002309798953320e+03 1.687633831797703765e+00 4.760679073642451811e-03
4.665663312108753416e+03 1.682835735902017849e+00 4.819606465724132587e-03
4.670328975420864481e+03 1.673971328290701610e+00 4.705468453571374880e-03
4.674999304396286789e+03 1.668870483997960452e+00 4.737759968057891034e-03
4.679674303700684504e+03 1.660264248749522720e+00 4.480784470228462747e-03
4.684353978004386590e+03 1.658768866021573585e+00 4.485046369700733913e-03
4.689038331982392265e+03 1.653865555910329022e+00 4.353885739914754513e-03
4.693727370314376458e+03 1.647208150836838358e+00 4.583804515592614093e-03
4.698421097684692540e+03 1.641098815197583605e+00 4.675221143801560307e-03
4.703119518782378691e+03 1.635725857780261583e+00 4.525184707126957487e-03
4.707822638301162442e+03 1.629210286666474827e+00 4.548606889045221299e-03
4.712530460939465229e+03 1.627098194573808554e+00 4.829313586831914668e-03
4.717242991400406027e+03 1.628226103457445229e+00 5.472340614492842911e-03
4.721960234391808626e+03 1.626553134766896225e+00 5.455105733985693428e-03
4.726682194626201635e+03 1.629510901499165110e+00 5.535392478253415259e-03
4.731408876820829391e+03 1.627553583341078802e+00 5.581699922471569479e-03
4.736140285697651962e+03 1.623373733954523779e+00 5.691326984388934973e-03
4.740876425983350600e+03 1.617609026623301416e+00 5.826905103792162643e-03
4.745617302409335934e+03 1.612176037475811397e+00 5.745190248400910797e-03
4.750362919711747054e+03 1.605568891501878648e+00 5.630043659801784763e-03
4.755113282631459697e+03 1.599962210256333339e+00 5.575145001825936204e-03
4.759868395914093526e+03 1.591062067257258628e+00 5.402193722520062455e-03
4.764628264310008490e+03 1.581061370246829911e+00 5.297691101036915151e-03
4.769392892574320285e+03 1.575010755565982912e+00 5.237333462995264789e-03
4.774162285466896719e+03 1.572186570442734910e+00 5.011497486875984148e-03
4.778936447752364984e+03 1.571744672797864562e+00 4.976446518287667813e-03
4.783715384200118933e+03 1.566544917479301136e+00 5.151214354368506207e-03
4.788499099584319993e+03 1.562091154982377272e+00 5.074388053739053127e-03
4.793287598683906253e+03 1.557236880113543886e+00 5.076295025475817402e-03
4.798080886282591564e+03 1.551492268779667283e+00 4.959977818294365390e-03
4.802878967168876443e+03 1.545927719686910340e+00 4.913258757830290917e-03
4.807681846136046261e+03 1.545223412196494284e+00 4.549421589340471930e-03
4.812489527982183972e+03 1.543061319965464140e+00 4.809424167380761672e-03
4.817302017510168298e+03 1.542893742087729114e+00 4.241420088178124610e-03
4.822119319527679181e+03 1.538534072345601578e+00 4.358051855945772532e-03
4.826941438847208701e+03 1.530135915591825491e+00 4.332512837854834292e-03
4.831768380286057436e+03 1.527881486710287451e+00 4.571920395311638609e-03
4.836600148666345376e+03 1.520139723903227047e+00 4.568621267621157146e-03
