# starting wavelength: 3790.940
# ending wavelength: 7433.230
# wav flux eflux
3.793668315782387253e+03 1.675239226076247867e+00 3.805813019450521306e-01
3.797461984098170888e+03 1.628471668583855836e+00 2.993955427519406354e-01
3.801259446082270188e+03 1.592888141588316708e+00 2.278556537725647535e-01
3.805060705528353537e+03 1.605031843864539010e+00 1.792682699428445325e-01
3.808865766233883278e+03 1.620131549697815920e+00 1.390590359903919881e-01
3.812674632000118436e+03 1.636708676408515473e+00 1.169533248226155286e-01
3.816487306632119726e+03 1.680526431437194601e+00 9.925442701224575226e-02
3.820303793938753188e+03 1.718740766891447835e+00 8.205610371241016388e-02
3.824124097732693372e+03 1.753285295757626150e+00 6.982013512161103219e-02
3.827948221830427428e+03 1.778450049113451392e+00 6.235214983912303055e-02
3.831776170052258749e+03 1.808752890333732877e+00 5.482330000999591918e-02
3.835607946222312421e+03 1.845514604507800360e+00 4.996346166250666826e-02
3.839443554168536139e+03 1.855942189887064941e+00 4.699804171328513663e-02
3.843282997722705659e+03 1.864481026742989878e+00 4.557028548717956956e-02
3.847126280720429804e+03 1.876532514550425690e+00 4.377733575088135765e-02
3.850973407001151372e+03 1.893929068376519531e+00 4.198015175771465518e-02
3.854824380408153957e+03 1.920711507927591821e+00 4.078834868309661604e-02
3.858679204788563311e+03 1.947318376585710720e+00 3.903516690156074581e-02
3.862537883993353262e+03 1.962021606455586653e+00 3.886929855076780987e-02
3.866400421877347981e+03 1.970891250593491240e+00 3.934131701422750177e-02
3.870266822299226533e+03 1.982377228522639978e+00 3.894426613330998627e-02
3.874137089121526969e+03 1.991399629739533994e+00 3.865130181182863806e-02
3.878011226210649966e+03 1.999809653251048314e+00 3.893841260020915185e-02
3.881889237436861549e+03 2.018443589403965177e+00 3.873341437812694715e-02
3.885771126674299921e+03 2.032948179181566672e+00 3.531769352132362039e-02
3.889656897800975457e+03 2.033425064096094914e+00 3.481092166474672456e-02
3.893546554698777527e+03 2.043924093223282945e+00 3.383764546246201266e-02
3.897440101253477678e+03 2.060692079884033578e+00 3.327515248229150763e-02
3.901337541354732366e+03 2.059551508257499997e+00 3.295956238411476558e-02
3.905238878896088409e+03 2.060500784326748214e+00 3.350800694843088234e-02
3.909144117774985716e+03 2.053807414266411779e+00 3.384940518427361628e-02
3.913053261892762293e+03 2.042595115943065309e+00 3.431879196560366080e-02
3.916966315154656058e+03 2.037259633106043744e+00 3.421132950994452276e-02
3.920883281469812118e+03 2.015276103612162473e+00 3.086760575509131174e-02
3.924804164751283224e+03 1.994082268758927912e+00 2.805444604866487099e-02
3.928728968916035683e+03 1.986188511388997657e+00 2.836929508262352184e-02
3.932657697884953450e+03 1.975092538567692735e+00 2.886082407247205980e-02
3.936590355582839493e+03 1.960152372064515980e+00 2.837254120057022128e-02
3.940526945938423523e+03 1.951808090857517497e+00 2.700885478162705355e-02
3.944467472884363360e+03 1.957961178198781127e+00 2.414036884714877707e-02
3.948411940357249023e+03 1.948923862243242988e+00 2.374008792365894446e-02
3.952360352297607733e+03 1.942733733183019895e+00 2.352851103570618302e-02
3.956312712649906643e+03 1.936975811930379265e+00 2.358397141544556555e-02
3.960269025362557841e+03 1.940536874353707919e+00 2.046498839543197182e-02
3.964229294387921527e+03 1.933153233767404888e+00 1.910263293113695707e-02
3.968193523682310570e+03 1.912128264019452573e+00 1.806025838018726626e-02
3.972161717205994591e+03 1.891008615400826542e+00 1.756042718378650683e-02
3.976133878923201792e+03 1.878085968794687366e+00 1.784374606182704756e-02
3.980110012802126221e+03 1.872918948751216783e+00 1.681838799331542011e-02
3.984090122814929600e+03 1.851841946663048244e+00 1.807398093413998055e-02
3.988074212937745870e+03 1.832046811233907890e+00 1.624724168557861032e-02
3.992062287150684824e+03 1.818348933010116575e+00 1.544119262265461305e-02
3.996054349437837118e+03 1.802432781613462875e+00 1.461157250022963525e-02
4.000050403787276082e+03 1.795338768279179931e+00 1.451792021258582581e-02
4.004050454191064546e+03 1.802576687398358191e+00 1.396890637247624918e-02
4.008054504645257111e+03 1.807196869068671052e+00 1.444661806606230108e-02
4.012062559149903791e+03 1.814977846249703042e+00 1.397604177840551000e-02
4.016074621709055009e+03 1.825161249981957834e+00 1.283796916313969735e-02
4.020090696330765240e+03 1.830542892958348933e+00 1.191508221046690998e-02
4.024110787027097558e+03 1.848599869668094309e+00 1.347128879921358213e-02
4.028134897814125907e+03 1.856102925399288672e+00 1.357890080654971035e-02
4.032163032711941469e+03 1.855307379775678278e+00 1.410022334428956067e-02
4.036195195744654484e+03 1.856946238946870942e+00 1.455230254595366209e-02
4.040231390940400615e+03 1.857072484492598319e+00 1.393642896075926278e-02
4.044271622331342314e+03 1.845096366825015766e+00 1.344523001976590318e-02
4.048315893953675186e+03 1.837757080904981244e+00 1.330493573994976676e-02
4.052364209847629809e+03 1.832056405237912244e+00 1.322399881743244882e-02
4.056416574057479011e+03 1.819492461060086219e+00 1.362267723336415756e-02
4.060472990631537868e+03 1.818385981893348990e+00 1.317278692804261901e-02
4.064533463622170530e+03 1.817463339302567427e+00 1.357267896363624667e-02
4.068597997085794304e+03 1.817657683382128520e+00 1.363596291854025401e-02
4.072666595082881486e+03 1.822075724155117982e+00 1.466820085175088613e-02
4.076739261677965715e+03 1.827108510035912570e+00 1.467792006245588129e-02
4.080816000939644709e+03 1.827255716671531971e+00 1.470247256366948550e-02
4.084896816940585722e+03 1.830448967360273294e+00 1.345236299496465650e-02
4.088981713757527814e+03 1.827134034221510328e+00 1.381911503780711842e-02
4.093070695471286854e+03 1.825928520644966468e+00 1.227830319314294691e-02
4.097163766166759160e+03 1.811840754361541794e+00 1.375879939644229603e-02
4.101260929932927866e+03 1.802437622334165601e+00 1.351370480304608240e-02
4.105362190862862008e+03 1.790740665895619532e+00 1.379534889682183622e-02
4.109467553053726078e+03 1.776966417234666640e+00 1.357869569333325539e-02
4.113577020606780934e+03 1.756253486466403668e+00 1.214415504280131480e-02
4.117690597627389252e+03 1.749644031459712368e+00 1.158097307524950416e-02
4.121808288225018259e+03 1.741901063424237117e+00 1.118533083390423413e-02
4.125930096513244280e+03 1.731176067554814457e+00 1.145823862137350206e-02
4.130056026609759101e+03 1.718206097048617043e+00 1.160404656311257894e-02
4.134186082636369974e+03 1.712631386883114226e+00 1.158150822518148361e-02
4.138320268719007800e+03 1.708255513086669009e+00 1.144330579106736870e-02
4.142458588987728035e+03 1.704994682463467637e+00 1.171777666305259639e-02
4.146601047576717065e+03 1.701770286657642073e+00 1.076688302476011549e-02
4.150747648624294925e+03 1.698540765791482832e+00 1.102164868586118056e-02
4.154898396272920763e+03 1.694180138720580153e+00 1.100409012336634601e-02
4.159053294669195566e+03 1.692904200310291651e+00 1.166922006747506818e-02
4.163212347963865795e+03 1.697310416921861354e+00 1.112283467765202115e-02
4.167375560311830668e+03 1.702126963925098435e+00 1.230566464872980340e-02
4.171542935872143971e+03 1.704162423098237067e+00 1.234090179991280574e-02
4.175714478808017702e+03 1.697701486434821661e+00 1.211114866436195647e-02
4.179890193286827525e+03 1.684559345101692251e+00 1.199169699078441419e-02
4.184070083480115500e+03 1.664635951600964336e+00 1.174765018434293339e-02
4.188254153563597356e+03 1.647417573188506124e+00 1.229652402356936312e-02
4.192442407717161586e+03 1.633284934373262276e+00 1.206255280747830366e-02
4.196634850124880359e+03 1.617901940308151820e+00 1.160175475918485445e-02
4.200831484975006788e+03 1.609474819032321369e+00 1.151783389063963138e-02
4.205032316459983122e+03 1.596785236644056472e+00 1.202885332985635138e-02
4.209237348776444378e+03 1.594011991752962931e+00 1.188668022432521308e-02
4.213446586125221984e+03 1.588291715575236962e+00 1.091859139153996197e-02
4.217660032711349231e+03 1.588035876187521511e+00 1.115219203269313467e-02
4.221877692744061278e+03 1.600245231637341892e+00 1.078427207080969938e-02
4.226099570436806971e+03 1.618836698315692990e+00 1.114425054280945328e-02
4.230325670007245208e+03 1.638551628008092287e+00 1.069157944905554415e-02
4.234555995677254032e+03 1.648131033863089456e+00 1.042485702751176115e-02
4.238790551672932452e+03 1.660418973728525538e+00 1.031364404037773096e-02
4.243029342224606808e+03 1.675776830186098465e+00 1.069683342299099921e-02
4.247272371566832589e+03 1.686757927649486621e+00 9.530541189773918814e-03
4.251519643938400804e+03 1.687685890281075185e+00 1.026094659721686272e-02
4.255771163582340705e+03 1.687757059439534579e+00 1.107609337759670777e-02
4.260026934745924336e+03 1.687897668420542230e+00 1.198690939894761845e-02
4.264286961680671993e+03 1.690796841361499991e+00 1.098844092684470378e-02
4.268551248642354039e+03 1.691282073032574162e+00 8.978856872610413084e-03
4.272819799890998183e+03 1.709151512122508043e+00 1.104315110394688861e-02
4.277092619690890388e+03 1.723812108590330183e+00 1.130919432485927301e-02
4.281369712310583054e+03 1.736483447180024564e+00 1.039102635097438956e-02
4.285651082022895025e+03 1.749322504924352817e+00 1.028613992499071740e-02
4.289936733104918858e+03 1.762243996864985895e+00 9.380585484515969324e-03
4.294226669838025373e+03 1.769130535816274108e+00 9.256388072108722581e-03
4.298520896507864563e+03 1.768758707136457442e+00 9.178782650922038405e-03
4.302819417404373780e+03 1.764042777566569242e+00 9.419440642827332441e-03
4.307122236821779552e+03 1.759589984206215485e+00 9.566521245306391225e-03
4.311429359058603040e+03 1.754654335765060358e+00 8.883305200928878764e-03
4.315740788417662770e+03 1.743965334862071392e+00 7.718215835845309257e-03
4.320056529206081905e+03 1.738616231618615116e+00 7.124098650290398502e-03
4.324376585735290064e+03 1.735711721320984946e+00 6.685400418685059042e-03
4.328700962321026054e+03 1.732397097460296465e+00 6.775762852343194566e-03
4.333029663283348782e+03 1.733804271444295164e+00 6.794735731362174479e-03
4.337362692946633615e+03 1.738476169139036243e+00 7.769312170670323800e-03
4.341700055639581478e+03 1.733564004502391009e+00 8.284753462157744969e-03
4.346041755695222491e+03 1.737197130316401994e+00 8.719238912886754719e-03
4.350387797450919606e+03 1.742171244410128050e+00 9.249668888704683581e-03
4.354738185248371337e+03 1.746022819162046380e+00 8.937777386734589713e-03
4.359092923433621763e+03 1.744232118872298898e+00 9.268439756629097762e-03
4.363452016357056891e+03 1.740617405374385696e+00 9.877490054791814370e-03
4.367815468373414660e+03 1.745849648635305229e+00 9.856034895261158238e-03
4.372183283841789489e+03 1.750097828217507034e+00 9.826993096547862599e-03
4.376555467125633186e+03 1.754732765032442021e+00 9.605160551322969656e-03
4.380932022592760404e+03 1.759309133514846746e+00 9.538622541941280120e-03
4.385312954615354101e+03 1.769799779674294582e+00 1.106701718353962118e-02
4.389698267569970994e+03 1.771317204422775404e+00 1.094578145415454895e-02
4.394087965837542470e+03 1.771575305982752147e+00 1.012174352528097399e-02
4.398482053803381859e+03 1.768732685753235279e+00 1.043688736641596414e-02
4.402880535857186260e+03 1.760482907572000322e+00 1.060664731443687440e-02
4.407283416393044718e+03 1.749802261861053809e+00 1.102446339410709589e-02
4.411690699809440048e+03 1.740080828555971681e+00 1.040926121226812794e-02
4.416102390509250654e+03 1.729539616187015794e+00 1.039540234672743473e-02
4.420518492899761441e+03 1.721072371277191149e+00 9.924195710448401736e-03
4.424939011392662906e+03 1.707564013273074721e+00 8.911609267895369974e-03
4.429363950404056595e+03 1.705913854879449687e+00 8.532092997225041928e-03
4.433793314354462382e+03 1.698956164660166523e+00 8.486836785331210858e-03
4.438227107668818462e+03 1.700880731860536121e+00 6.993274673458140661e-03
4.442665334776488635e+03 1.694471531887573823e+00 7.142937980875152179e-03
4.447108000111265937e+03 1.684756147856169006e+00 6.916955612645605059e-03
4.451555108111379013e+03 1.679065732353890228e+00 6.930545446022229328e-03
4.456006663219492111e+03 1.667102777165914818e+00 6.863992357429941731e-03
4.460462669882713271e+03 1.653008475144542855e+00 6.820853983291897543e-03
4.464923132552597053e+03 1.634899609557356692e+00 6.960340408389485180e-03
4.469388055685150903e+03 1.615648666642282461e+00 7.822830938798172248e-03
4.473857443740837880e+03 1.599689867437774415e+00 7.359984175939388029e-03
4.478331301184580298e+03 1.586807465980836440e+00 7.512236360787231948e-03
4.482809632485766087e+03 1.574425886499337235e+00 7.841214885584868455e-03
4.487292442118253348e+03 1.557823857614278662e+00 7.914239266212187707e-03
4.491779734560373072e+03 1.544656107039698245e+00 7.706743704688317521e-03
4.496271514294934605e+03 1.536179850066555330e+00 7.678177719874404450e-03
4.500767785809231100e+03 1.529689686754404532e+00 7.518604493100215086e-03
4.505268553595042249e+03 1.525962247707571606e+00 7.457262690634024888e-03
4.509773822148638828e+03 1.528191598258063166e+00 7.627001303972110943e-03
4.514283595970789065e+03 1.529794935822999413e+00 7.511672426385468219e-03
4.518797879566761367e+03 1.528514053203408496e+00 7.355086728021501853e-03
4.523316677446328868e+03 1.529039677249242279e+00 7.266240120267049990e-03
4.527839994123776705e+03 1.528147151588366004e+00 6.958121108439620402e-03
4.532367834117902021e+03 1.526497263502562429e+00 6.935894897342258399e-03
4.536900201952022144e+03 1.525360550746083232e+00 6.775504670501935126e-03
4.541437102153975502e+03 1.526690872473829508e+00 6.760775980567203941e-03
4.545978539256130716e+03 1.525901325048966140e+00 6.601411882939571887e-03
4.550524517795388419e+03 1.525088850570182286e+00 6.479512603801368918e-03
4.555075042313184895e+03 1.516368578889081942e+00 4.984065924316654662e-03
4.559630117355500261e+03 1.514008594328927648e+00 4.681338969684376364e-03
4.564189747472856652e+03 1.519112581907292148e+00 4.966280446940717075e-03
4.568753937220330954e+03 1.526539213739531720e+00 6.032015637463138645e-03
4.573322691157552981e+03 1.523286963550023243e+00 6.255639858811075545e-03
4.577896013848711846e+03 1.512865205464956952e+00 8.069151345146416757e-03
4.582473909862562323e+03 1.508412878262723300e+00 8.509207633743669924e-03
4.587056383772426670e+03 1.505706164303047156e+00 7.925156411717169946e-03
4.591643440156200086e+03 1.501709358343500167e+00 7.941372421442055227e-03
4.596235083596357981e+03 1.503953409492650550e+00 8.289530434048087218e-03
4.600831318679955984e+03 1.502975141383856572e+00 8.812271472423416352e-03
4.605432149998637215e+03 1.497799232203384179e+00 8.520438647646285529e-03
4.610037582148637739e+03 1.492994620267468431e+00 8.443481585644630957e-03
4.614647619730787483e+03 1.479042864445666128e+00 8.403977981056246632e-03
4.619262267350520233e+03 1.460478788912615622e+00 8.553287493311726233e-03
4.623881529617872729e+03 1.438552588204262683e+00 9.068129926441872296e-03
4.628505411147491941e+03 1.416317256592227070e+00 9.368628491645155515e-03
4.633133916558640522e+03 1.395366401968892056e+00 9.195690393379264346e-03
4.637767050475200449e+03 1.377488681557475614e+00 9.041972449430064895e-03
4.642404817525677572e+03 1.357237975672605401e+00 7.969552701901886846e-03
4.647047222343205249e+03 1.339512926773677615e+00 7.527741227437401497e-03
4.651694269565549803e+03 1.331625135834235030e+00 6.663819273497188084e-03
4.656345963835116891e+03 1.330322973689455512e+00 5.020127052039045044e-03
4.661002309798953320e+03 1.330452888142564127e+00 4.540611239259632025e-03
4.665663312108753416e+03 1.331072189164020037e+00 4.965420854960743598e-03
4.670328975420864481e+03 1.330555033617397021e+00 5.706679306102090815e-03
4.674999304396286789e+03 1.329230367612192820e+00 5.452307419610748045e-03
4.679674303700684504e+03 1.326407094235690698e+00 5.624562966306990638e-03
4.684353978004386590e+03 1.322399826584287119e+00 5.365746164656194292e-03
4.689038331982392265e+03 1.317591219700443350e+00 5.546646219510835418e-03
4.693727370314376458e+03 1.310383150274523567e+00 5.682319930066542790e-03
4.698421097684692540e+03 1.307000018080179737e+00 6.282821597066309653e-03
4.703119518782378691e+03 1.306212453266961893e+00 5.968368007236122229e-03
4.707822638301162442e+03 1.311432628424824554e+00 5.739748905582787823e-03
4.712530460939465229e+03 1.316001837858884693e+00 5.242857917747812714e-03
4.717242991400406027e+03 1.329626624692192172e+00 5.461489070531839844e-03
4.721960234391808626e+03 1.349267765406195307e+00 6.168175958667402974e-03
4.726682194626201635e+03 1.371471620501299116e+00 5.576623642368518791e-03
4.731408876820829391e+03 1.398905721327546425e+00 5.649239277003813460e-03
4.736140285697651962e+03 1.426087910145856119e+00 5.436667918135137424e-03
4.740876425983350600e+03 1.452437748820060159e+00 5.413660090575633625e-03
4.745617302409335934e+03 1.474089931265674558e+00 5.884662346597764951e-03
4.750362919711747054e+03 1.492679890154467337e+00 6.077923205813497154e-03
4.755113282631459697e+03 1.514715526291856351e+00 5.976451813272581903e-03
4.759868395914093526e+03 1.535031124424190097e+00 5.920245896632370976e-03
4.764628264310008490e+03 1.551650961166845866e+00 5.300717993445244400e-03
4.769392892574320285e+03 1.566875071096574201e+00 5.321195210218605462e-03
4.774162285466896719e+03 1.582438937475590057e+00 6.067943745922240763e-03
4.778936447752364984e+03 1.595664470264798185e+00 6.002401622133796827e-03
4.783715384200118933e+03 1.605669140944506523e+00 5.966057736055712345e-03
4.788499099584319993e+03 1.611794379455655513e+00 5.897555885498753821e-03
4.793287598683906253e+03 1.617768982538491329e+00 5.939445477422275119e-03
4.798080886282591564e+03 1.623409433225694087e+00 5.844079439111127088e-03
4.802878967168876443e+03 1.624554265378928442e+00 5.526301559884273448e-03
4.807681846136046261e+03 1.627633495197227553e+00 5.455709843337658814e-03
4.812489527982183972e+03 1.633129013414444275e+00 5.821637323766480805e-03
4.817302017510168298e+03 1.632719068648917471e+00 5.450939916988564206e-03
4.822119319527679181e+03 1.632836306178608199e+00 5.212808533009176924e-03
4.826941438847208701e+03 1.632219295325444852e+00 4.596023287962392075e-03
4.831768380286057436e+03 1.625259634684208088e+00 4.467770425715609714e-03
4.836600148666345376e+03 1.610618155097423898e+00 5.329391622651005571e-03
4.841436748815013743e+03 1.599275322275753641e+00 5.065963553581419136e-03
4.846278185563829538e+03 1.585135444493272594e+00 5.038164610538812573e-03
4.851124463749395545e+03 1.570979876053029800e+00 4.933044530264629225e-03
4.855975588213146693e+03 1.556022554797225510e+00 4.771061051677948431e-03
4.860831563801360971e+03 1.542380836501059838e+00 4.737904493025786243e-03
4.865692395365163975e+03 1.535502102892084775e+00 4.528960767293942202e-03
4.870558087760530725e+03 1.530211511385701106e+00 4.440530040077132409e-03
4.875428645848292945e+03 1.526496454476987896e+00 4.148577318438219017e-03
4.880304074494142696e+03 1.521375681799652435e+00 4.212835332012713173e-03
4.885184378568638749e+03 1.519296763702213671e+00 4.350606345162824455e-03
4.890069562947209306e+03 1.520967900932712169e+00 4.622273315894505526e-03
4.894959632510157462e+03 1.518468157009168262e+00 4.657186474105726691e-03
4.899854592142669389e+03 1.515235567024523444e+00 4.730779640091866724e-03
4.904754446734813428e+03 1.513041926863342379e+00 4.575015879448126287e-03
4.909659201181550088e+03 1.508032850517083689e+00 4.640578788888713273e-03
4.914568860382732964e+03 1.502761290332881750e+00 4.685085279200030574e-03
4.919483429243117826e+03 1.494796813261537016e+00 4.615471289263066088e-03
4.924402912672362618e+03 1.484899645525955103e+00 4.263526958210638561e-03
4.929327315585036558e+03 1.474641422242591426e+00 4.045348894640883770e-03
4.934256642900622865e+03 1.465338836348151208e+00 3.894536253400995591e-03
4.939190899543525120e+03 1.456998957554680452e+00 4.103897502893632566e-03
