# starting wavelength: 3391.890
# ending wavelength: 7680.640
# wav flux eflux
3.391897186981397681e+03 2.197217722480748758e+00 2.558361439901693513e-02
3.395289084168380214e+03 2.210267860883674995e+00 1.849443408741663006e-02
3.398684373252549449e+03 2.217068805352900185e+00 1.378347019604851155e-02
3.402083057625803121e+03 2.219489506645479615e+00 1.052236943293697463e-02
3.405485140683430018e+03 2.216775743262933585e+00 8.070219369524470054e-03
3.408890625824114522e+03 2.211080862844667649e+00 6.323230360814120765e-03
3.412299516449939802e+03 2.203495974104063393e+00 5.100959611352783030e-03
3.415711815966390986e+03 2.195355260787538398e+00 4.441315802992607670e-03
3.419127527782358356e+03 2.188373535593269192e+00 4.183741901315782795e-03
3.422546655310141887e+03 2.182954944032166278e+00 3.787822267898112698e-03
3.425969201965453522e+03 2.179086668457769882e+00 3.472713803617034131e-03
3.429395171167419903e+03 2.175606763092475582e+00 3.105485255032893084e-03
3.432824566338588284e+03 2.173895429555655401e+00 2.990352449704661904e-03
3.436257390904928343e+03 2.171792889301731311e+00 2.782179858280959834e-03
3.439693648295834464e+03 2.170212510544741846e+00 2.647726083917696129e-03
3.443133341944131189e+03 2.169461221593473876e+00 2.618556909448786860e-03
3.446576475286076402e+03 2.167952424965471803e+00 2.541910180889641029e-03
3.450023051761363604e+03 2.166133279624295582e+00 2.493389539502621766e-03
3.453473074813126004e+03 2.163538417874833808e+00 2.441458771905483192e-03
3.456926547887940615e+03 2.160233424277168357e+00 2.380110598877191279e-03
3.460383474435829612e+03 2.158352294080235545e+00 2.178699604824275819e-03
3.463843857910266706e+03 2.156263772461851858e+00 1.954391242039664554e-03
3.467307701768178049e+03 2.152916804390574868e+00 1.751705301175753059e-03
3.470775009469947236e+03 2.146733350222645331e+00 1.823682131551149395e-03
3.474245784479418489e+03 2.139690975881241908e+00 1.982359245403129185e-03
3.477720030263898934e+03 2.132096668021699948e+00 1.942785314432776732e-03
3.481197750294164052e+03 2.122955748486293093e+00 1.899644748822090518e-03
3.484678948044459503e+03 2.113057352867778071e+00 1.812885858029419407e-03
3.488163626992504760e+03 2.104393511701283526e+00 1.810465039865668743e-03
3.491651790619498570e+03 2.095332477810889493e+00 1.837295309271608831e-03
3.495143442410119405e+03 2.085813282216225417e+00 2.068880225096794874e-03
3.498638585852530468e+03 2.077147844921923170e+00 1.824233362815059220e-03
3.502137224438384237e+03 2.070237311437915118e+00 1.592408659736825301e-03
3.505639361662823831e+03 2.065949905305796808e+00 1.621690279578171445e-03
3.509145001024487556e+03 2.063117441531258756e+00 1.689224398768189063e-03
3.512654146025513455e+03 2.062370142421058095e+00 1.749516018195381621e-03
3.516166800171540217e+03 2.062454806928899043e+00 1.869120508456096393e-03
3.519682966971712631e+03 2.062935240359949240e+00 1.792782431618165397e-03
3.523202649938685681e+03 2.063788970205115536e+00 1.872761608542062575e-03
3.526725852588625457e+03 2.065270979575047239e+00 2.003318384933091070e-03
3.530252578441215064e+03 2.066175813738419187e+00 1.990773305571669465e-03
3.533782831019657806e+03 2.066177275693763526e+00 2.017819774948859547e-03
3.537316613850678550e+03 2.066906396407524937e+00 1.961783179283435683e-03
3.540853930464530094e+03 2.068188985231800725e+00 1.877128499478204933e-03
3.544394784394995895e+03 2.068143411689896904e+00 1.890003990551973470e-03
3.547939179179392340e+03 2.068137513810789141e+00 1.906099460743273036e-03
3.551487118358572843e+03 2.067405289270669577e+00 1.915498898115234380e-03
3.555038605476932389e+03 2.066492718898060410e+00 1.901894803817891482e-03
3.558593644082410719e+03 2.063740706597644525e+00 1.858205486740832245e-03
3.562152237726494150e+03 2.061249647148915454e+00 1.852858962022857839e-03
3.565714389964221937e+03 2.057436763864011198e+00 1.830145024163753716e-03
3.569280104354187188e+03 2.052399379025974469e+00 1.814854657058504687e-03
3.572849384458542772e+03 2.046463930556656319e+00 1.789484594264051636e-03
3.576422233843002232e+03 2.041322714676259586e+00 1.780020331544253202e-03
3.579998656076846601e+03 2.036532279701411152e+00 1.765625939210318076e-03
3.583578654732924406e+03 2.031047018482300626e+00 1.784686353758928789e-03
3.587162233387658489e+03 2.025463442893846722e+00 1.811773813379534545e-03
3.590749395621047370e+03 2.020648578080720181e+00 1.747377801455199560e-03
3.594340145016669794e+03 2.015847754536685521e+00 1.713920489159485991e-03
3.597934485161687462e+03 2.010433215033067711e+00 1.743651012847709583e-03
3.601532419646850485e+03 2.005939040209862245e+00 1.762328626510941722e-03
3.605133952066498296e+03 1.999866494518291349e+00 1.536856258148661374e-03
3.608739086018566013e+03 1.994266995110326679e+00 1.364044655446932644e-03
3.612347825104585809e+03 1.989925763588623830e+00 1.374369810036666067e-03
3.615960172929691907e+03 1.986588497408589893e+00 1.416152710819103397e-03
3.619576133102622407e+03 1.983518165023380408e+00 1.410701222886929498e-03
3.623195709235726554e+03 1.981147286269412611e+00 1.414346791269391942e-03
3.626818904944963379e+03 1.980060853423306177e+00 1.413422486745061690e-03
3.630445723849909427e+03 1.979579578566530884e+00 1.379960656238863551e-03
3.634076169573760581e+03 1.981256699235732111e+00 1.118220559011424671e-03
3.637710245743335690e+03 1.980764940472060198e+00 1.111251552996218427e-03
3.641347955989080219e+03 1.979526352484396234e+00 1.083456402959973117e-03
3.644989303945070333e+03 1.978637743220055478e+00 1.125318162701028583e-03
3.648634293249016537e+03 1.978480019356241737e+00 1.108410703150690879e-03
3.652282927542266862e+03 1.978117711776159915e+00 1.151182318818285517e-03
3.655935210469810499e+03 1.979370489644072695e+00 1.151252260876546888e-03
3.659591145680281443e+03 1.981181167699018975e+00 1.140490961818545462e-03
3.663250736825963031e+03 1.983556874451871677e+00 1.128248832376416155e-03
3.666913987562790226e+03 1.986015486393746476e+00 1.132075024836400479e-03
3.670580901550354156e+03 1.989243187750164621e+00 1.124143677746285933e-03
3.674251482451905758e+03 1.991878335096919139e+00 1.086914359043778455e-03
3.677925733934358959e+03 1.995528782393365175e+00 1.142756643430030590e-03
3.681603659668294313e+03 2.000198800454964676e+00 1.330843157297418753e-03
3.685285263327964003e+03 2.004027090514244325e+00 1.402991505129674117e-03
3.688970548591293209e+03 2.005604290924463573e+00 1.344749695869551119e-03
3.692659519139885560e+03 2.005084404299479317e+00 1.357859315336991867e-03
3.696352178659026777e+03 2.003145641840132107e+00 1.402479568317513805e-03
3.700048530837686940e+03 2.000292886876222198e+00 1.398161141033997176e-03
3.703748579368525952e+03 1.996023403241688809e+00 1.398388001448319954e-03
3.707452327947895355e+03 1.989664384872534164e+00 1.418422553607601080e-03
3.711159780275844696e+03 1.981707398338671933e+00 1.459545637163650426e-03
3.714870940056121526e+03 1.971725952122320935e+00 1.306422426601770844e-03
3.718585810996179134e+03 1.960693276762151438e+00 1.169057052307301324e-03
3.722304396807176545e+03 1.949318542406726529e+00 1.166127545437609233e-03
3.726026701203984885e+03 1.938880007224053070e+00 1.213583882715713307e-03
3.729752727905190113e+03 1.929008848779788510e+00 1.321291197236297435e-03
3.733482480633096657e+03 1.917159478659113514e+00 1.302790767125074686e-03
3.737215963113731050e+03 1.905614220531712588e+00 1.313177328912065994e-03
3.740953179076846027e+03 1.894389002206853467e+00 1.298447054056101925e-03
3.744694132255923705e+03 1.882861471302959444e+00 1.326964444304324373e-03
3.748438826388181042e+03 1.871992746191148749e+00 1.361031779749995001e-03
3.752187265214570289e+03 1.861469922558244505e+00 1.376570312639694869e-03
3.755939452479786269e+03 1.851866281577482898e+00 1.372905200753779054e-03
3.759695391932267285e+03 1.842970994053142464e+00 1.580990614296106820e-03
3.763455087324201031e+03 1.834682356535875192e+00 1.913531784377941938e-03
3.767218542411526414e+03 1.826181814719922913e+00 1.918199340952170566e-03
3.770985760953939007e+03 1.817596100732915998e+00 1.645514679919269588e-03
3.774756746714894234e+03 1.807574720493166032e+00 1.502100484759697797e-03
3.778531503461610555e+03 1.794560065766957146e+00 1.787106656061621807e-03
3.782310034965073100e+03 1.781958976728040600e+00 2.005677258106068183e-03
3.786092345000039586e+03 1.770020441225002461e+00 2.302591206449117450e-03
3.789878437345040766e+03 1.760372464876493570e+00 2.319643961262453456e-03
3.793668315782387253e+03 1.752936499881062593e+00 2.186159004348268726e-03
3.797461984098170888e+03 1.749938837865145924e+00 1.958555276887121582e-03
3.801259446082270188e+03 1.750549272471379814e+00 1.743218289809832754e-03
3.805060705528353537e+03 1.755945617806624170e+00 1.833544989441819161e-03
3.808865766233883278e+03 1.768289803443139574e+00 2.152440208221575654e-03
3.812674632000118436e+03 1.782347626720928391e+00 2.056833124048959571e-03
3.816487306632119726e+03 1.798136299687284945e+00 1.865858862951070814e-03
3.820303793938753188e+03 1.812828375580567863e+00 1.213826715106094446e-03
3.824124097732693372e+03 1.822499335410837418e+00 8.442701850285162096e-04
3.827948221830427428e+03 1.826528753476637013e+00 1.110070965333747510e-03
3.831776170052258749e+03 1.825535240415891769e+00 1.334123438270313697e-03
3.835607946222312421e+03 1.821846043692687545e+00 1.344005459887546994e-03
3.839443554168536139e+03 1.816217230642281466e+00 1.320685230526756800e-03
3.843282997722705659e+03 1.810604834338450209e+00 1.262860418495521855e-03
3.847126280720429804e+03 1.803791536728564848e+00 1.214980339711602218e-03
3.850973407001151372e+03 1.797355331945437840e+00 1.286824342225279362e-03
3.854824380408153957e+03 1.790243651839625194e+00 1.278269410343190480e-03
3.858679204788563311e+03 1.784958360598478455e+00 1.256463754840228932e-03
3.862537883993353262e+03 1.780992586649715825e+00 1.313027378792408278e-03
3.866400421877347981e+03 1.778977230808018284e+00 1.600358846522236715e-03
3.870266822299226533e+03 1.780489792067533106e+00 1.737811981372403393e-03
3.874137089121526969e+03 1.787486213401551227e+00 1.683646122102159344e-03
3.878011226210649966e+03 1.795372980507086602e+00 1.752175213316784289e-03
3.881889237436861549e+03 1.812820049347307672e+00 1.975802496349546560e-03
3.885771126674299921e+03 1.832256044775589343e+00 1.939352561691697801e-03
3.889656897800975457e+03 1.859469026806320979e+00 3.195852006697562104e-03
3.893546554698777527e+03 1.889659506984559201e+00 3.863903186846895290e-03
3.897440101253477678e+03 1.915365253119837741e+00 3.576766922580616390e-03
3.901337541354732366e+03 1.936195156705124099e+00 3.181719425684910018e-03
3.905238878896088409e+03 1.949252878291898972e+00 3.103613854444075681e-03
3.909144117774985716e+03 1.954490423490409023e+00 3.440348452736969199e-03
3.913053261892762293e+03 1.952295260626646600e+00 3.875915750152044391e-03
3.916966315154656058e+03 1.946642510028068207e+00 3.989076735855011727e-03
3.920883281469812118e+03 1.939900568131055048e+00 3.846281322212004913e-03
3.924804164751283224e+03 1.935842583122202143e+00 3.628377730688358681e-03
3.928728968916035683e+03 1.931334758949888819e+00 3.471171686523897085e-03
3.932657697884953450e+03 1.928503778216821285e+00 3.466546515987452889e-03
3.936590355582839493e+03 1.929907146786284500e+00 3.629899056735138088e-03
3.940526945938423523e+03 1.932656657375101394e+00 3.660938241258549896e-03
3.944467472884363360e+03 1.935140673231531050e+00 3.319790065140154536e-03
3.948411940357249023e+03 1.934342871091189853e+00 2.750578850745903029e-03
3.952360352297607733e+03 1.926840140470785556e+00 2.726340208772270578e-03
3.956312712649906643e+03 1.915739193125400641e+00 2.780232613397549870e-03
3.960269025362557841e+03 1.898832365725451110e+00 2.104430907515193652e-03
3.964229294387921527e+03 1.881403947181886860e+00 1.949579231760454907e-03
3.968193523682310570e+03 1.863144695955910812e+00 1.825605607826330610e-03
3.972161717205994591e+03 1.841470314022513044e+00 1.766476233882656628e-03
3.976133878923201792e+03 1.819485572219905700e+00 1.631498618838472543e-03
3.980110012802126221e+03 1.797312667916632023e+00 1.597959008039746094e-03
3.984090122814929600e+03 1.775159128005052933e+00 1.758775442114655614e-03
3.988074212937745870e+03 1.754726268924756916e+00 1.887674792459918642e-03
3.992062287150684824e+03 1.737057661764275451e+00 1.772170827440313094e-03
3.996054349437837118e+03 1.723776066503586168e+00 1.538681128767496742e-03
4.000050403787276082e+03 1.717880925078326682e+00 1.462305285175795420e-03
4.004050454191064546e+03 1.717737905313694968e+00 1.395797574802179431e-03
4.008054504645257111e+03 1.721968523261286910e+00 1.113634876730253348e-03
4.012062559149903791e+03 1.734206990794663561e+00 1.273967188659156421e-03
4.016074621709055009e+03 1.752199320135184868e+00 1.390445359892889280e-03
4.020090696330765240e+03 1.774255737743324790e+00 1.123699215080428866e-03
4.024110787027097558e+03 1.796977857119153033e+00 8.887391262279413376e-04
4.028134897814125907e+03 1.819903760926368186e+00 7.887062260801894209e-04
4.032163032711941469e+03 1.840298412927666938e+00 7.767382957854165751e-04
4.036195195744654484e+03 1.858185212639199557e+00 9.413642567094209542e-04
4.040231390940400615e+03 1.873691140957973067e+00 9.493019108441999197e-04
4.044271622331342314e+03 1.886461312739540652e+00 9.718658475808820323e-04
4.048315893953675186e+03 1.897054645080182178e+00 8.943132867536239799e-04
4.052364209847629809e+03 1.905684057055528458e+00 9.029500287171349183e-04
4.056416574057479011e+03 1.911467609869458739e+00 8.469350693891204750e-04
4.060472990631537868e+03 1.915879570419367628e+00 8.221952710997806023e-04
4.064533463622170530e+03 1.918178766166805715e+00 8.236086842833183555e-04
4.068597997085794304e+03 1.919674279205667133e+00 8.063338865585674507e-04
4.072666595082881486e+03 1.919857639810107930e+00 7.926226942550568602e-04
4.076739261677965715e+03 1.917959822008613369e+00 8.080551379474993582e-04
4.080816000939644709e+03 1.913332516112540294e+00 8.540560578814138104e-04
4.084896816940585722e+03 1.906625512587918791e+00 8.953393987552157917e-04
4.088981713757527814e+03 1.898564386153510197e+00 8.842343252914137237e-04
4.093070695471286854e+03 1.889456882812213800e+00 8.853910260645606869e-04
4.097163766166759160e+03 1.878909335121736079e+00 8.676072415136809645e-04
4.101260929932927866e+03 1.867274848427629363e+00 8.722575624917871780e-04
4.105362190862862008e+03 1.854490168449683285e+00 8.743845688165923207e-04
4.109467553053726078e+03 1.841428259393791622e+00 8.488027412574258379e-04
4.113577020606780934e+03 1.826985005047319532e+00 7.749832620892702388e-04
4.117690597627389252e+03 1.812721083913575892e+00 7.518682385181556845e-04
4.121808288225018259e+03 1.797875743075045163e+00 7.919377052028870158e-04
4.125930096513244280e+03 1.784115114701823934e+00 1.039209622458543182e-03
4.130056026609759101e+03 1.767906402975629288e+00 1.028258480045879776e-03
4.134186082636369974e+03 1.749704224168492139e+00 1.023699923807007981e-03
4.138320268719007800e+03 1.730241806659742698e+00 1.133714158104237460e-03
4.142458588987728035e+03 1.709242230323381628e+00 1.307267340371086328e-03
4.146601047576717065e+03 1.689430281182999538e+00 1.326960583522921247e-03
4.150747648624294925e+03 1.670510278454083286e+00 1.312496708445648084e-03
4.154898396272920763e+03 1.653471056138449358e+00 1.300126691308755873e-03
4.159053294669195566e+03 1.637496337205126773e+00 1.198967177368425504e-03
4.163212347963865795e+03 1.623374258835255990e+00 1.121096547389435023e-03
4.167375560311830668e+03 1.611817243351605589e+00 1.214518482912189772e-03
4.171542935872143971e+03 1.602197639936164153e+00 1.282524600636643234e-03
4.175714478808017702e+03 1.593109841952443873e+00 1.274386717370121387e-03
4.179890193286827525e+03 1.583999268187751053e+00 1.089825389010726621e-03
4.184070083480115500e+03 1.572520564726534342e+00 9.390171772959280457e-04
4.188254153563597356e+03 1.557817859708984454e+00 7.519397388650227382e-04
4.192442407717161586e+03 1.539540873334519722e+00 7.549852388170063275e-04
4.196634850124880359e+03 1.517996416012881822e+00 6.929614211504163748e-04
4.200831484975006788e+03 1.494030492911565755e+00 6.203870106580526957e-04
4.205032316459983122e+03 1.469688975186415059e+00 7.405363399932388298e-04
4.209237348776444378e+03 1.445007946190370429e+00 1.020275384224896215e-03
4.213446586125221984e+03 1.422063847692105920e+00 1.223055328044228953e-03
4.217660032711349231e+03 1.402057505086751199e+00 1.326329710669741160e-03
4.221877692744061278e+03 1.387862753858277509e+00 1.278413340259699051e-03
4.226099570436806971e+03 1.382961270090779182e+00 1.057400151299161791e-03
4.230325670007245208e+03 1.387912885805806962e+00 9.052511356552417430e-04
4.234555995677254032e+03 1.403511380859916891e+00 1.105252081319764651e-03
4.238790551672932452e+03 1.428122650299479712e+00 1.367814051723556176e-03
4.243029342224606808e+03 1.461134788322733025e+00 1.673627889328736535e-03
4.247272371566832589e+03 1.500148130495531085e+00 1.769819913861981047e-03
4.251519643938400804e+03 1.543102126419886755e+00 1.594946485325540253e-03
4.255771163582340705e+03 1.586755572456112429e+00 1.266785956562409884e-03
4.260026934745924336e+03 1.629547421314747169e+00 8.830676005325980085e-04
4.264286961680671993e+03 1.669413614420438785e+00 6.891960491315088583e-04
4.268551248642354039e+03 1.704154521811523937e+00 7.890165209685789547e-04
4.272819799890998183e+03 1.733800620669688319e+00 8.007852221530247470e-04
4.277092619690890388e+03 1.758360606548555527e+00 8.466142616581115009e-04
4.281369712310583054e+03 1.779101105901216506e+00 7.860312145484819229e-04
4.285651082022895025e+03 1.796523998128946920e+00 6.389060116371024804e-04
4.289936733104918858e+03 1.811330581556929387e+00 5.773740411650932170e-04
4.294226669838025373e+03 1.823298387782836594e+00 5.649168700136416926e-04
4.298520896507864563e+03 1.833108208642628689e+00 5.886301124683389297e-04
4.302819417404373780e+03 1.839077340351065404e+00 5.588352746392090918e-04
4.307122236821779552e+03 1.843373243813763107e+00 6.322130217473088823e-04
4.311429359058603040e+03 1.845277750663645522e+00 6.627224753968233902e-04
4.315740788417662770e+03 1.844058031793641028e+00 6.453562945776275149e-04
4.320056529206081905e+03 1.839590595003382623e+00 7.349522340470336862e-04
4.324376585735290064e+03 1.833131991993848242e+00 7.731195016663400428e-04
4.328700962321026054e+03 1.824824719952514496e+00 7.812101927583205456e-04
4.333029663283348782e+03 1.814852372035200112e+00 7.864741156941495786e-04
4.337362692946633615e+03 1.803191348682880779e+00 8.880763175937678123e-04
4.341700055639581478e+03 1.789538196280573867e+00 9.577694063489290309e-04
4.346041755695222491e+03 1.774635641674936926e+00 9.429552457184791877e-04
4.350387797450919606e+03 1.757044810157233572e+00 9.061369395737594928e-04
4.354738185248371337e+03 1.737623555327724612e+00 9.183718825197579759e-04
4.359092923433621763e+03 1.716441962905663310e+00 1.120748527904330029e-03
4.363452016357056891e+03 1.694733930289284984e+00 1.273863246813762866e-03
4.367815468373414660e+03 1.673919568011246417e+00 1.348019183203867655e-03
4.372183283841789489e+03 1.655516829663529865e+00 1.337810059923988555e-03
4.376555467125633186e+03 1.640356139995483575e+00 1.108815405139647065e-03
4.380932022592760404e+03 1.630187945908265990e+00 1.254170687254968193e-03
4.385312954615354101e+03 1.622795574147391395e+00 1.446055496549213983e-03
4.389698267569970994e+03 1.619320105331342186e+00 1.534050835210255034e-03
4.394087965837542470e+03 1.618062907877622969e+00 1.248065624764224972e-03
4.398482053803381859e+03 1.617743100023955716e+00 9.572424137943944412e-04
4.402880535857186260e+03 1.617311752266668679e+00 7.812759513447868056e-04
4.407283416393044718e+03 1.615829320818303216e+00 8.216636197931466391e-04
4.411690699809440048e+03 1.613239750060211586e+00 8.453237343529846010e-04
4.416102390509250654e+03 1.610165571969575105e+00 8.302486876264025513e-04
