# starting wavelength: 3440.900
# ending wavelength: 9769.480
# wav flux eflux
3.443133341944131189e+03 6.154706145046140442e-02 3.240986857661731224e-01
3.446576475286076402e+03 -1.335065151835770347e-01 2.727691608757179531e-01
3.450023051761363604e+03 -1.844867344788128083e-01 2.099678605127801023e-01
3.453473074813126004e+03 -7.904016026881910406e-02 1.608022393634166436e-01
3.456926547887940615e+03 1.668342088294574310e-01 1.276074208828583967e-01
3.460383474435829612e+03 4.860567569060059157e-01 1.089917407103278696e-01
3.463843857910266706e+03 8.243854565987267513e-01 1.037444282142458152e-01
3.467307701768178049e+03 1.129118977481806230e+00 9.568606208348970354e-02
3.470775009469947236e+03 1.386930944166523627e+00 9.093580253861885399e-02
3.474245784479418489e+03 1.581879773719741422e+00 8.833377443359392844e-02
3.477720030263898934e+03 1.739143588253412975e+00 8.119230993190591772e-02
3.481197750294164052e+03 1.859545434422075427e+00 7.468427906544125583e-02
3.484678948044459503e+03 1.963135767323179515e+00 6.824098052484975363e-02
3.488163626992504760e+03 2.038436376552773766e+00 6.337157344314739427e-02
3.491651790619498570e+03 2.073957558368315190e+00 5.998125231842624250e-02
3.495143442410119405e+03 2.084458212586733694e+00 5.762149886160702200e-02
3.498638585852530468e+03 2.066836312176639101e+00 5.632342109923464679e-02
3.502137224438384237e+03 2.014558374728178780e+00 5.656333652212989366e-02
3.505639361662823831e+03 1.958063668247566058e+00 5.728053775546560616e-02
3.509145001024487556e+03 1.866237338330731355e+00 5.768244707540139127e-02
3.512654146025513455e+03 1.759135822606700428e+00 5.424146251442607536e-02
3.516166800171540217e+03 1.654771381575731448e+00 4.911637033056977936e-02
3.519682966971712631e+03 1.575617585432250944e+00 4.539386746332688821e-02
3.523202649938685681e+03 1.509402380431271506e+00 4.307293245116803476e-02
3.526725852588625457e+03 1.472639693441102571e+00 4.406108562458338485e-02
3.530252578441215064e+03 1.455376701743543943e+00 4.747308342747912080e-02
3.533782831019657806e+03 1.458182507609208090e+00 4.911332821190186187e-02
3.537316613850678550e+03 1.499449680670036811e+00 4.694721853431010894e-02
3.540853930464530094e+03 1.529181713063183290e+00 4.392995224840598456e-02
3.544394784394995895e+03 1.564779478173662142e+00 3.997055797862172216e-02
3.547939179179392340e+03 1.590872697710177253e+00 3.661824318794888733e-02
3.551487118358572843e+03 1.605957261645145850e+00 3.508299232255754352e-02
3.555038605476932389e+03 1.613388356564340542e+00 3.462161364439584471e-02
3.558593644082410719e+03 1.592037945779409380e+00 3.409249251369676076e-02
3.562152237726494150e+03 1.549060629579277482e+00 3.251427932043440133e-02
3.565714389964221937e+03 1.512468841044418255e+00 3.244974721656429528e-02
3.569280104354187188e+03 1.481355947508330440e+00 3.203451558148012746e-02
3.572849384458542772e+03 1.471225058037323619e+00 3.217544101575266213e-02
3.576422233843002232e+03 1.468403574459121508e+00 3.162391275279118064e-02
3.579998656076846601e+03 1.467853584984105231e+00 3.173341474740871276e-02
3.583578654732924406e+03 1.476598310628238098e+00 3.168089679115276835e-02
3.587162233387658489e+03 1.481467357097900672e+00 3.187776934969942244e-02
3.590749395621047370e+03 1.477824695523821674e+00 3.172334127417922311e-02
3.594340145016669794e+03 1.469121454809253047e+00 3.142272977262883932e-02
3.597934485161687462e+03 1.445234667502469650e+00 3.026345124700320979e-02
3.601532419646850485e+03 1.425897655715582024e+00 2.971605841080842900e-02
3.605133952066498296e+03 1.416595136297662982e+00 2.970723017421924086e-02
3.608739086018566013e+03 1.423424079692900968e+00 2.808758068295226853e-02
3.612347825104585809e+03 1.437552756312345137e+00 2.568348549679739384e-02
3.615960172929691907e+03 1.456211978201154444e+00 2.312660418605875720e-02
3.619576133102622407e+03 1.468231781187190332e+00 2.224751636855367906e-02
3.623195709235726554e+03 1.473221214857866057e+00 2.276391675422707178e-02
3.626818904944963379e+03 1.470607015590991384e+00 2.317288195380161689e-02
3.630445723849909427e+03 1.453013680999034163e+00 2.219618203029580239e-02
3.634076169573760581e+03 1.431643354087800191e+00 1.917848085694335430e-02
3.637710245743335690e+03 1.422785945104898531e+00 1.661993101937101619e-02
3.641347955989080219e+03 1.414747761482941790e+00 1.423676354339544620e-02
3.644989303945070333e+03 1.424125940490990505e+00 1.512048166290732437e-02
3.648634293249016537e+03 1.448042084630009940e+00 1.757203509193731514e-02
3.652282927542266862e+03 1.484806033425392302e+00 1.914460379798431020e-02
3.655935210469810499e+03 1.507749258732912656e+00 2.038089211545373106e-02
3.659591145680281443e+03 1.538328022859195787e+00 2.094699019250765085e-02
3.663250736825963031e+03 1.555376597058754085e+00 1.959232235846864942e-02
3.666913987562790226e+03 1.554594135756039774e+00 1.796184827358503211e-02
3.670580901550354156e+03 1.538492686697455980e+00 1.755525363253744586e-02
3.674251482451905758e+03 1.506808705931862447e+00 1.873637224555541048e-02
3.677925733934358959e+03 1.471395407166891989e+00 2.136600786533302335e-02
3.681603659668294313e+03 1.413458467835184695e+00 2.582572098688397030e-02
3.685285263327964003e+03 1.350292748500579787e+00 2.755199515682207889e-02
3.688970548591293209e+03 1.292088371958932891e+00 2.811830622402046106e-02
3.692659519139885560e+03 1.253514102989062406e+00 2.697693901612725764e-02
3.696352178659026777e+03 1.224633400500223068e+00 2.216916502540759379e-02
3.700048530837686940e+03 1.232199389104884135e+00 2.093726126112682717e-02
3.703748579368525952e+03 1.256653264764834743e+00 2.204554087224354364e-02
3.707452327947895355e+03 1.306606151406881855e+00 2.420163609110957334e-02
3.711159780275844696e+03 1.367243771144362796e+00 2.590252676249195016e-02
3.714870940056121526e+03 1.447602144456290540e+00 2.704107696839329680e-02
3.718585810996179134e+03 1.532245746404714337e+00 2.726911394834449776e-02
3.722304396807176545e+03 1.628249315819957577e+00 2.622025307377735467e-02
3.726026701203984885e+03 1.723914438586103604e+00 2.453105193251501823e-02
3.729752727905190113e+03 1.819383668536037613e+00 2.227892071724542344e-02
3.733482480633096657e+03 1.910554196500473978e+00 1.983569598944822515e-02
3.737215963113731050e+03 1.993000264168112157e+00 1.892153547684739812e-02
3.740953179076846027e+03 2.059060758864840857e+00 1.888868292637675694e-02
3.744694132255923705e+03 2.106187786404110085e+00 1.960037639000595036e-02
3.748438826388181042e+03 2.126425673445617726e+00 1.965107460903244702e-02
3.752187265214570289e+03 2.136406782491443224e+00 1.818864256478301689e-02
3.755939452479786269e+03 2.139022224024406782e+00 1.548121779984469766e-02
3.759695391932267285e+03 2.138502258338696116e+00 1.286446907422399664e-02
3.763455087324201031e+03 2.137888760262185883e+00 1.200449098601626997e-02
3.767218542411526414e+03 2.141895527717423420e+00 1.233456218953462268e-02
3.770985760953939007e+03 2.154612914560904979e+00 1.254464054371362894e-02
3.774756746714894234e+03 2.167572615648269974e+00 1.129690102202324416e-02
3.778531503461610555e+03 2.174004463190747583e+00 1.011143412256518617e-02
3.782310034965073100e+03 2.174860370493321593e+00 8.411769129225341729e-03
3.786092345000039586e+03 2.165273013849635220e+00 8.226276809396807638e-03
3.789878437345040766e+03 2.145434946391686637e+00 9.054172480903973849e-03
3.793668315782387253e+03 2.115574638540791863e+00 8.424780157053918250e-03
3.797461984098170888e+03 2.082565486515303377e+00 7.314548036325490069e-03
3.801259446082270188e+03 2.045092985655311502e+00 5.843817820488411002e-03
3.805060705528353537e+03 2.008228355072048110e+00 5.124906177939530551e-03
3.808865766233883278e+03 1.978230163177596701e+00 5.210240354419372853e-03
3.812674632000118436e+03 1.947693515897313654e+00 5.195800456696863905e-03
3.816487306632119726e+03 1.915834279366683823e+00 5.255951593783445182e-03
3.820303793938753188e+03 1.888045867252468479e+00 5.511521512404635344e-03
3.824124097732693372e+03 1.856755782274485345e+00 5.557422826764970084e-03
3.827948221830427428e+03 1.826081794648189982e+00 5.851986856925494966e-03
3.831776170052258749e+03 1.794412267777340864e+00 6.609179578631639747e-03
3.835607946222312421e+03 1.756696749781554878e+00 6.650403950475078027e-03
3.839443554168536139e+03 1.719858571543710690e+00 5.643207716207916669e-03
3.843282997722705659e+03 1.674813043559017611e+00 4.631329531541408980e-03
3.847126280720429804e+03 1.620847414986612112e+00 4.362780881558741934e-03
3.850973407001151372e+03 1.554601301302713567e+00 4.687765236551968105e-03
3.854824380408153957e+03 1.479309770747171182e+00 5.211028300270676740e-03
3.858679204788563311e+03 1.404753933237000041e+00 5.425486043222530787e-03
3.862537883993353262e+03 1.332871978385543610e+00 5.250812779872825707e-03
3.866400421877347981e+03 1.261075448680994082e+00 5.191607149625902806e-03
3.870266822299226533e+03 1.188481227942335572e+00 5.122804425867791452e-03
3.874137089121526969e+03 1.123881885159844884e+00 5.267524973046530494e-03
3.878011226210649966e+03 1.067404022465217039e+00 5.359448600897683337e-03
3.881889237436861549e+03 1.014195799034498080e+00 5.323823669060244804e-03
3.885771126674299921e+03 9.679159794675135098e-01 5.294410339607787466e-03
3.889656897800975457e+03 9.307999852447828015e-01 5.560605522164714827e-03
3.893546554698777527e+03 9.074699992161039397e-01 6.226692943424210966e-03
3.897440101253477678e+03 9.050100049122971058e-01 6.622716262363116321e-03
3.901337541354732366e+03 9.195148628338576380e-01 7.438642820999450365e-03
3.905238878896088409e+03 9.557641946377590791e-01 7.332096607436353573e-03
3.909144117774985716e+03 1.017922132834617743e+00 7.166834598345528905e-03
3.913053261892762293e+03 1.096768981389868225e+00 6.704628712319027350e-03
3.916966315154656058e+03 1.198075920577662767e+00 6.458088154347244036e-03
3.920883281469812118e+03 1.327728310197171524e+00 7.077839357075889522e-03
3.924804164751283224e+03 1.476737231262130523e+00 8.032771668103819845e-03
3.928728968916035683e+03 1.643329743155473199e+00 8.082082889545941229e-03
3.932657697884953450e+03 1.819264084652046920e+00 7.681687830570390653e-03
3.936590355582839493e+03 2.002478324652266828e+00 6.675690622223425311e-03
3.940526945938423523e+03 2.190737357848163480e+00 6.941855435319228829e-03
3.944467472884363360e+03 2.369234440954722132e+00 7.248180355242043148e-03
3.948411940357249023e+03 2.528625691801550612e+00 7.173881874644361285e-03
3.952360352297607733e+03 2.665722121567685399e+00 7.493904352689996148e-03
3.956312712649906643e+03 2.783449852541085789e+00 7.202265777909997932e-03
3.960269025362557841e+03 2.867474750617412305e+00 6.914570194193586650e-03
3.964229294387921527e+03 2.910206929364848705e+00 6.994312121585506345e-03
3.968193523682310570e+03 2.919108831564475093e+00 7.486759429465840443e-03
3.972161717205994591e+03 2.898511457074792297e+00 8.349559451101263435e-03
3.976133878923201792e+03 2.848668208873053942e+00 9.083438779370031288e-03
3.980110012802126221e+03 2.775272879768184708e+00 9.523498772212243835e-03
3.984090122814929600e+03 2.676913599011596645e+00 9.667851623387244478e-03
3.988074212937745870e+03 2.571337892937416658e+00 9.142246162980822988e-03
3.992062287150684824e+03 2.462551635035097775e+00 7.712742931486810290e-03
3.996054349437837118e+03 2.357261608385160301e+00 6.809297025508856925e-03
4.000050403787276082e+03 2.261999063576060731e+00 6.735096697891524396e-03
4.004050454191064546e+03 2.174242916221320598e+00 6.497549475177807725e-03
4.008054504645257111e+03 2.104891067982081143e+00 6.707540885826435324e-03
4.012062559149903791e+03 2.049731160594281842e+00 5.198702578976710682e-03
4.016074621709055009e+03 2.006149509337292081e+00 4.505803670108055048e-03
4.020090696330765240e+03 1.967539173256563689e+00 6.168109874490844066e-03
4.024110787027097558e+03 1.928051701376326310e+00 7.106135895303877445e-03
4.028134897814125907e+03 1.887390076261368899e+00 6.073478116831897665e-03
4.032163032711941469e+03 1.840772962554305670e+00 5.733381882371222163e-03
4.036195195744654484e+03 1.791108795070298187e+00 5.733514436444332382e-03
4.040231390940400615e+03 1.741316463471605180e+00 6.392614125881472369e-03
4.044271622331342314e+03 1.688877004387908443e+00 1.021545007677489986e-02
4.048315893953675186e+03 1.643124120920874676e+00 1.224032144089262468e-02
4.052364209847629809e+03 1.623921165556672097e+00 1.138288228702414619e-02
4.056416574057479011e+03 1.634115178256667633e+00 9.809916375775933062e-03
4.060472990631537868e+03 1.679213959673050205e+00 1.000641992933239133e-02
4.064533463622170530e+03 1.749765231182808911e+00 1.058488818859360664e-02
4.068597997085794304e+03 1.845544667402607253e+00 1.157349609163107335e-02
4.072666595082881486e+03 1.969133237693980298e+00 1.245522581619987537e-02
4.076739261677965715e+03 2.101029286653218531e+00 1.161907065281665360e-02
4.080816000939644709e+03 2.231619018653545172e+00 9.206927431293511488e-03
4.084896816940585722e+03 2.337369550567011345e+00 8.731815262759245327e-03
4.088981713757527814e+03 2.431911114534518248e+00 8.612773921256620252e-03
4.093070695471286854e+03 2.497550118932893248e+00 8.581839549279560164e-03
4.097163766166759160e+03 2.534655665441873484e+00 8.846635930895246566e-03
4.101260929932927866e+03 2.536499845752969051e+00 8.916329304412936446e-03
4.105362190862862008e+03 2.507258608008738232e+00 9.003874507141625821e-03
4.109467553053726078e+03 2.451303871527422462e+00 9.031918705310415865e-03
4.113577020606780934e+03 2.377715144032176653e+00 9.515633769086623284e-03
4.117690597627389252e+03 2.301634742931597088e+00 9.980417358244984133e-03
4.121808288225018259e+03 2.212910707019287493e+00 1.139550991949133014e-02
4.125930096513244280e+03 2.124024498471848599e+00 1.002038887188772161e-02
4.130056026609759101e+03 2.054830679545479377e+00 8.467131790078168824e-03
4.134186082636369974e+03 2.011401372114257846e+00 8.376559416319668411e-03
4.138320268719007800e+03 1.995024733470918576e+00 8.834522368929688049e-03
4.142458588987728035e+03 1.990625290577257456e+00 8.799448259329554003e-03
4.146601047576717065e+03 2.018028601879160444e+00 9.293854174695199977e-03
4.150747648624294925e+03 2.068400920307554181e+00 9.075206907323562361e-03
4.154898396272920763e+03 2.124353101272106858e+00 8.010797520468730670e-03
4.159053294669195566e+03 2.174051327151056423e+00 7.569803746134911616e-03
4.163212347963865795e+03 2.199566249401388784e+00 7.630131262843124068e-03
4.167375560311830668e+03 2.211681252785915319e+00 7.370718988914031454e-03
4.171542935872143971e+03 2.198837462991215741e+00 6.944347580886521196e-03
4.175714478808017702e+03 2.158789365658045689e+00 8.825079807504040627e-03
4.179890193286827525e+03 2.095912122072618455e+00 1.218771837381815888e-02
4.184070083480115500e+03 2.027218679447276628e+00 1.457437096234365584e-02
4.188254153563597356e+03 1.971458006402916574e+00 1.461161511981009208e-02
4.192442407717161586e+03 1.940079787674909184e+00 1.277644837863570540e-02
4.196634850124880359e+03 1.937199631065823491e+00 1.147235799006947853e-02
4.200831484975006788e+03 1.965417756558771156e+00 1.169219553981229107e-02
4.205032316459983122e+03 2.025769441962428807e+00 1.499961727049181279e-02
4.209237348776444378e+03 2.111993403261389179e+00 1.729695794994938127e-02
4.213446586125221984e+03 2.201858223191347275e+00 1.591894411848603780e-02
4.217660032711349231e+03 2.270872078927115290e+00 1.185292676565404164e-02
4.221877692744061278e+03 2.304598533337194333e+00 9.047408905830880629e-03
4.226099570436806971e+03 2.291012543891013831e+00 9.196488465054549616e-03
4.230325670007245208e+03 2.241199975818450874e+00 9.794292780224384681e-03
4.234555995677254032e+03 2.149014661392277148e+00 9.880570223659825013e-03
4.238790551672932452e+03 2.015851096172688983e+00 9.330071236504670559e-03
4.243029342224606808e+03 1.857057547473045300e+00 6.907430331603532821e-03
4.247272371566832589e+03 1.701534327664062207e+00 5.003638509817409132e-03
4.251519643938400804e+03 1.553265160625883601e+00 4.786655497006278917e-03
4.255771163582340705e+03 1.410640619220738579e+00 4.911250623037401869e-03
4.260026934745924336e+03 1.282918815910010002e+00 5.315480675597491177e-03
4.264286961680671993e+03 1.179536737383228617e+00 5.286760113868574883e-03
4.268551248642354039e+03 1.104104462785216345e+00 5.302841469014023777e-03
4.272819799890998183e+03 1.060397772804309247e+00 5.353832526022572931e-03
4.277092619690890388e+03 1.046731214457442105e+00 5.435300352385438218e-03
4.281369712310583054e+03 1.066104547790968526e+00 4.806240317487150970e-03
4.285651082022895025e+03 1.122475087007765993e+00 4.768370740686626690e-03
4.289936733104918858e+03 1.217003876656826300e+00 4.821648915179618279e-03
4.294226669838025373e+03 1.353302039580053462e+00 6.367329788230980184e-03
4.298520896507864563e+03 1.508934401706825801e+00 8.285756983729327188e-03
4.302819417404373780e+03 1.671422330617042817e+00 9.066918215937049691e-03
4.307122236821779552e+03 1.837120291045409859e+00 1.049011568186975635e-02
4.311429359058603040e+03 1.991532580334377078e+00 9.771878348386097216e-03
4.315740788417662770e+03 2.112416669580117201e+00 7.262660042403075618e-03
4.320056529206081905e+03 2.186113262058980933e+00 8.731753157554275266e-03
4.324376585735290064e+03 2.226284952078470436e+00 1.064166516904839661e-02
4.328700962321026054e+03 2.238173124654540214e+00 1.175817996336395860e-02
4.333029663283348782e+03 2.231426219090252072e+00 1.229925840199281445e-02
4.337362692946633615e+03 2.204923767763830256e+00 1.120629440169797209e-02
4.341700055639581478e+03 2.170715314005907892e+00 7.981554027239030555e-03
4.346041755695222491e+03 2.147113311186799489e+00 7.721178758494993792e-03
4.350387797450919606e+03 2.129269037302855772e+00 8.098735528127329331e-03
4.354738185248371337e+03 2.116139893337951605e+00 7.965487089033610607e-03
4.359092923433621763e+03 2.113802440627530643e+00 7.331671678575324078e-03
4.363452016357056891e+03 2.120119194436353549e+00 5.810975940695906929e-03
4.367815468373414660e+03 2.123679128600088895e+00 5.552631653876479584e-03
4.372183283841789489e+03 2.119652992520714818e+00 5.596630772635955223e-03
4.376555467125633186e+03 2.115901087937688718e+00 5.635802208783178766e-03
4.380932022592760404e+03 2.108464340535082027e+00 5.714625696946517078e-03
4.385312954615354101e+03 2.089235601212934945e+00 5.310708341264765500e-03
4.389698267569970994e+03 2.072461303416119893e+00 5.306586773236359779e-03
4.394087965837542470e+03 2.059981944358972861e+00 4.433294373506358604e-03
4.398482053803381859e+03 2.036836113588137653e+00 4.470158245828393349e-03
4.402880535857186260e+03 2.003909652409422204e+00 5.667060732400344171e-03
4.407283416393044718e+03 1.975424864711208039e+00 5.695933830571749644e-03
4.411690699809440048e+03 1.954852368307745669e+00 5.672597563284216722e-03
4.416102390509250654e+03 1.928061775225153207e+00 5.758344547828744484e-03
4.420518492899761441e+03 1.914053109565698074e+00 5.471275038910326620e-03
4.424939011392662906e+03 1.912641141095286601e+00 6.342802359338589949e-03
4.429363950404056595e+03 1.921124578522319215e+00 6.823165529792749560e-03
4.433793314354462382e+03 1.924945822230277548e+00 6.359390499493350682e-03
4.438227107668818462e+03 1.925558834873227765e+00 6.351841767420022059e-03
4.442665334776488635e+03 1.926364346353379498e+00 6.181023351326341182e-03
4.447108000111265937e+03 1.921655465646759486e+00 6.012317604553724451e-03
4.451555108111379013e+03 1.910200402504617756e+00 6.152999153486550001e-03
4.456006663219492111e+03 1.888147662359710877e+00 6.175373631445500548e-03
4.460462669882713271e+03 1.863665410257485666e+00 5.965080999057952027e-03
4.464923132552597053e+03 1.840998343487632694e+00 5.876162432069778271e-03
4.469388055685150903e+03 1.815399945577742535e+00 5.862160602456227207e-03
4.473857443740837880e+03 1.785228198158289370e+00 5.855943109094991460e-03
4.478331301184580298e+03 1.762693261826565383e+00 5.750512793583015432e-03
4.482809632485766087e+03 1.742159911124109284e+00 5.717113377226424806e-03
