# starting wavelength: 3938.590
# ending wavelength: 7431.240
# wav flux eflux
3.940526945938423523e+03 1.059319887184232645e+00 1.995442051926595850e-01
3.944467472884363360e+03 1.084497150752179007e+00 1.430150986632707788e-01
3.948411940357249023e+03 1.110714664360653581e+00 1.074652081105884477e-01
3.952360352297607733e+03 1.137088538021900241e+00 8.208319689544538167e-02
3.956312712649906643e+03 1.168819649262293758e+00 6.582958629226266789e-02
3.960269025362557841e+03 1.193216501020915477e+00 5.400336242094403577e-02
3.964229294387921527e+03 1.207697217136900258e+00 4.661727926962087876e-02
3.968193523682310570e+03 1.211112297006414318e+00 3.824141349105362325e-02
3.972161717205994591e+03 1.212790862060554531e+00 3.348789539806936583e-02
3.976133878923201792e+03 1.215110222571190501e+00 3.067749236409832853e-02
3.980110012802126221e+03 1.208913035266740987e+00 2.692641506296640161e-02
3.984090122814929600e+03 1.195538622705874632e+00 2.437778862624418591e-02
3.988074212937745870e+03 1.176968750328306834e+00 2.232916900509920519e-02
3.992062287150684824e+03 1.152860650354085026e+00 2.091967731616091800e-02
3.996054349437837118e+03 1.123010240539255911e+00 2.018899165202134305e-02
4.000050403787276082e+03 1.088869115953193800e+00 2.019571226700024938e-02
4.004050454191064546e+03 1.052393184484255562e+00 2.067988721669554095e-02
4.008054504645257111e+03 1.020713603811674197e+00 2.068628909812436981e-02
4.012062559149903791e+03 9.815905294637992107e-01 1.922699167944782322e-02
4.016074621709055009e+03 9.516437237169190766e-01 1.937419091822372916e-02
4.020090696330765240e+03 9.255439391179540731e-01 1.890147445252123373e-02
4.024110787027097558e+03 9.106181390902776673e-01 1.852884043274593412e-02
4.028134897814125907e+03 9.076231744151658232e-01 1.852775607547904949e-02
4.032163032711941469e+03 9.016470088638482983e-01 1.836921075435499900e-02
4.036195195744654484e+03 8.914381278436769307e-01 1.707268301916531339e-02
4.040231390940400615e+03 8.957048764403605645e-01 1.646317469153312993e-02
4.044271622331342314e+03 9.072013995389447416e-01 1.735326251766694181e-02
4.048315893953675186e+03 9.297681052903428167e-01 1.932522483416125245e-02
4.052364209847629809e+03 9.655869241432941674e-01 2.331801838488186882e-02
4.056416574057479011e+03 9.911828547589088823e-01 2.561129189600619069e-02
4.060472990631537868e+03 1.019256918038304871e+00 2.528763570979929154e-02
4.064533463622170530e+03 1.037815249167639786e+00 2.463675817799459988e-02
4.068597997085794304e+03 1.057227015824722116e+00 2.353742836642341157e-02
4.072666595082881486e+03 1.065807905457946347e+00 2.304883732800782140e-02
4.076739261677965715e+03 1.066976330689001218e+00 2.348423202561395265e-02
4.080816000939644709e+03 1.059818507358138095e+00 2.466391674960742922e-02
4.084896816940585722e+03 1.054107374585835810e+00 2.645039873431400540e-02
4.088981713757527814e+03 1.041180747133049422e+00 2.769414043678258483e-02
4.093070695471286854e+03 1.009387455396166144e+00 2.602309467902587034e-02
4.097163766166759160e+03 9.835906897461870191e-01 2.294789339575570991e-02
4.101260929932927866e+03 9.554917411426057106e-01 1.985938141571719218e-02
4.105362190862862008e+03 9.403145327291780875e-01 1.967830823231349335e-02
4.109467553053726078e+03 9.338876042919148635e-01 2.064694169658588124e-02
4.113577020606780934e+03 9.270341756124389487e-01 2.045878655521246939e-02
4.117690597627389252e+03 9.272665237742735433e-01 2.175728504984671130e-02
4.121808288225018259e+03 9.268968871678181509e-01 2.236718067549985783e-02
4.125930096513244280e+03 9.306092791658822083e-01 2.348451772051218106e-02
4.130056026609759101e+03 9.294269526886208554e-01 2.322802302085463094e-02
4.134186082636369974e+03 9.340494941390778960e-01 1.986453272988419894e-02
4.138320268719007800e+03 9.224534203389749276e-01 1.988598975577473768e-02
4.142458588987728035e+03 9.158797070073845248e-01 1.919540077202256875e-02
4.146601047576717065e+03 8.958302480252978706e-01 2.203162212522746105e-02
4.150747648624294925e+03 8.678504892805195547e-01 2.324871091888417590e-02
4.154898396272920763e+03 8.337222263751660201e-01 2.184881844749017588e-02
4.159053294669195566e+03 7.957846907347442267e-01 1.938168298553518201e-02
4.163212347963865795e+03 7.529061723458587707e-01 1.352285164705813864e-02
4.167375560311830668e+03 7.348879234157340568e-01 1.367127565155174321e-02
4.171542935872143971e+03 7.283967074716920509e-01 1.323192162755240132e-02
4.175714478808017702e+03 7.195196717874550174e-01 1.326632558989459219e-02
4.179890193286827525e+03 7.184313504557308105e-01 1.428972980970674364e-02
4.184070083480115500e+03 7.331719384667947370e-01 1.796601974759827469e-02
4.188254153563597356e+03 7.367017723628447312e-01 1.717264547731033042e-02
4.192442407717161586e+03 7.359441069066866570e-01 1.568156118810860172e-02
4.196634850124880359e+03 7.346067790195459635e-01 1.533352770124790654e-02
4.200831484975006788e+03 7.244289749095734754e-01 1.535660198525766115e-02
4.205032316459983122e+03 7.041340395675270702e-01 1.628023249730064029e-02
4.209237348776444378e+03 6.834938325777932810e-01 1.700797646435541627e-02
4.213446586125221984e+03 6.567975355169745066e-01 1.685617950058958259e-02
4.217660032711349231e+03 6.161626632636371115e-01 1.580626300640681700e-02
4.221877692744061278e+03 5.850037796493904318e-01 1.530606366999141474e-02
4.226099570436806971e+03 5.503790126701983976e-01 1.571806140340047467e-02
4.230325670007245208e+03 5.257418433838767502e-01 1.613064162271848553e-02
4.234555995677254032e+03 5.051809340775655910e-01 1.592710842411902694e-02
4.238790551672932452e+03 4.879080964625092109e-01 1.635700123881322909e-02
4.243029342224606808e+03 4.833303575847359146e-01 1.674804122411325050e-02
4.247272371566832589e+03 4.773459547993968988e-01 1.733864877009190855e-02
4.251519643938400804e+03 4.761519027959508765e-01 1.727612817466212675e-02
4.255771163582340705e+03 4.920009088489971094e-01 1.663587051408924739e-02
4.260026934745924336e+03 5.066596398685547786e-01 1.652125458513183445e-02
4.264286961680671993e+03 5.296704522195502252e-01 1.617889337029910363e-02
4.268551248642354039e+03 5.543465793085602389e-01 1.520834106661524826e-02
4.272819799890998183e+03 5.915282270406599929e-01 1.576448083161946859e-02
4.277092619690890388e+03 6.455458799687608940e-01 1.410960427001575583e-02
4.281369712310583054e+03 6.943988151074921289e-01 1.376611125078963660e-02
4.285651082022895025e+03 7.322695734888124974e-01 1.438686515844911015e-02
4.289936733104918858e+03 7.741907513305191779e-01 1.279908961971739506e-02
4.294226669838025373e+03 7.988818967672243199e-01 1.239808593713535856e-02
4.298520896507864563e+03 8.077603735678748897e-01 1.257235639136421688e-02
4.302819417404373780e+03 8.032116454536496475e-01 1.545895486464517014e-02
4.307122236821779552e+03 7.966860269250128912e-01 1.503337098364409749e-02
4.311429359058603040e+03 7.856301692269135328e-01 1.626283886312869867e-02
4.315740788417662770e+03 7.678900760751992127e-01 1.323191613882112108e-02
4.320056529206081905e+03 7.587659416433556459e-01 1.328755149715688845e-02
4.324376585735290064e+03 7.554672279979943728e-01 1.271266664847398031e-02
4.328700962321026054e+03 7.560546064432090985e-01 1.266999242294464083e-02
4.333029663283348782e+03 7.712804436748249559e-01 1.169647452655651725e-02
4.337362692946633615e+03 7.853353057796189640e-01 1.167928324143197721e-02
4.341700055639581478e+03 8.092650250837570836e-01 1.126345626610960465e-02
4.346041755695222491e+03 8.321968991620741773e-01 1.115642992797482094e-02
4.350387797450919606e+03 8.531007499462281984e-01 1.141247629163372017e-02
4.354738185248371337e+03 8.679082547039607132e-01 1.123926092672606313e-02
4.359092923433621763e+03 8.766427880848105536e-01 1.090761064703806189e-02
4.363452016357056891e+03 8.760140880910507466e-01 1.176476649854105855e-02
4.367815468373414660e+03 8.731999943471835390e-01 1.132689149271715566e-02
4.372183283841789489e+03 8.694914951582448648e-01 1.201518175279602495e-02
4.376555467125633186e+03 8.662261707954219681e-01 1.274206937375114979e-02
4.380932022592760404e+03 8.610106726086709239e-01 1.274168936536630194e-02
4.385312954615354101e+03 8.557016503692511655e-01 1.129504843608004384e-02
4.389698267569970994e+03 8.617424934930071334e-01 1.247911371624862466e-02
4.394087965837542470e+03 8.633200507080549535e-01 1.267524761654296311e-02
4.398482053803381859e+03 8.674655585050898843e-01 1.280007691216360557e-02
4.402880535857186260e+03 8.811490677900256641e-01 1.103848103716337757e-02
4.407283416393044718e+03 8.865395065265784247e-01 9.386475271973396955e-03
4.411690699809440048e+03 8.750692357492193540e-01 9.920004657322317732e-03
4.416102390509250654e+03 8.485145963452956908e-01 1.401982869925601748e-02
4.420518492899761441e+03 8.217852081507812656e-01 1.321843152651310145e-02
4.424939011392662906e+03 7.927191395782250405e-01 1.243692864404827465e-02
4.429363950404056595e+03 7.581378811906089865e-01 1.209443925649970018e-02
4.433793314354462382e+03 7.276332501066632430e-01 1.192006237447360353e-02
4.438227107668818462e+03 6.987726026540700408e-01 1.267371012860864753e-02
4.442665334776488635e+03 6.720909808145157927e-01 1.223436992504745198e-02
4.447108000111265937e+03 6.518307713729679653e-01 1.308961073649180830e-02
4.451555108111379013e+03 6.348426597881923206e-01 1.180854208297570269e-02
4.456006663219492111e+03 6.188783550661451915e-01 1.149961441152224165e-02
4.460462669882713271e+03 6.006051940832247693e-01 1.175098241470402295e-02
4.464923132552597053e+03 5.868943919188195357e-01 1.218162767485995654e-02
4.469388055685150903e+03 5.738565947055627170e-01 1.143289219868069521e-02
4.473857443740837880e+03 5.700297203015092240e-01 1.154499180765535676e-02
4.478331301184580298e+03 5.655483155552223362e-01 1.181558168090825200e-02
4.482809632485766087e+03 5.751425667287010102e-01 1.255744108262155621e-02
4.487292442118253348e+03 5.966933121759384617e-01 1.225723789224908086e-02
4.491779734560373072e+03 6.222601775351626063e-01 1.136486553336408731e-02
4.496271514294934605e+03 6.468921059716948863e-01 1.109317688665835064e-02
4.500767785809231100e+03 6.698729066665951581e-01 1.194247661417495790e-02
4.505268553595042249e+03 7.098601883539755741e-01 1.305984426026571277e-02
4.509773822148638828e+03 7.644845951145120555e-01 1.307853811338848850e-02
4.514283595970789065e+03 8.247491806921198876e-01 1.295122166121933163e-02
4.518797879566761367e+03 8.923253151120639215e-01 1.361144811233061351e-02
4.523316677446328868e+03 9.706870497629584982e-01 1.481009890263920714e-02
4.527839994123776705e+03 1.041695570347410449e+00 1.567129736152232319e-02
4.532367834117902021e+03 1.110503934042542662e+00 1.427508723285510900e-02
4.536900201952022144e+03 1.162208954209549949e+00 1.391833096806135810e-02
4.541437102153975502e+03 1.210108841176744221e+00 1.435506898371612279e-02
4.545978539256130716e+03 1.246615833410029905e+00 1.385555934951674707e-02
4.550524517795388419e+03 1.265686409893935993e+00 1.498590624291971755e-02
4.555075042313184895e+03 1.278488829144980521e+00 1.558418053184607022e-02
4.559630117355500261e+03 1.283042086525229442e+00 1.423066334683255503e-02
4.564189747472856652e+03 1.287781947949095951e+00 1.074038742565043905e-02
4.568753937220330954e+03 1.298841580902600379e+00 1.081233556271661740e-02
4.573322691157552981e+03 1.318173376504840677e+00 1.175759417524173053e-02
4.577896013848711846e+03 1.338564679053872108e+00 1.074135464101265945e-02
4.582473909862562323e+03 1.356638656519945751e+00 8.437975684624628159e-03
4.587056383772426670e+03 1.362644649600072144e+00 8.822934998013728242e-03
4.591643440156200086e+03 1.363421720182954822e+00 1.004233992471270827e-02
4.596235083596357981e+03 1.372365982715631372e+00 1.067090875770070751e-02
4.600831318679955984e+03 1.380936500683450641e+00 1.116365464595545087e-02
4.605432149998637215e+03 1.382459057419447745e+00 1.108035841329869063e-02
4.610037582148637739e+03 1.387149577702454728e+00 1.109119809618612854e-02
4.614647619730787483e+03 1.391702014468973569e+00 1.057981491974887243e-02
4.619262267350520233e+03 1.392324175428487854e+00 1.067409844354613550e-02
4.623881529617872729e+03 1.393348563591870759e+00 1.157612935026423179e-02
4.628505411147491941e+03 1.386860808830870706e+00 1.145582659285439980e-02
4.633133916558640522e+03 1.374299327703935480e+00 9.986449811532327123e-03
4.637767050475200449e+03 1.353555511365133635e+00 9.574046119013778985e-03
4.642404817525677572e+03 1.323707424757883722e+00 1.009093546192373070e-02
4.647047222343205249e+03 1.289350318150250363e+00 1.038620955853868794e-02
4.651694269565549803e+03 1.257717473047353485e+00 9.947160132066255531e-03
4.656345963835116891e+03 1.221200091976223145e+00 9.069089554901096223e-03
4.661002309798953320e+03 1.195691650846050225e+00 9.180945310274489513e-03
4.665663312108753416e+03 1.173814026766451857e+00 9.419152917970460143e-03
4.670328975420864481e+03 1.150337435716090484e+00 9.616800325629122626e-03
4.674999304396286789e+03 1.132464920891976146e+00 9.801084325806357425e-03
4.679674303700684504e+03 1.120340618749243733e+00 9.771204835191041674e-03
4.684353978004386590e+03 1.108026949971855357e+00 9.874183565804653048e-03
4.689038331982392265e+03 1.108081631087488139e+00 8.243671343386353365e-03
4.693727370314376458e+03 1.100121915259026917e+00 8.238376472580631257e-03
4.698421097684692540e+03 1.088668133790800407e+00 8.097605861706009406e-03
4.703119518782378691e+03 1.076605726359922022e+00 8.418011286531230583e-03
4.707822638301162442e+03 1.061248235436830001e+00 9.000109523287518412e-03
4.712530460939465229e+03 1.037020221089451688e+00 8.459533888476611710e-03
4.717242991400406027e+03 1.001063419217225414e+00 9.507110515559647965e-03
4.721960234391808626e+03 9.542642867742027191e-01 1.100275617295038907e-02
4.726682194626201635e+03 9.120399863554632391e-01 1.104222993086717911e-02
4.731408876820829391e+03 8.629334742888710164e-01 1.111295301791844631e-02
4.736140285697651962e+03 8.146094566739027210e-01 1.156906454737803222e-02
4.740876425983350600e+03 7.614437995253509062e-01 1.185064085490212388e-02
4.745617302409335934e+03 7.028457304566949615e-01 1.229040969037586799e-02
4.750362919711747054e+03 6.537470118732173763e-01 1.223680335404653263e-02
4.755113282631459697e+03 6.125670836731964553e-01 1.269229532222884010e-02
4.759868395914093526e+03 5.804722149285788113e-01 1.297482835735677340e-02
4.764628264310008490e+03 5.655441924571793511e-01 1.299646332724945473e-02
4.769392892574320285e+03 5.728611641435903401e-01 1.279504350820600926e-02
4.774162285466896719e+03 5.960658551714166364e-01 1.142965904805033454e-02
4.778936447752364984e+03 6.416635699658486125e-01 1.124242572098753910e-02
4.783715384200118933e+03 7.170451035405738249e-01 1.255916805196514129e-02
4.788499099584319993e+03 8.071846882517699218e-01 1.426657323220701518e-02
4.793287598683906253e+03 9.187943208236948323e-01 1.600023437077204361e-02
4.798080886282591564e+03 1.043903379369185425e+00 1.377769390685642560e-02
4.802878967168876443e+03 1.142658110822822426e+00 1.138121247070507380e-02
4.807681846136046261e+03 1.223901020446471533e+00 1.060470971224612875e-02
4.812489527982183972e+03 1.269811358632368492e+00 1.121146412919153158e-02
4.817302017510168298e+03 1.297464225513343283e+00 1.191538626713000912e-02
4.822119319527679181e+03 1.298692334960261041e+00 1.552795884924646624e-02
4.826941438847208701e+03 1.287063599664445501e+00 1.922932979774805151e-02
4.831768380286057436e+03 1.259025303865690670e+00 1.820804302827264826e-02
4.836600148666345376e+03 1.239125531625429932e+00 1.532771727537530007e-02
4.841436748815013743e+03 1.227796362544266273e+00 1.290085335834200396e-02
4.846278185563829538e+03 1.229979284790339911e+00 1.173212964314175773e-02
4.851124463749395545e+03 1.256014656134081697e+00 1.244904383318282473e-02
4.855975588213146693e+03 1.297475409147360814e+00 1.271801803753084235e-02
4.860831563801360971e+03 1.356156884033037135e+00 1.295128173710622006e-02
4.865692395365163975e+03 1.426110693524796913e+00 1.075771228162582596e-02
4.870558087760530725e+03 1.478445410937555327e+00 1.061116300975974494e-02
4.875428645848292945e+03 1.518318790913399274e+00 9.363345001985851068e-03
4.880304074494142696e+03 1.548656854102576474e+00 8.910874080473741438e-03
4.885184378568638749e+03 1.556477997360432797e+00 8.639498616513276857e-03
4.890069562947209306e+03 1.547171559999959589e+00 8.691310051081296145e-03
4.894959632510157462e+03 1.518684044646264608e+00 8.870905206218989911e-03
4.899854592142669389e+03 1.476420539601731807e+00 8.600017722440157775e-03
4.904754446734813428e+03 1.414237793107635310e+00 8.757031001604995840e-03
4.909659201181550088e+03 1.345445797964236245e+00 1.001906366740799165e-02
4.914568860382732964e+03 1.269917265137500584e+00 1.037311605995703059e-02
4.919483429243117826e+03 1.182526063719474774e+00 8.671344455708206514e-03
4.924402912672362618e+03 1.116754373980726189e+00 9.218594098082079011e-03
4.929327315585036558e+03 1.064991490181489420e+00 8.629071421716504042e-03
4.934256642900622865e+03 1.036761572099344608e+00 8.745991877479219329e-03
4.939190899543525120e+03 1.022564996208235932e+00 8.455663076935475767e-03
4.944130090443070912e+03 1.028157644432922568e+00 8.506769554553884546e-03
4.949074220533515472e+03 1.057790585368910463e+00 1.019842174553951993e-02
4.954023294754050767e+03 1.098903992355164005e+00 1.021549810635818435e-02
4.958977318048806410e+03 1.155759999857983278e+00 7.970032965009537715e-03
4.963936295366856939e+03 1.217728338912379860e+00 6.393302886402474003e-03
4.968900231662225451e+03 1.268872682145375519e+00 6.514593348423243328e-03
4.973869131893889062e+03 1.318832225651709100e+00 6.442276356725014363e-03
4.978843001025784361e+03 1.360203498703522973e+00 6.789808448322300766e-03
4.983821844026811959e+03 1.392924752863048399e+00 6.002830714865126961e-03
4.988805665870840130e+03 1.423517659932698409e+00 6.601598364563836772e-03
4.993794471536712990e+03 1.439738134657573720e+00 7.013537832481993306e-03
4.998788266008251412e+03 1.450566044775760455e+00 7.481605042114349013e-03
5.003787054274261209e+03 1.454892462875659431e+00 7.494874653693039263e-03
5.008790841328536771e+03 1.453825601458536454e+00 7.279543448960623317e-03
5.013799632169867436e+03 1.441147487777379110e+00 7.284380471328456320e-03
5.018813431802038394e+03 1.421741602299783302e+00 7.322680513520806421e-03
5.023832245233842514e+03 1.398707263171812043e+00 7.150794594796549934e-03
5.028856077479077612e+03 1.369541935371351160e+00 7.358889952595242673e-03
5.033884933556558281e+03 1.327144305906645227e+00 7.646859768219564125e-03
5.038918818490116792e+03 1.276771912744848470e+00 7.467343302365359731e-03
5.043957737308608557e+03 1.219807167961136862e+00 7.337682989589588978e-03
5.049001695045918495e+03 1.153066704961274835e+00 7.598515786203756742e-03
5.054050696740966487e+03 1.075982211540446487e+00 9.075427184892837645e-03
5.059104747437709193e+03 1.000912844745577290e+00 9.961090505802848091e-03
5.064163852185148244e+03 9.274258020472414543e-01 9.231276032149855759e-03
5.069228016037335692e+03 8.677168549778123685e-01 8.572046809410493323e-03
5.074297244053374015e+03 8.155017646085972460e-01 7.575721306884782881e-03
5.079371541297429758e+03 7.765458354559147125e-01 7.414060095596594971e-03
5.084450912838728073e+03 7.603727740337862251e-01 7.231278378445517817e-03
5.089535363751569093e+03 7.615597472829019887e-01 7.216760583545949424e-03
5.094624899115322478e+03 7.769199323051692030e-01 7.035236419189645936e-03
5.099719524014439230e+03 8.186875358679998049e-01 8.599882754308557989e-03
5.104819243538455339e+03 8.699975473164727191e-01 8.200513176584734235e-03
5.109924062781995417e+03 9.216538766684229111e-01 8.175978885054261194e-03
5.115033986844779065e+03 9.787325089761470531e-01 8.367816711777144312e-03
5.120149020831625421e+03 1.031245520763133028e+00 8.335388071277819583e-03
5.125269169852458617e+03 1.078946247359387156e+00 8.085990803859296333e-03
5.130394439022313236e+03 1.118272873651516397e+00 8.196532887285716551e-03
