# starting wavelength: 4229.890
# ending wavelength: 6972.340
# wav flux eflux
4.230325670007245208e+03 4.708460769271597401e-01 2.070070117544120514e-02
4.234555995677254032e+03 4.320518999383494707e-01 1.680916267603593459e-02
4.238790551672932452e+03 4.059581770145154755e-01 1.301140211540856989e-02
4.243029342224606808e+03 3.870864421114545983e-01 9.867161590193110690e-03
4.247272371566832589e+03 3.742821956071611389e-01 7.671131398441483236e-03
4.251519643938400804e+03 3.675232529412494342e-01 6.637493525103926005e-03
4.255771163582340705e+03 3.684518149993709635e-01 6.249441439058181849e-03
4.260026934745924336e+03 3.773840679548444155e-01 5.747845496075001948e-03
4.264286961680671993e+03 3.933114697841618712e-01 5.488660888471668872e-03
4.268551248642354039e+03 4.139266817235319751e-01 4.979726513325613210e-03
4.272819799890998183e+03 4.370314230186491677e-01 4.528550345266411925e-03
4.277092619690890388e+03 4.613586427592183958e-01 4.219442868943381122e-03
4.281369712310583054e+03 4.834823082840505881e-01 3.867941449190353924e-03
4.285651082022895025e+03 5.026108723387068267e-01 3.606435189373286433e-03
4.289936733104918858e+03 5.183058487298557448e-01 3.454512383438111418e-03
4.294226669838025373e+03 5.301118738830390420e-01 3.409342654611254193e-03
4.298520896507864563e+03 5.386507026098469320e-01 3.422879132237707095e-03
4.302819417404373780e+03 5.444306530302154279e-01 3.489539548163141016e-03
4.307122236821779552e+03 5.465705333212644845e-01 3.889786291488935531e-03
4.311429359058603040e+03 5.448445380811628436e-01 4.504204117108202843e-03
4.315740788417662770e+03 5.403548375258718783e-01 5.117427011810355558e-03
4.320056529206081905e+03 5.344538977969045535e-01 5.508887725002225427e-03
4.324376585735290064e+03 5.276967195405636302e-01 5.741284701072687895e-03
4.328700962321026054e+03 5.200224077605876127e-01 5.701571400664251672e-03
4.333029663283348782e+03 5.132551830961240569e-01 5.502281873373987206e-03
4.337362692946633615e+03 5.073829348856264687e-01 5.089593150296812217e-03
4.341700055639581478e+03 5.029110813429088500e-01 4.592867549828342187e-03
4.346041755695222491e+03 5.015796863127769400e-01 4.394455875592762593e-03
4.350387797450919606e+03 5.042571019068936566e-01 4.704426875132471965e-03
4.354738185248371337e+03 5.147208049673966945e-01 5.357840575323533604e-03
4.359092923433621763e+03 5.291586654477945517e-01 5.432699717808511450e-03
4.363452016357056891e+03 5.458753096014552497e-01 4.783985311663666376e-03
4.367815468373414660e+03 5.631616777579063760e-01 3.830999767190700154e-03
4.372183283841789489e+03 5.783745809621450018e-01 3.323620566539253231e-03
4.376555467125633186e+03 5.901308607845809906e-01 3.609265200686675133e-03
4.380932022592760404e+03 5.988506270995553882e-01 3.985658110906937709e-03
4.385312954615354101e+03 6.054925684552121545e-01 4.095230342598539866e-03
4.389698267569970994e+03 6.099784793814450046e-01 3.934300472545679619e-03
4.394087965837542470e+03 6.144633021701861875e-01 3.730772880352773574e-03
4.398482053803381859e+03 6.185761847145062609e-01 3.539214557458705227e-03
4.402880535857186260e+03 6.223937929664313806e-01 3.484351621943289519e-03
4.407283416393044718e+03 6.270708101242852273e-01 3.666919521051843420e-03
4.411690699809440048e+03 6.325885427144575246e-01 3.965504481577040302e-03
4.416102390509250654e+03 6.377407690229902615e-01 4.229993979322448257e-03
4.420518492899761441e+03 6.417177330604687535e-01 4.262004352323975342e-03
4.424939011392662906e+03 6.456397266155157189e-01 3.771848067226029819e-03
4.429363950404056595e+03 6.464624068549595926e-01 2.908835296676912444e-03
4.433793314354462382e+03 6.404353229381779533e-01 2.603128119476639645e-03
4.438227107668818462e+03 6.271671440286424870e-01 2.792404935592092147e-03
4.442665334776488635e+03 6.076763905318915970e-01 2.966303752882549268e-03
4.447108000111265937e+03 5.823665941405238300e-01 2.994325809498978204e-03
4.451555108111379013e+03 5.521811045734921208e-01 2.539753538370628956e-03
4.456006663219492111e+03 5.218693085928410857e-01 1.923527819367601942e-03
4.460462669882713271e+03 4.923290265629719498e-01 1.322340187797530105e-03
4.464923132552597053e+03 4.681889589489531267e-01 1.360867727137682077e-03
4.469388055685150903e+03 4.489620922217749110e-01 8.624381106247287635e-04
4.473857443740837880e+03 4.318627715966962821e-01 5.068030294851523900e-04
4.478331301184580298e+03 4.168611483044267207e-01 4.934170569060591927e-04
4.482809632485766087e+03 4.047153430061731783e-01 4.776714067489794832e-04
4.487292442118253348e+03 3.974181689778045201e-01 5.454009080560905283e-04
4.491779734560373072e+03 3.958785169858505260e-01 7.871677142546554956e-04
4.496271514294934605e+03 3.993271833593002862e-01 9.168092587722331170e-04
4.500767785809231100e+03 4.064901018817687062e-01 9.575471380223290249e-04
4.505268553595042249e+03 4.176371184715672591e-01 1.267693889556300657e-03
4.509773822148638828e+03 4.323049575609956841e-01 2.760836696912888095e-03
4.514283595970789065e+03 4.547620062299446153e-01 4.318769352698168494e-03
4.518797879566761367e+03 4.898139500895060117e-01 5.012831349551924442e-03
4.523316677446328868e+03 5.432128719494722091e-01 4.699246095280801283e-03
4.527839994123776705e+03 6.168787202736799591e-01 4.998705949850284352e-03
4.532367834117902021e+03 7.059316622466877966e-01 6.793911908535173877e-03
4.536900201952022144e+03 8.070769154225955200e-01 9.255010201035385534e-03
4.541437102153975502e+03 9.042774841816633158e-01 1.019173790338050341e-02
4.545978539256130716e+03 9.947776008869146924e-01 9.617580234043479614e-03
4.550524517795388419e+03 1.062198809165228131e+00 8.458131591705183791e-03
4.555075042313184895e+03 1.110367464856048203e+00 8.895337552184561652e-03
4.559630117355500261e+03 1.134509750613166279e+00 1.091092702264852277e-02
4.564189747472856652e+03 1.144221607318048450e+00 1.199943496740361187e-02
4.568753937220330954e+03 1.144718978809551757e+00 1.138189576332054344e-02
4.573322691157552981e+03 1.140931925510510370e+00 9.274486522110041153e-03
4.577896013848711846e+03 1.142969759228942506e+00 8.398091729177636564e-03
4.582473909862562323e+03 1.152622366122346032e+00 9.206912581111411850e-03
4.587056383772426670e+03 1.171282737807977314e+00 9.560397885180723851e-03
4.591643440156200086e+03 1.194168134437988193e+00 8.436565139556788037e-03
4.596235083596357981e+03 1.217556025443462975e+00 6.864270691880589720e-03
4.600831318679955984e+03 1.236243085493486493e+00 6.688162234856733120e-03
4.605432149998637215e+03 1.247656944592963724e+00 7.327291674004888893e-03
4.610037582148637739e+03 1.255786967611230542e+00 7.076268985379700720e-03
4.614647619730787483e+03 1.262086888914194960e+00 5.950484002344331134e-03
4.619262267350520233e+03 1.273012370673151095e+00 5.107137520863190561e-03
4.623881529617872729e+03 1.287809875230259804e+00 5.259427813276042543e-03
4.628505411147491941e+03 1.308709786581006895e+00 5.512046918447713328e-03
4.633133916558640522e+03 1.334234045079801145e+00 5.100991911019802164e-03
4.637767050475200449e+03 1.358958138878830990e+00 4.005237374126967287e-03
4.642404817525677572e+03 1.367841701544601607e+00 2.811863142531732026e-03
4.647047222343205249e+03 1.360832181858069978e+00 2.503680149681246445e-03
4.651694269565549803e+03 1.334732917301261867e+00 3.949021160955966912e-03
4.656345963835116891e+03 1.296823238371883624e+00 5.104765740378543887e-03
4.661002309798953320e+03 1.254792251237368594e+00 4.958166031729729917e-03
4.665663312108753416e+03 1.214855333649080826e+00 4.475608313885224079e-03
4.670328975420864481e+03 1.184260772851300603e+00 3.917028194072305451e-03
4.674999304396286789e+03 1.163648006787870948e+00 3.857697472994291946e-03
4.679674303700684504e+03 1.152162110460491107e+00 4.200819063332601917e-03
4.684353978004386590e+03 1.150226139628823807e+00 4.878517267994163069e-03
4.689038331982392265e+03 1.155172942569625327e+00 5.263198479936655703e-03
4.693727370314376458e+03 1.161029739854317677e+00 5.041594231443579516e-03
4.698421097684692540e+03 1.167358904880809956e+00 4.198943685766361351e-03
4.703119518782378691e+03 1.167735112865166958e+00 3.559758278649917049e-03
4.707822638301162442e+03 1.161957087149454226e+00 3.409214730905021657e-03
4.712530460939465229e+03 1.146913734199395130e+00 3.399014178786672214e-03
4.717242991400406027e+03 1.119844079920276236e+00 2.559556517653934632e-03
4.721960234391808626e+03 1.086907575641259172e+00 1.695487154260319658e-03
4.726682194626201635e+03 1.052968183776830990e+00 1.551984497338931715e-03
4.731408876820829391e+03 1.019598711590087081e+00 1.588540559685768915e-03
4.736140285697651962e+03 9.859327838296043645e-01 1.664456472888056543e-03
4.740876425983350600e+03 9.530296988991701079e-01 1.854073062695000586e-03
4.745617302409335934e+03 9.221176326440890803e-01 1.807792685434249846e-03
4.750362919711747054e+03 8.963439275576393639e-01 2.178844521579130240e-03
4.755113282631459697e+03 8.747563254679820988e-01 3.477276811336371849e-03
4.759868395914093526e+03 8.525571671662774964e-01 4.550481118768092900e-03
4.764628264310008490e+03 8.282730691321602556e-01 4.791376334600775874e-03
4.769392892574320285e+03 7.948781671756951495e-01 4.486987812882381639e-03
4.774162285466896719e+03 7.550879420740226333e-01 5.416693398470991648e-03
4.778936447752364984e+03 7.141703836099918545e-01 7.110011106761940716e-03
4.783715384200118933e+03 6.774521903184366201e-01 8.247050223663400861e-03
4.788499099584319993e+03 6.529746620098938470e-01 8.280326834386337112e-03
4.793287598683906253e+03 6.408669052796437393e-01 6.910257532697160199e-03
4.798080886282591564e+03 6.524908779076887821e-01 5.517338598293704613e-03
4.802878967168876443e+03 6.921752420138131967e-01 5.893153397135870997e-03
4.807681846136046261e+03 7.564930629947757001e-01 7.690221010223504024e-03
4.812489527982183972e+03 8.390438228569077062e-01 9.716094417814041817e-03
4.817302017510168298e+03 9.289300698025878544e-01 9.891688071731557369e-03
4.822119319527679181e+03 1.013111664653267852e+00 7.911632274957581049e-03
4.826941438847208701e+03 1.081084746818399056e+00 4.820520859531895325e-03
4.831768380286057436e+03 1.116220390083765501e+00 3.161873365364758787e-03
4.836600148666345376e+03 1.117756861598991680e+00 5.252716411383727586e-03
4.841436748815013743e+03 1.088142261620884010e+00 8.213718792288162221e-03
4.846278185563829538e+03 1.041428913484034657e+00 1.008709704024278279e-02
4.851124463749395545e+03 9.949487198491224760e-01 1.022447844433289378e-02
4.855975588213146693e+03 9.655737138031540434e-01 9.181220185819172902e-03
4.860831563801360971e+03 9.569238575335318187e-01 7.199648711903184305e-03
4.865692395365163975e+03 9.771576543894727740e-01 6.549025492988910964e-03
4.870558087760530725e+03 1.028304145483516674e+00 7.985216716270499351e-03
4.875428645848292945e+03 1.105412943398411674e+00 8.953728941685596895e-03
4.880304074494142696e+03 1.202823885326770981e+00 8.685234790020035511e-03
4.885184378568638749e+03 1.304810199458781517e+00 7.355568130992077257e-03
4.890069562947209306e+03 1.404585191284590584e+00 5.361350369801300662e-03
4.894959632510157462e+03 1.489903786396545415e+00 3.640355586698393060e-03
4.899854592142669389e+03 1.551196980234195610e+00 3.030601995040925478e-03
4.904754446734813428e+03 1.583626029897488241e+00 2.950255582246861120e-03
4.909659201181550088e+03 1.582876875991219512e+00 2.809387834575890596e-03
4.914568860382732964e+03 1.550697844076192267e+00 2.682769521522355462e-03
4.919483429243117826e+03 1.489928168366174255e+00 2.703585461924323547e-03
4.924402912672362618e+03 1.402445163658259997e+00 3.498007225412361112e-03
4.929327315585036558e+03 1.293498494582921543e+00 5.475295526238013917e-03
4.934256642900622865e+03 1.171159474876782403e+00 7.554823859050007785e-03
4.939190899543525120e+03 1.045696034354195669e+00 8.674910669102454952e-03
4.944130090443070912e+03 9.321234167077284694e-01 8.193814036919291194e-03
4.949074220533515472e+03 8.441151755509921362e-01 6.381513413259313171e-03
4.954023294754050767e+03 7.938039556033071875e-01 4.453220455331856342e-03
4.958977318048806410e+03 7.870301839307547453e-01 4.751580016830804151e-03
4.963936295366856939e+03 8.243857792865885159e-01 6.838181816725607751e-03
4.968900231662225451e+03 8.971862629416875734e-01 8.353999737415932977e-03
4.973869131893889062e+03 9.965565055261724758e-01 8.546668178943221672e-03
4.978843001025784361e+03 1.108587801745865464e+00 7.422619199383010194e-03
4.983821844026811959e+03 1.220374277450754441e+00 5.397951344770811517e-03
4.988805665870840130e+03 1.320259637749457760e+00 3.171317648137300660e-03
4.993794471536712990e+03 1.398390057480694892e+00 2.919689811072534707e-03
4.998788266008251412e+03 1.452426237950762866e+00 3.943995275801358801e-03
5.003787054274261209e+03 1.483722973096275322e+00 4.406214953691101228e-03
5.008790841328536771e+03 1.496401124101813584e+00 4.154509967722774984e-03
5.013799632169867436e+03 1.495274497142469627e+00 3.544549598541770104e-03
5.018813431802038394e+03 1.485010657662180655e+00 2.256570187736906593e-03
5.023832245233842514e+03 1.469594103696862497e+00 1.480476361932825174e-03
5.028856077479077612e+03 1.450618254917199978e+00 1.783574242791263883e-03
5.033884933556558281e+03 1.427052570051588587e+00 2.148222642113731956e-03
5.038918818490116792e+03 1.398215953376802823e+00 2.124475459588119966e-03
5.043957737308608557e+03 1.362085776161018114e+00 1.861282114717887877e-03
5.049001695045918495e+03 1.317393887549197506e+00 1.532959777166510804e-03
5.054050696740966487e+03 1.262138308881546545e+00 1.298164478307093240e-03
5.059104747437709193e+03 1.195567098698785191e+00 8.312349288269860583e-04
5.064163852185148244e+03 1.116424681202665026e+00 8.477848023556235372e-04
5.069228016037335692e+03 1.026316736676881947e+00 1.812774854029708567e-03
5.074297244053374015e+03 9.291292434720773707e-01 2.970752448168444745e-03
5.079371541297429758e+03 8.330922863425997971e-01 3.625358891653850980e-03
5.084450912838728073e+03 7.443802369019616449e-01 3.741874479229929246e-03
5.089535363751569093e+03 6.683703463137141698e-01 3.127484794215684358e-03
5.094624899115322478e+03 6.093346202560426805e-01 2.600588244612237615e-03
5.099719524014439230e+03 5.702587097612992206e-01 2.363311174686267505e-03
5.104819243538455339e+03 5.513402726629585970e-01 2.291748461363146607e-03
5.109924062781995417e+03 5.543201311865388892e-01 2.295370015367793545e-03
5.115033986844779065e+03 5.795776340860987474e-01 2.370864833456892348e-03
5.120149020831625421e+03 6.267185397516445988e-01 2.584696869797231244e-03
5.125269169852458617e+03 6.901188097503767604e-01 3.234266916672278412e-03
5.130394439022313236e+03 7.629704885490514732e-01 4.137819723243563175e-03
5.135524833461337039e+03 8.328231290138038423e-01 4.269967816076043927e-03
5.140660358294800062e+03 8.934123973302330324e-01 3.991035246801266471e-03
5.145801018653096435e+03 9.419891761256787843e-01 4.240348755557627435e-03
5.150946819671751655e+03 9.799827531158523675e-01 5.142532496927534717e-03
5.156097766491425318e+03 1.009577976453047699e+00 5.843497136643134755e-03
5.161253864257918394e+03 1.036000554848603539e+00 5.939455959725179271e-03
5.166415118122177773e+03 1.058343924101919020e+00 5.721095472550160287e-03
5.171581533240301724e+03 1.074198142769149822e+00 5.536729075268319138e-03
5.176753114773543530e+03 1.086858407324402087e+00 5.856647071521444564e-03
5.181929867888318768e+03 1.092090477430881723e+00 6.044389327771181562e-03
5.187111797756208944e+03 1.091516490735112921e+00 5.899051959465164210e-03
5.192298909553966951e+03 1.086890653083545821e+00 5.910409710674587903e-03
5.197491208463522526e+03 1.079509974786337256e+00 6.213062636810272148e-03
5.202688699671987706e+03 1.072972842757743850e+00 6.360603787186807322e-03
5.207891388371661378e+03 1.064684452884368415e+00 6.262149454319550571e-03
5.213099279760034733e+03 1.054688922521969996e+00 6.145822878441856152e-03
5.218312379039796724e+03 1.042247657584854492e+00 6.125887832284244126e-03
5.223530691418837705e+03 1.028342425063520693e+00 6.216219889986791119e-03
5.228754222110258524e+03 1.016958675342170437e+00 6.088861259375594019e-03
5.233982976332370527e+03 1.010027673897431866e+00 5.423402539464146008e-03
5.239216959308704645e+03 1.000279099576031339e+00 5.244013442402645393e-03
5.244456176268015042e+03 9.892662463818790997e-01 5.924542512861071843e-03
5.249700632444284565e+03 9.790823357811599958e-01 6.282356853170924758e-03
5.254950333076731113e+03 9.749262630296716692e-01 5.605951157801140720e-03
5.260205283409809454e+03 9.788699696482956458e-01 4.663808267013272793e-03
5.265465488693221232e+03 9.943399240544161799e-01 4.807346532515959815e-03
5.270730954181915877e+03 1.021622337882861942e+00 5.294148753487278036e-03
5.276001685136099695e+03 1.057954732948457544e+00 5.070609773823240088e-03
5.281277686821237694e+03 1.099039265651291064e+00 3.866310002998458225e-03
5.286558964508059944e+03 1.138520167369367231e+00 2.695685140044144432e-03
5.291845523472569766e+03 1.171896882796227279e+00 2.848811318559052105e-03
5.297137368996044643e+03 1.198715180695967941e+00 3.095979177367598045e-03
5.302434506365042580e+03 1.221510227900198808e+00 2.669168324737080950e-03
5.307736940871409388e+03 1.243304695376771463e+00 2.279221816388076177e-03
5.313044677812282316e+03 1.265634255917046147e+00 2.505770469778681713e-03
5.318357722490096421e+03 1.284217129397501767e+00 2.917826330991280925e-03
5.323676080212588204e+03 1.298300532946575103e+00 3.190211208995591755e-03
5.328999756292802886e+03 1.307107637101683872e+00 2.984393062076242699e-03
5.334328756049097137e+03 1.309011777679709887e+00 2.471582920145650158e-03
5.339663084805148173e+03 1.303439446591121431e+00 2.820569707589507154e-03
5.345002747889954662e+03 1.289618456027657789e+00 3.570828245092269246e-03
5.350347750637846730e+03 1.273170566371648826e+00 3.520826982080308906e-03
5.355698098388485960e+03 1.258322330646500342e+00 2.983964549492663584e-03
5.361053796486876308e+03 1.248530120310035851e+00 2.509066075887966384e-03
5.366414850283365013e+03 1.245282855920030851e+00 2.261164663955522909e-03
5.371781265133649867e+03 1.249224006296812739e+00 2.727544908953006761e-03
5.377153046398785591e+03 1.260126593809967499e+00 3.136785502739852793e-03
5.382530199445186554e+03 1.274448063405337894e+00 2.880194208477648756e-03
5.387912729644633146e+03 1.288296774159477520e+00 2.394986197967344330e-03
5.393300642374279960e+03 1.299645527552349966e+00 1.459256839602123641e-03
5.398693943016655794e+03 1.303199630458399483e+00 1.442922359673403168e-03
5.404092636959673655e+03 1.299962309620826151e+00 1.646697064259644181e-03
5.409496729596635305e+03 1.289721289881465172e+00 1.576823950967586778e-03
5.414906226326233991e+03 1.275409811027182316e+00 1.268923464000885817e-03
5.420321132552561721e+03 1.257523683267993908e+00 1.473978122762154529e-03
5.425741453685116539e+03 1.236816301345240676e+00 2.131286961788633142e-03
5.431167195138803436e+03 1.210051129119343871e+00 2.096377020950888556e-03
5.436598362333943442e+03 1.175540029320138347e+00 2.228302232550423076e-03
5.442034960696279086e+03 1.137060737181678327e+00 2.901244965525560417e-03
5.447476995656978033e+03 1.096802978927170713e+00 3.957847780439610955e-03
5.452924472652636723e+03 1.061236223083381836e+00 4.469309581571019943e-03
5.458377397125291282e+03 1.035109312371203405e+00 4.299848048351159226e-03
5.463835774522417523e+03 1.020715809101833571e+00 3.677098058864846329e-03
5.469299610296941864e+03 1.022391993796786025e+00 3.384051381185140209e-03
5.474768909907241323e+03 1.039175472508027553e+00 3.955186436322262467e-03
5.480243678817149885e+03 1.070103929163231715e+00 4.693977491160399897e-03
5.485723922495968509e+03 1.108796637845840261e+00 4.914490005419692997e-03
5.491209646418466946e+03 1.153971557894066136e+00 4.226784268825218953e-03
5.496700856064887375e+03 1.196222780401829944e+00 3.052578746191250518e-03
5.502197556920953502e+03 1.231580741349943775e+00 2.230717960224468197e-03
5.507699754477876013e+03 1.255632546668648208e+00 2.351026703836406242e-03
