# starting wavelength: 3485.130
# ending wavelength: 10103.100
# wav flux eflux
3.488163626992504760e+03 6.253586944120725910e+00 2.297254731188100030e-01
3.491651790619498570e+03 6.311835481449440621e+00 1.732007056361733466e-01
3.495143442410119405e+03 6.348002814262497573e+00 1.368217272804843621e-01
3.498638585852530468e+03 6.343910227046677619e+00 1.048842581904515237e-01
3.502137224438384237e+03 6.311436571979504251e+00 8.206017484474760482e-02
3.505639361662823831e+03 6.259356965909626425e+00 6.561619935852283647e-02
3.509145001024487556e+03 6.195360749128984601e+00 5.267561239626344927e-02
3.512654146025513455e+03 6.129247290643376367e+00 4.551211262204615110e-02
3.516166800171540217e+03 6.074037178889720501e+00 4.618037698873837110e-02
3.519682966971712631e+03 6.030902546826430566e+00 4.567431858940936701e-02
3.523202649938685681e+03 5.996840233287534794e+00 4.364934339264107260e-02
3.526725852588625457e+03 5.969709087563317418e+00 4.121375305238916820e-02
3.530252578441215064e+03 5.938496861118255588e+00 3.785443816182407911e-02
3.533782831019657806e+03 5.925629241548996617e+00 3.703015168427215703e-02
3.537316613850678550e+03 5.918300418399056184e+00 3.659337540168472458e-02
3.540853930464530094e+03 5.915453717256529131e+00 3.663413413471961616e-02
3.544394784394995895e+03 5.915424991589810944e+00 3.710962483137281165e-02
3.547939179179392340e+03 5.902431798430075816e+00 3.671807774011614373e-02
3.551487118358572843e+03 5.894353486805750997e+00 3.562550870475669762e-02
3.555038605476932389e+03 5.894808960063405934e+00 3.271097424052388236e-02
3.558593644082410719e+03 5.895304308244468494e+00 3.127617705793902386e-02
3.562152237726494150e+03 5.894845158017580466e+00 3.050969225698811280e-02
3.565714389964221937e+03 5.902671950568103121e+00 2.923220786048723319e-02
3.569280104354187188e+03 5.899075272520778235e+00 2.936553123087518036e-02
3.572849384458542772e+03 5.893102950707964638e+00 2.847152901825175317e-02
3.576422233843002232e+03 5.882627298703242857e+00 2.798519811368826993e-02
3.579998656076846601e+03 5.873581503038199259e+00 2.793122966283769631e-02
3.583578654732924406e+03 5.863847948121795994e+00 2.881166352789086074e-02
3.587162233387658489e+03 5.844186318714552186e+00 2.843847820717212288e-02
3.590749395621047370e+03 5.809685138473347443e+00 2.321598651719466652e-02
3.594340145016669794e+03 5.778245253628389477e+00 2.048000526245542796e-02
3.597934485161687462e+03 5.752303238907757965e+00 2.038477204917618635e-02
3.601532419646850485e+03 5.727554470699535827e+00 1.973600170764593098e-02
3.605133952066498296e+03 5.701830108462003999e+00 2.042441617300244650e-02
3.608739086018566013e+03 5.685278715412556139e+00 1.975325811359563560e-02
3.612347825104585809e+03 5.668844251416818913e+00 1.698575577940816470e-02
3.615960172929691907e+03 5.645942800749419455e+00 1.631192026212969007e-02
3.619576133102622407e+03 5.621572788942859944e+00 1.588094464646615245e-02
3.623195709235726554e+03 5.593691490735913874e+00 1.609838127895903484e-02
3.626818904944963379e+03 5.567431000323037615e+00 1.664404395157703317e-02
3.630445723849909427e+03 5.532711276597884087e+00 1.616506052342286601e-02
3.634076169573760581e+03 5.502852208269786161e+00 1.564161431302651950e-02
3.637710245743335690e+03 5.464028648603695082e+00 1.414544966864719928e-02
3.641347955989080219e+03 5.430113873302796712e+00 1.379151229076443740e-02
3.644989303945070333e+03 5.402688895800767277e+00 1.427498842164813889e-02
3.648634293249016537e+03 5.374980596541067968e+00 1.378062258829052325e-02
3.652282927542266862e+03 5.347816440319093978e+00 1.294904947178651157e-02
3.655935210469810499e+03 5.325420558256845460e+00 1.268305310949466302e-02
3.659591145680281443e+03 5.308747088969168360e+00 1.281583991359830886e-02
3.663250736825963031e+03 5.297333238581144244e+00 1.219982507678030528e-02
3.666913987562790226e+03 5.291035631903177716e+00 1.033307972755828294e-02
3.670580901550354156e+03 5.282978102015041699e+00 1.017983571384379650e-02
3.674251482451905758e+03 5.282245653228383908e+00 7.768571728607173883e-03
3.677925733934358959e+03 5.272375623099438968e+00 7.513180345241068751e-03
3.681603659668294313e+03 5.261466868351180715e+00 6.617490266933273406e-03
3.685285263327964003e+03 5.255788600363403340e+00 7.044016032448877952e-03
3.688970548591293209e+03 5.246361562889024555e+00 7.048113479329338321e-03
3.692659519139885560e+03 5.236478135123567412e+00 7.278005354532346774e-03
3.696352178659026777e+03 5.226163108760868425e+00 7.151091588066846999e-03
3.700048530837686940e+03 5.216221871076907490e+00 6.887563826625590219e-03
3.703748579368525952e+03 5.205545311886983662e+00 6.923056958562848369e-03
3.707452327947895355e+03 5.194609425970230454e+00 6.925602036497916121e-03
3.711159780275844696e+03 5.182469610049499131e+00 6.667111099328883531e-03
3.714870940056121526e+03 5.167227990586448882e+00 6.801031071903651352e-03
3.718585810996179134e+03 5.148700004945607311e+00 7.010036689238816066e-03
3.722304396807176545e+03 5.129883121764181375e+00 6.725735142818853145e-03
3.726026701203984885e+03 5.111653772643593996e+00 6.535342527006579409e-03
3.729752727905190113e+03 5.095459965646544021e+00 6.490282648196998676e-03
3.733482480633096657e+03 5.076465744264675450e+00 6.097788771974017516e-03
3.737215963113731050e+03 5.058505939937612439e+00 6.157374021615820425e-03
3.740953179076846027e+03 5.042151872213286978e+00 6.160257356354489032e-03
3.744694132255923705e+03 5.028168071026298591e+00 6.386975656277683704e-03
3.748438826388181042e+03 5.012270252581583208e+00 6.306587218307133438e-03
3.752187265214570289e+03 4.997298704772107136e+00 6.183842688326247720e-03
3.755939452479786269e+03 4.983449485615381036e+00 6.209780233800543843e-03
3.759695391932267285e+03 4.970448788199585799e+00 7.846645142619601207e-03
3.763455087324201031e+03 4.953364959498054887e+00 8.047384823952868915e-03
3.767218542411526414e+03 4.939616536562000171e+00 8.126405881043191268e-03
3.770985760953939007e+03 4.920000135050999646e+00 8.029123404591999649e-03
3.774756746714894234e+03 4.896446871916163346e+00 8.249660128150126601e-03
3.778531503461610555e+03 4.869181815191241824e+00 8.972942536111350870e-03
3.782310034965073100e+03 4.841443250491392902e+00 9.388663303056826379e-03
3.786092345000039586e+03 4.815301047625085040e+00 9.688595027335085083e-03
3.789878437345040766e+03 4.790655784474997958e+00 1.002225451393439111e-02
3.793668315782387253e+03 4.764970162678235255e+00 9.847359183654343442e-03
3.797461984098170888e+03 4.740957193833309269e+00 9.867803111894273005e-03
3.801259446082270188e+03 4.716864099556869583e+00 1.018021214912080002e-02
3.805060705528353537e+03 4.691433316597380276e+00 9.834536909208001915e-03
3.808865766233883278e+03 4.674191862714693890e+00 9.422002199716865076e-03
3.812674632000118436e+03 4.656398886938950987e+00 8.268340030342479288e-03
3.816487306632119726e+03 4.640708701514880019e+00 8.119701680533462917e-03
3.820303793938753188e+03 4.632721166587005612e+00 8.754746917766046202e-03
3.824124097732693372e+03 4.628945928103669338e+00 8.612403211263211164e-03
3.827948221830427428e+03 4.624663939323921724e+00 8.408666474786647901e-03
3.831776170052258749e+03 4.621416889251603877e+00 8.498152433975437320e-03
3.835607946222312421e+03 4.623349563315064970e+00 8.793207821416727105e-03
3.839443554168536139e+03 4.625479167583526063e+00 9.082908906580540453e-03
3.843282997722705659e+03 4.623722549511148472e+00 8.582151448899887416e-03
3.847126280720429804e+03 4.616908106706575587e+00 8.367673308186792877e-03
3.850973407001151372e+03 4.607333868192255544e+00 7.873605501122316053e-03
3.854824380408153957e+03 4.590996776542342062e+00 7.783565408349930360e-03
3.858679204788563311e+03 4.563990834322486201e+00 8.091549786529901936e-03
3.862537883993353262e+03 4.533551156275676952e+00 8.912049617815959862e-03
3.866400421877347981e+03 4.503830753528262676e+00 9.370577937969429283e-03
3.870266822299226533e+03 4.475469472523858627e+00 9.430495198809346266e-03
3.874137089121526969e+03 4.446055642970492272e+00 9.782540416580698048e-03
3.878011226210649966e+03 4.413300385382361135e+00 9.435280222740149991e-03
3.881889237436861549e+03 4.380010352872682589e+00 8.475207736954273874e-03
3.885771126674299921e+03 4.349935891926984155e+00 8.119022169148306517e-03
3.889656897800975457e+03 4.316903060614511567e+00 7.461884908472085978e-03
3.893546554698777527e+03 4.287795331497780360e+00 7.223005732653380896e-03
3.897440101253477678e+03 4.263366821122798633e+00 7.220785162210981156e-03
3.901337541354732366e+03 4.242753816065551575e+00 7.059052755985431929e-03
3.905238878896088409e+03 4.224301355543155445e+00 7.149719766551604003e-03
3.909144117774985716e+03 4.209129089936626045e+00 7.409217906522192441e-03
3.913053261892762293e+03 4.199324910877400896e+00 7.888888189045097435e-03
3.916966315154656058e+03 4.194270486348183447e+00 8.011172806184640310e-03
3.920883281469812118e+03 4.190887677766658825e+00 7.949197303614423393e-03
3.924804164751283224e+03 4.186909518307373013e+00 7.990891822189656601e-03
3.928728968916035683e+03 4.177534793904620791e+00 7.966654983928171674e-03
3.932657697884953450e+03 4.163456614186300975e+00 7.877327546425318128e-03
3.936590355582839493e+03 4.149367685524570248e+00 8.008840220701628557e-03
3.940526945938423523e+03 4.138241957792234693e+00 8.265663112491822631e-03
3.944467472884363360e+03 4.124764835518513806e+00 8.651491391191763747e-03
3.948411940357249023e+03 4.109655557212970933e+00 9.495129984555308530e-03
3.952360352297607733e+03 4.096758160445125085e+00 9.685589601119896572e-03
3.956312712649906643e+03 4.085118331306574646e+00 9.650053981376513490e-03
3.960269025362557841e+03 4.071770124882264419e+00 9.567939124971379730e-03
3.964229294387921527e+03 4.056295756302799482e+00 9.625695009398334626e-03
3.968193523682310570e+03 4.040190196245652565e+00 1.004137457296532844e-02
3.972161717205994591e+03 4.022865800363579325e+00 1.014852911328588056e-02
3.976133878923201792e+03 4.005478091731602852e+00 1.000500876997770065e-02
3.980110012802126221e+03 3.985424209317268929e+00 9.188487165484102506e-03
3.984090122814929600e+03 3.964122763712799369e+00 8.195685941441871805e-03
3.988074212937745870e+03 3.935669189769812171e+00 7.555670113886000898e-03
3.992062287150684824e+03 3.899869383941552137e+00 8.993005964253555570e-03
3.996054349437837118e+03 3.859670818276091264e+00 1.059843809670120429e-02
4.000050403787276082e+03 3.815930424264379894e+00 9.981462546674819969e-03
4.004050454191064546e+03 3.771164546358540370e+00 8.052058147367608526e-03
4.008054504645257111e+03 3.732402130648194483e+00 6.908822413945305344e-03
4.012062559149903791e+03 3.699871513490169850e+00 5.100144837817209738e-03
4.016074621709055009e+03 3.677606022548962184e+00 5.309973053982667245e-03
4.020090696330765240e+03 3.662088062962559842e+00 5.530406612800774398e-03
4.024110787027097558e+03 3.658048732068019504e+00 7.144856362532217564e-03
4.028134897814125907e+03 3.660504685502656841e+00 7.575409146971795807e-03
4.032163032711941469e+03 3.666795550112294855e+00 6.634290522972058173e-03
4.036195195744654484e+03 3.674801650079461357e+00 6.284552105997027668e-03
4.040231390940400615e+03 3.683986210427386165e+00 6.375388834213911553e-03
4.044271622331342314e+03 3.696159700986806129e+00 6.411666373374537778e-03
4.048315893953675186e+03 3.712470535524764692e+00 6.162167376345314800e-03
4.052364209847629809e+03 3.728956022672800685e+00 6.063362646712005220e-03
4.056416574057479011e+03 3.741625249739995773e+00 6.010090427348996518e-03
4.060472990631537868e+03 3.752286847394944225e+00 5.486308917699169764e-03
4.064533463622170530e+03 3.760810450144647987e+00 4.974800394268241895e-03
4.068597997085794304e+03 3.771892471040206196e+00 5.658760864957005851e-03
4.072666595082881486e+03 3.782327662781799660e+00 5.272254668785254263e-03
4.076739261677965715e+03 3.787504230724961118e+00 4.861205145536511181e-03
4.080816000939644709e+03 3.786793399220990342e+00 4.953322483838461937e-03
4.084896816940585722e+03 3.783177846799383737e+00 4.937877328157752946e-03
4.088981713757527814e+03 3.775462438286470768e+00 5.202098209613895304e-03
4.093070695471286854e+03 3.762309335203576133e+00 5.107328728673703362e-03
4.097163766166759160e+03 3.746305126092476456e+00 4.406311507245982625e-03
4.101260929932927866e+03 3.727844572962386138e+00 3.940748055432005334e-03
4.105362190862862008e+03 3.707660001483338519e+00 4.133198045026813261e-03
4.109467553053726078e+03 3.686107365173739936e+00 3.713642889446059411e-03
4.113577020606780934e+03 3.663484899459036104e+00 3.518568624827494128e-03
4.117690597627389252e+03 3.637597208213475763e+00 3.759360072958283297e-03
4.121808288225018259e+03 3.610529118098955159e+00 3.929243173922214970e-03
4.125930096513244280e+03 3.583239981028579990e+00 3.847579000902426414e-03
4.130056026609759101e+03 3.555337659077594470e+00 3.777268402935986952e-03
4.134186082636369974e+03 3.528328236506269810e+00 3.719757121227556824e-03
4.138320268719007800e+03 3.500886145743010491e+00 3.748486491239831457e-03
4.142458588987728035e+03 3.472814269428654121e+00 3.153447740808203170e-03
4.146601047576717065e+03 3.446209170486841167e+00 3.032337211741657160e-03
4.150747648624294925e+03 3.423288629454521281e+00 2.985592024675121775e-03
4.154898396272920763e+03 3.400612603575868143e+00 2.611693893773674863e-03
4.159053294669195566e+03 3.376704336638067794e+00 2.389624236298491973e-03
4.163212347963865795e+03 3.352097974814323145e+00 2.528283656348234536e-03
4.167375560311830668e+03 3.327236617613063885e+00 2.657189094674850330e-03
4.171542935872143971e+03 3.301241365138253947e+00 2.457114721555412901e-03
4.175714478808017702e+03 3.276304652311735843e+00 1.929007939151926310e-03
4.179890193286827525e+03 3.253566244701674659e+00 2.007445067957492994e-03
4.184070083480115500e+03 3.232594687197388961e+00 2.082991602803725955e-03
4.188254153563597356e+03 3.211831795296808956e+00 2.003831280511668336e-03
4.192442407717161586e+03 3.190391444235367135e+00 1.997523836436997102e-03
4.196634850124880359e+03 3.169127018337496882e+00 2.018943862295372732e-03
4.200831484975006788e+03 3.147514686879115064e+00 2.014978524044466843e-03
4.205032316459983122e+03 3.127564321473665920e+00 1.726003605753463057e-03
4.209237348776444378e+03 3.106699848493626348e+00 1.689661613882759584e-03
4.213446586125221984e+03 3.083523075057159613e+00 1.670375820393824257e-03
4.217660032711349231e+03 3.059035325516926029e+00 1.776329801748004460e-03
4.221877692744061278e+03 3.033107062373653129e+00 1.817265332236989205e-03
4.226099570436806971e+03 3.004454966058946574e+00 2.454338149444158790e-03
4.230325670007245208e+03 2.977539641284971061e+00 2.597561461875227268e-03
4.234555995677254032e+03 2.951989768464848396e+00 2.759095999425672900e-03
4.238790551672932452e+03 2.927574839531602358e+00 3.213524569618340931e-03
4.243029342224606808e+03 2.907556038396558407e+00 3.129756487139067830e-03
4.247272371566832589e+03 2.893150522772754751e+00 2.882840275008265521e-03
4.251519643938400804e+03 2.884555549733446522e+00 2.313369146387156752e-03
4.255771163582340705e+03 2.884939075785142748e+00 1.864865512866728308e-03
4.260026934745924336e+03 2.895759682175897964e+00 2.198937460157005148e-03
4.264286961680671993e+03 2.915899727704294175e+00 2.812536468182533136e-03
4.268551248642354039e+03 2.943222493371172810e+00 3.042805493229878370e-03
4.272819799890998183e+03 2.976469016528893174e+00 3.232975503888183694e-03
4.277092619690890388e+03 3.013613932808195894e+00 3.235409947527355043e-03
4.281369712310583054e+03 3.049968124479896403e+00 3.055967441678956575e-03
4.285651082022895025e+03 3.086240729973952934e+00 2.631465183476411080e-03
4.289936733104918858e+03 3.119888781492922813e+00 2.871219113490061474e-03
4.294226669838025373e+03 3.150331018482558143e+00 3.285833365936393323e-03
4.298520896507864563e+03 3.179204063667445013e+00 3.313613369873312075e-03
4.302819417404373780e+03 3.204810919071374720e+00 3.225095550207986248e-03
4.307122236821779552e+03 3.225541761285082298e+00 2.836753674537282385e-03
4.311429359058603040e+03 3.243069827995768595e+00 3.269317073702295885e-03
4.315740788417662770e+03 3.255417500954397081e+00 3.358019795201380719e-03
4.320056529206081905e+03 3.262229826860357562e+00 3.446879726261519589e-03
4.324376585735290064e+03 3.262735601414633813e+00 2.861426764494294506e-03
4.328700962321026054e+03 3.255910041300472901e+00 3.804662583634224170e-03
4.333029663283348782e+03 3.243206305265958989e+00 4.680515604282263660e-03
4.337362692946633615e+03 3.226723770574995598e+00 4.897346985196225286e-03
4.341700055639581478e+03 3.209211736628750256e+00 4.466680070388669502e-03
4.346041755695222491e+03 3.194623082914210155e+00 4.815368355779001304e-03
4.350387797450919606e+03 3.177213405994229856e+00 5.281369030452603280e-03
4.354738185248371337e+03 3.159094825075578150e+00 5.361817103187634277e-03
4.359092923433621763e+03 3.140255769601837166e+00 4.816372063354549225e-03
4.363452016357056891e+03 3.121453056361039202e+00 4.399411552465065656e-03
4.367815468373414660e+03 3.101980340594781005e+00 4.107949252219350068e-03
4.372183283841789489e+03 3.079704956995406473e+00 5.352642840705668613e-03
4.376555467125633186e+03 3.056300509150252864e+00 7.021524125989855175e-03
4.380932022592760404e+03 3.038263188617044808e+00 6.506581445531041744e-03
4.385312954615354101e+03 3.026348299079171689e+00 6.261431826674242543e-03
4.389698267569970994e+03 3.018602852715891238e+00 7.047777431258582526e-03
4.394087965837542470e+03 3.013772639985717650e+00 7.789405259465605365e-03
4.398482053803381859e+03 3.011266069770043519e+00 7.900474775960493121e-03
4.402880535857186260e+03 3.010960468650119903e+00 6.877879548843703929e-03
4.407283416393044718e+03 3.009637084043552679e+00 5.794056578727514381e-03
4.411690699809440048e+03 3.004772512104772808e+00 5.485448329670513518e-03
4.416102390509250654e+03 2.995931253395368810e+00 5.999355237991966898e-03
4.420518492899761441e+03 2.983306496940716812e+00 6.241147278197417200e-03
4.424939011392662906e+03 2.968666233900795426e+00 5.801352370008943694e-03
4.429363950404056595e+03 2.953676491135891258e+00 5.409213020269579807e-03
4.433793314354462382e+03 2.939690081161928426e+00 5.018784869756396337e-03
4.438227107668818462e+03 2.929146357192957240e+00 5.926662991808081052e-03
4.442665334776488635e+03 2.918547091826038553e+00 6.479266744372041455e-03
4.447108000111265937e+03 2.907449894930871359e+00 5.063104004168044944e-03
4.451555108111379013e+03 2.893627225359534982e+00 2.928323586149240293e-03
4.456006663219492111e+03 2.873554812510743961e+00 2.978701028466022339e-03
4.460462669882713271e+03 2.846771795246552550e+00 3.033326937135275014e-03
4.464923132552597053e+03 2.817033965103111104e+00 3.966168455511989190e-03
4.469388055685150903e+03 2.786511125592506577e+00 4.969095842145939551e-03
4.473857443740837880e+03 2.756404162648455891e+00 5.142679292153898123e-03
4.478331301184580298e+03 2.729199297662413759e+00 4.253269838727399658e-03
4.482809632485766087e+03 2.707138750925385029e+00 4.270277397417019706e-03
4.487292442118253348e+03 2.689250835393777184e+00 5.352729809065026427e-03
4.491779734560373072e+03 2.674042770176251693e+00 5.518090715897165134e-03
4.496271514294934605e+03 2.661149835202689218e+00 5.209693816995505586e-03
4.500767785809231100e+03 2.650048480794868322e+00 4.775764517867743530e-03
4.505268553595042249e+03 2.639724242126706422e+00 3.891955508604490448e-03
4.509773822148638828e+03 2.629187147605601016e+00 3.544051767415127424e-03
4.514283595970789065e+03 2.616093987967934797e+00 3.542154796687296478e-03
4.518797879566761367e+03 2.600211942613964045e+00 3.593388760784183792e-03
4.523316677446328868e+03 2.583285342225283276e+00 3.431481101630872669e-03
4.527839994123776705e+03 2.565780349728081777e+00 3.361407454125263285e-03
4.532367834117902021e+03 2.548924319817990281e+00 3.298203297155067465e-03
4.536900201952022144e+03 2.533094956618927363e+00 3.268615668068527470e-03
4.541437102153975502e+03 2.518065822420733291e+00 3.030450830568600078e-03
