# starting wavelength: 4066.130
# ending wavelength: 10737.000
# wav flux eflux
4.068597997085794304e+03 2.455072010221793111e+00 1.672472221608957699e-01
4.072666595082881486e+03 2.420508814016400390e+00 1.212894153934129526e-01
4.076739261677965715e+03 2.376425790728235565e+00 9.171638250356696498e-02
4.080816000939644709e+03 2.330165006068358302e+00 7.095457688956134656e-02
4.084896816940585722e+03 2.288631137573331920e+00 5.557985844199634512e-02
4.088981713757527814e+03 2.254709103736846298e+00 4.401007174947278722e-02
4.093070695471286854e+03 2.224883886416738399e+00 3.543842716205065219e-02
4.097163766166759160e+03 2.197008095660224924e+00 2.942840662916267405e-02
4.101260929932927866e+03 2.170114328380280178e+00 2.466610753131906822e-02
4.105362190862862008e+03 2.144166653633023056e+00 2.131358742916708571e-02
4.109467553053726078e+03 2.118148090653800164e+00 1.879118018464548748e-02
4.113577020606780934e+03 2.092390722204137354e+00 1.702128571201310531e-02
4.117690597627389252e+03 2.066925103050824664e+00 1.581220562749091618e-02
4.121808288225018259e+03 2.048703930305088239e+00 1.465908820163907937e-02
4.125930096513244280e+03 2.033375670125975088e+00 1.375410435844276122e-02
4.130056026609759101e+03 2.022781020119654549e+00 1.308282265680308851e-02
4.134186082636369974e+03 2.016863515959987918e+00 1.258106340115770425e-02
4.138320268719007800e+03 2.015021186619220028e+00 1.209347580865310391e-02
4.142458588987728035e+03 2.016645775414277697e+00 1.181795102703853996e-02
4.146601047576717065e+03 2.032383130769729096e+00 9.521246935095260475e-03
4.150747648624294925e+03 2.034607825857467134e+00 8.761823842022075509e-03
4.154898396272920763e+03 2.036039844740795246e+00 7.530195157291182627e-03
4.159053294669195566e+03 2.042696452256178574e+00 7.109820180591857643e-03
4.163212347963865795e+03 2.058696716210720368e+00 6.718823027401732428e-03
4.167375560311830668e+03 2.074415799361095214e+00 6.541737691662307015e-03
4.171542935872143971e+03 2.092984102495713650e+00 6.514536192787540730e-03
4.175714478808017702e+03 2.112382621224861534e+00 6.155311199037586875e-03
4.179890193286827525e+03 2.131132262095381424e+00 5.823319688455633192e-03
4.184070083480115500e+03 2.144173039933812586e+00 5.869660088015782665e-03
4.188254153563597356e+03 2.157501153540072547e+00 5.757370922857363814e-03
4.192442407717161586e+03 2.173425377383141122e+00 5.330660210611010488e-03
4.196634850124880359e+03 2.186383565838714738e+00 5.203174421282377553e-03
4.200831484975006788e+03 2.196978870663602201e+00 5.279417089486016477e-03
4.205032316459983122e+03 2.204495079170265104e+00 5.239067482722207722e-03
4.209237348776444378e+03 2.209763445628112777e+00 5.026527762796899682e-03
4.213446586125221984e+03 2.212465065312269275e+00 4.766934393220247611e-03
4.217660032711349231e+03 2.211209570200938668e+00 4.546394202828673604e-03
4.221877692744061278e+03 2.207527473046471567e+00 3.759613395377629265e-03
4.226099570436806971e+03 2.207841646055406670e+00 3.732861698019198076e-03
4.230325670007245208e+03 2.209426767951012227e+00 3.916383760320662176e-03
4.234555995677254032e+03 2.209584954626580000e+00 3.942420902098905423e-03
4.238790551672932452e+03 2.207815856662570297e+00 3.874848052469650334e-03
4.243029342224606808e+03 2.206575956530741234e+00 3.858280507286375623e-03
4.247272371566832589e+03 2.204664786155321909e+00 3.814090602206068013e-03
4.251519643938400804e+03 2.204048561467571776e+00 3.633298599355075636e-03
4.255771163582340705e+03 2.199504053337398624e+00 3.825673243458252611e-03
4.260026934745924336e+03 2.194783731560715712e+00 3.680795685123855378e-03
4.264286961680671993e+03 2.190313471108749965e+00 3.485862248578017273e-03
4.268551248642354039e+03 2.188412499596196437e+00 3.475762180740180497e-03
4.272819799890998183e+03 2.185763738522577437e+00 3.371703052760908689e-03
4.277092619690890388e+03 2.183819341467087671e+00 3.350972728117532651e-03
4.281369712310583054e+03 2.184099257259402904e+00 3.402131583565567042e-03
4.285651082022895025e+03 2.184046950500865503e+00 3.479337103150176216e-03
4.289936733104918858e+03 2.185583952443606481e+00 3.415904749347189757e-03
4.294226669838025373e+03 2.187280807508423575e+00 3.471507669360735220e-03
4.298520896507864563e+03 2.188348251118340748e+00 3.523804124766641635e-03
4.302819417404373780e+03 2.190728202869784091e+00 3.397389414789747913e-03
4.307122236821779552e+03 2.191842623935885026e+00 3.418120244366677687e-03
4.311429359058603040e+03 2.194474349497254728e+00 3.293810237119322321e-03
4.315740788417662770e+03 2.198055524242542358e+00 2.920294641436628567e-03
4.320056529206081905e+03 2.200363302698232104e+00 2.828576542395794691e-03
4.324376585735290064e+03 2.200867181173055354e+00 2.898648062013439285e-03
4.328700962321026054e+03 2.200004621728093301e+00 2.860371821854135101e-03
4.333029663283348782e+03 2.200000028024274634e+00 2.819311531413542637e-03
4.337362692946633615e+03 2.198905548937011289e+00 2.640471692596633394e-03
4.341700055639581478e+03 2.198345955113000905e+00 2.661656058535311672e-03
4.346041755695222491e+03 2.197884772534566267e+00 2.648157044349178351e-03
4.350387797450919606e+03 2.197365620365931527e+00 2.670931139574629718e-03
4.354738185248371337e+03 2.195707374055362759e+00 2.692869102370688827e-03
4.359092923433621763e+03 2.192798531174593446e+00 2.721924465175844157e-03
4.363452016357056891e+03 2.191064412649376791e+00 2.439011818080108474e-03
4.367815468373414660e+03 2.189262502428127366e+00 2.094130641491708748e-03
4.372183283841789489e+03 2.186535689988269748e+00 2.078411538355323922e-03
4.376555467125633186e+03 2.183168962409959946e+00 2.102655015983949990e-03
4.380932022592760404e+03 2.178712120508630612e+00 2.103066221656851083e-03
4.385312954615354101e+03 2.172724787941705316e+00 2.173302277015157560e-03
4.389698267569970994e+03 2.166506560477314824e+00 2.121291441643279648e-03
4.394087965837542470e+03 2.159150180151943932e+00 2.109533129572414237e-03
4.398482053803381859e+03 2.151527573771495838e+00 2.236471081508127796e-03
4.402880535857186260e+03 2.142601814196316568e+00 2.374155562948385579e-03
4.407283416393044718e+03 2.134913021065063976e+00 2.304623486284354365e-03
4.411690699809440048e+03 2.130012928664481553e+00 2.370760085857658624e-03
4.416102390509250654e+03 2.125625715551503259e+00 2.596808418748184494e-03
4.420518492899761441e+03 2.121112005491498032e+00 2.766499149720538005e-03
4.424939011392662906e+03 2.117211369322560266e+00 2.840915944168336243e-03
4.429363950404056595e+03 2.114273132527735299e+00 2.724344410059101329e-03
4.433793314354462382e+03 2.108350963115581234e+00 2.716805897059973267e-03
4.438227107668818462e+03 2.101919020592143195e+00 2.678840810721195512e-03
4.442665334776488635e+03 2.095293025557794397e+00 2.659160495405020214e-03
4.447108000111265937e+03 2.087519416950708973e+00 2.686576185212575293e-03
4.451555108111379013e+03 2.078964121668667620e+00 2.703149782777603764e-03
4.456006663219492111e+03 2.069742560423664113e+00 2.795451328696886995e-03
4.460462669882713271e+03 2.059423502530367767e+00 3.034183095063579163e-03
4.464923132552597053e+03 2.050529285106929667e+00 3.088750831210930730e-03
4.469388055685150903e+03 2.040605213220731962e+00 2.831313346865102845e-03
4.473857443740837880e+03 2.032160371699255563e+00 2.679385686667102792e-03
4.478331301184580298e+03 2.027643447581712444e+00 2.812337554361742098e-03
4.482809632485766087e+03 2.023643799359478912e+00 2.975561341935583845e-03
4.487292442118253348e+03 2.017656924924266626e+00 2.917966328520475282e-03
4.491779734560373072e+03 2.013747660633188108e+00 2.971242976381229580e-03
4.496271514294934605e+03 2.011120823428722559e+00 2.857504571290916777e-03
4.500767785809231100e+03 2.009473030426952800e+00 2.608705218709201582e-03
4.505268553595042249e+03 2.007144440457830914e+00 2.587819457211669016e-03
4.509773822148638828e+03 2.005579234437456115e+00 2.435613586369944888e-03
4.514283595970789065e+03 2.004446477468119880e+00 2.301315220691821546e-03
4.518797879566761367e+03 2.000576547009556005e+00 2.244798083250072740e-03
4.523316677446328868e+03 1.995006037032084345e+00 1.939557802937042332e-03
4.527839994123776705e+03 1.990620638195120806e+00 1.625267408623187054e-03
4.532367834117902021e+03 1.988410725345703067e+00 1.615275272421407698e-03
4.536900201952022144e+03 1.986277397604793382e+00 1.607921161955800336e-03
4.541437102153975502e+03 1.984469076507840768e+00 1.660519089890125999e-03
4.545978539256130716e+03 1.985195199562040047e+00 2.168472361036474002e-03
4.550524517795388419e+03 1.984023933088761016e+00 2.206523182547642098e-03
4.555075042313184895e+03 1.981394095251755472e+00 2.186090366561135520e-03
4.559630117355500261e+03 1.978269842401240153e+00 2.181344110042358897e-03
4.564189747472856652e+03 1.975801164290914569e+00 2.056910739453112792e-03
4.568753937220330954e+03 1.972134910577986178e+00 1.997327935729455422e-03
4.573322691157552981e+03 1.966184173628219511e+00 1.970660207164834279e-03
4.577896013848711846e+03 1.958095409704939671e+00 1.812249736278523111e-03
4.582473909862562323e+03 1.949724252275169434e+00 1.822198096730759170e-03
4.587056383772426670e+03 1.939299521956291183e+00 1.781874823792376243e-03
4.591643440156200086e+03 1.928701606415278214e+00 1.849476243659382456e-03
4.596235083596357981e+03 1.917841074579107463e+00 1.797523406278842689e-03
4.600831318679955984e+03 1.904201255667522963e+00 1.810986533464447636e-03
4.605432149998637215e+03 1.889045628394745657e+00 1.768345405811938033e-03
4.610037582148637739e+03 1.872566120804646461e+00 1.839732950445390749e-03
4.614647619730787483e+03 1.854575374778307584e+00 1.933823345766552855e-03
4.619262267350520233e+03 1.836355900366369642e+00 2.001938483838994025e-03
4.623881529617872729e+03 1.819387518107320689e+00 2.043298577087241091e-03
4.628505411147491941e+03 1.801753011950965044e+00 2.000296805698007375e-03
4.633133916558640522e+03 1.783985943595583379e+00 1.872559083913567487e-03
4.637767050475200449e+03 1.769996943167454040e+00 1.764480657841926677e-03
4.642404817525677572e+03 1.759668640052783228e+00 1.934388336084320523e-03
4.647047222343205249e+03 1.752221401583991200e+00 2.010288433391062453e-03
4.651694269565549803e+03 1.749228419944744095e+00 1.497579151252619338e-03
4.656345963835116891e+03 1.748115494930437164e+00 1.364742017640595967e-03
4.661002309798953320e+03 1.748965293679147992e+00 1.428850462770900982e-03
4.665663312108753416e+03 1.753156008746734162e+00 1.566507960398595472e-03
4.670328975420864481e+03 1.760633412541442455e+00 1.659090387898436679e-03
4.674999304396286789e+03 1.771636213141870808e+00 1.686340729666148831e-03
4.679674303700684504e+03 1.786633610323479671e+00 1.613714039661575273e-03
4.684353978004386590e+03 1.806649014213534077e+00 1.806558813709078625e-03
4.689038331982392265e+03 1.829225661479757070e+00 2.003721047977705550e-03
4.693727370314376458e+03 1.854118482026866355e+00 2.003663598604168983e-03
4.698421097684692540e+03 1.882063858699520864e+00 2.035832657697885743e-03
4.703119518782378691e+03 1.910698892089174983e+00 2.120184298866307788e-03
4.707822638301162442e+03 1.936943527229147755e+00 2.049726305346866260e-03
4.712530460939465229e+03 1.960002611141261619e+00 2.142801478288791986e-03
4.717242991400406027e+03 1.980285596524816949e+00 2.541415458813197498e-03
4.721960234391808626e+03 1.999994875777949543e+00 2.609304451977157314e-03
4.726682194626201635e+03 2.016061704705887081e+00 2.418275047786456761e-03
4.731408876820829391e+03 2.029239148248173752e+00 1.963346157169598444e-03
4.736140285697651962e+03 2.042679672855430173e+00 1.956182338831651425e-03
4.740876425983350600e+03 2.055182941081765691e+00 1.952612436476129166e-03
4.745617302409335934e+03 2.066436064638558001e+00 1.946930287859333086e-03
4.750362919711747054e+03 2.077032560701946196e+00 1.934658868358502416e-03
4.755113282631459697e+03 2.087056711411541698e+00 1.875769347913896481e-03
4.759868395914093526e+03 2.096713167623183605e+00 1.864282834159689982e-03
4.764628264310008490e+03 2.105722325324291155e+00 1.969427897599223837e-03
4.769392892574320285e+03 2.112080318362193676e+00 1.964563005424909553e-03
4.774162285466896719e+03 2.115587177663099450e+00 1.946225915119939023e-03
4.778936447752364984e+03 2.117841607742241727e+00 1.963888733881147264e-03
4.783715384200118933e+03 2.118598786061158812e+00 1.966892003875891394e-03
4.788499099584319993e+03 2.116504194037618358e+00 1.953069723061384190e-03
4.793287598683906253e+03 2.113643967576933846e+00 1.940541478101084384e-03
4.798080886282591564e+03 2.110487984383893956e+00 1.806118402520847169e-03
4.802878967168876443e+03 2.104683215400938945e+00 1.878864301953336305e-03
4.807681846136046261e+03 2.095996788787680920e+00 1.404268543502088353e-03
4.812489527982183972e+03 2.089345452613975862e+00 1.282192644373637488e-03
4.817302017510168298e+03 2.084748920806025474e+00 1.330785251062913859e-03
4.822119319527679181e+03 2.081165030663398419e+00 1.429288529692847006e-03
4.826941438847208701e+03 2.078838563451303134e+00 1.545839201543789928e-03
4.831768380286057436e+03 2.076474710408875879e+00 1.622087007915867752e-03
4.836600148666345376e+03 2.073752605022911588e+00 1.409780541334972525e-03
4.841436748815013743e+03 2.069593867766293283e+00 1.344265124556019448e-03
4.846278185563829538e+03 2.063083337923038663e+00 1.424883369403323304e-03
4.851124463749395545e+03 2.055250987721910061e+00 1.733036260806705958e-03
4.855975588213146693e+03 2.048118802995428034e+00 1.916300651656015945e-03
4.860831563801360971e+03 2.041087977975596601e+00 1.872889611038145406e-03
4.865692395365163975e+03 2.034962541961108595e+00 1.658390538055545252e-03
4.870558087760530725e+03 2.029573686260762067e+00 1.517048714117809382e-03
4.875428645848292945e+03 2.027316063685010938e+00 1.820510293353843397e-03
4.880304074494142696e+03 2.024590664683932228e+00 1.777349953727800627e-03
4.885184378568638749e+03 2.020934353368934122e+00 1.702773526191645901e-03
4.890069562947209306e+03 2.017133201841629919e+00 1.494470273589020709e-03
4.894959632510157462e+03 2.012980712092956370e+00 1.464126714500021921e-03
4.899854592142669389e+03 2.007812609751802757e+00 1.502296378489337714e-03
4.904754446734813428e+03 2.001856642153751586e+00 1.453071178566450695e-03
4.909659201181550088e+03 1.994912036227120655e+00 1.416174098872640405e-03
4.914568860382732964e+03 1.987719516883423188e+00 1.274627187205203127e-03
4.919483429243117826e+03 1.981114182158316028e+00 1.159217097715751436e-03
4.924402912672362618e+03 1.975898674141857381e+00 1.189289895088170091e-03
4.929327315585036558e+03 1.971542276731399701e+00 1.228379374891845578e-03
4.934256642900622865e+03 1.968540672727631780e+00 9.828676106352592697e-04
4.939190899543525120e+03 1.965380330268384101e+00 7.626011311961832699e-04
4.944130090443070912e+03 1.961216141483261399e+00 7.886448134690654576e-04
4.949074220533515472e+03 1.956441261386683728e+00 7.881876456499043978e-04
4.954023294754050767e+03 1.951709649720947404e+00 7.183677622610625674e-04
4.958977318048806410e+03 1.948312881838386801e+00 9.932330780193399534e-04
4.963936295366856939e+03 1.943981086129970448e+00 1.018668989343439772e-03
4.968900231662225451e+03 1.939982847761417384e+00 8.957947605087332411e-04
4.973869131893889062e+03 1.935498832926526802e+00 8.780168177528981837e-04
4.978843001025784361e+03 1.929854789426922235e+00 1.055607238216079314e-03
4.983821844026811959e+03 1.924365538826672939e+00 1.063931272507617981e-03
4.988805665870840130e+03 1.919822872035199746e+00 1.097508318768070394e-03
4.993794471536712990e+03 1.915627187405642973e+00 1.195495686852343859e-03
4.998788266008251412e+03 1.910835425076147898e+00 1.169422769267702746e-03
5.003787054274261209e+03 1.905675011709376587e+00 1.162315111959498666e-03
5.008790841328536771e+03 1.899951289315762626e+00 1.174671605921567439e-03
5.013799632169867436e+03 1.893787958428155171e+00 1.274607287453135597e-03
5.018813431802038394e+03 1.888689161987839871e+00 1.314612677793303196e-03
5.023832245233842514e+03 1.886018248389762730e+00 1.481538835644096363e-03
5.028856077479077612e+03 1.882690507776642708e+00 1.500539548831136306e-03
5.033884933556558281e+03 1.879008145613211056e+00 1.497784237876653105e-03
5.038918818490116792e+03 1.874947369527446339e+00 1.515063263079548684e-03
5.043957737308608557e+03 1.870704027076000031e+00 1.511167656629159792e-03
5.049001695045918495e+03 1.866861546564383634e+00 1.513248367722753313e-03
5.054050696740966487e+03 1.864563513276957796e+00 1.491399562900006795e-03
5.059104747437709193e+03 1.863348252853200826e+00 1.505665089985845379e-03
5.064163852185148244e+03 1.862658830203161697e+00 1.604408419160561821e-03
5.069228016037335692e+03 1.861732809570906033e+00 1.635898577299982771e-03
5.074297244053374015e+03 1.858860053596476325e+00 1.604380720514469571e-03
5.079371541297429758e+03 1.854386504761585730e+00 1.603353105808953032e-03
5.084450912838728073e+03 1.851078859056227932e+00 1.572000369574413437e-03
5.089535363751569093e+03 1.846927230535503339e+00 1.580780025815305351e-03
5.094624899115322478e+03 1.841597986908468210e+00 1.746153766219910291e-03
5.099719524014439230e+03 1.837449700105733275e+00 1.769826431175512346e-03
5.104819243538455339e+03 1.833626694018801295e+00 1.778362385126006084e-03
5.109924062781995417e+03 1.828690874890783968e+00 1.723149166738092508e-03
5.115033986844779065e+03 1.823179331614001253e+00 1.694263678914396162e-03
5.120149020831625421e+03 1.819074465692731568e+00 1.594015644429057268e-03
5.125269169852458617e+03 1.814099298955553552e+00 1.522836821026656235e-03
5.130394439022313236e+03 1.808735960146759414e+00 1.519454117857276399e-03
5.135524833461337039e+03 1.803354820648320089e+00 1.590729565544665713e-03
5.140660358294800062e+03 1.797469474258070132e+00 1.686822626982658431e-03
5.145801018653096435e+03 1.792342155441669416e+00 1.624567729880198970e-03
5.150946819671751655e+03 1.787560424068517451e+00 1.438995849295946492e-03
5.156097766491425318e+03 1.783087321464736252e+00 1.463108738232198752e-03
5.161253864257918394e+03 1.779220400172923711e+00 1.459451000240524028e-03
5.166415118122177773e+03 1.776073820174409290e+00 1.432148748645787999e-03
5.171581533240301724e+03 1.773040425652605556e+00 1.337963963522402662e-03
5.176753114773543530e+03 1.770028927950230813e+00 1.309015398293901294e-03
5.181929867888318768e+03 1.766311924631477126e+00 1.225486481708960070e-03
5.187111797756208944e+03 1.761455894983237513e+00 1.250797468733393569e-03
5.192298909553966951e+03 1.755516023476082488e+00 1.005520662446527302e-03
5.197491208463522526e+03 1.749827453601902505e+00 9.248828658262781043e-04
5.202688699671987706e+03 1.744127356499870052e+00 9.357106191296638486e-04
5.207891388371661378e+03 1.738084538182269156e+00 9.606090956693078345e-04
5.213099279760034733e+03 1.732901921522249644e+00 9.464451089096486292e-04
5.218312379039796724e+03 1.728600296039959350e+00 9.349965724419237283e-04
5.223530691418837705e+03 1.724857245300664088e+00 8.924927586602311464e-04
5.228754222110258524e+03 1.720448236203578007e+00 8.838004281315321948e-04
5.233982976332370527e+03 1.715163827540302943e+00 8.739656912324565664e-04
5.239216959308704645e+03 1.708443633642880988e+00 9.215852974969755609e-04
5.244456176268015042e+03 1.702857719498563016e+00 8.871466511888681343e-04
5.249700632444284565e+03 1.698318583062892628e+00 8.627732592442297630e-04
5.254950333076731113e+03 1.694106201391775590e+00 8.520990407583803284e-04
5.260205283409809454e+03 1.690132027474031240e+00 9.029321669804591440e-04
5.265465488693221232e+03 1.686326217069641586e+00 9.158907940178665809e-04
5.270730954181915877e+03 1.681913503935846155e+00 9.908205149082539506e-04
5.276001685136099695e+03 1.678750194088307834e+00 1.013860760468727378e-03
5.281277686821237694e+03 1.676317203063001360e+00 1.082399581533861812e-03
5.286558964508059944e+03 1.672831978128020314e+00 1.060652193791740503e-03
5.291845523472569766e+03 1.669923327511965372e+00 1.067849010423150028e-03
5.297137368996044643e+03 1.668162563555228406e+00 1.017051134373929888e-03
