# starting wavelength: 4069.380
# ending wavelength: 10743.800
# wav flux eflux
4.072666595082881486e+03 1.399925645233112581e+00 5.508315686279120493e-01
4.076739261677965715e+03 1.857308298397800206e+00 4.114889762371090054e-01
4.080816000939644709e+03 2.126500348355667924e+00 3.133346867729084329e-01
4.084896816940585722e+03 2.260091903647811318e+00 2.447967236803365587e-01
4.088981713757527814e+03 2.321014083822204643e+00 1.935004381404816509e-01
4.093070695471286854e+03 2.325618422489083681e+00 1.559091256981471330e-01
4.097163766166759160e+03 2.294356408010249648e+00 1.282400931596279214e-01
4.101260929932927866e+03 2.240362301525306687e+00 1.072228767802287791e-01
4.105362190862862008e+03 2.170799104828150750e+00 9.080729564137605958e-02
4.109467553053726078e+03 2.088611236915249414e+00 7.880372936309272547e-02
4.113577020606780934e+03 2.000249759995309073e+00 6.932319415729466805e-02
4.117690597627389252e+03 1.914532501978704282e+00 6.248540657738833187e-02
4.121808288225018259e+03 1.840643122795041275e+00 5.785818840322307782e-02
4.125930096513244280e+03 1.772203828451486718e+00 5.443473426301381757e-02
4.130056026609759101e+03 1.716709644885295649e+00 5.243489469318134144e-02
4.134186082636369974e+03 1.675266280131010976e+00 5.098892242115850987e-02
4.138320268719007800e+03 1.628302176889955932e+00 4.935785678283206857e-02
4.142458588987728035e+03 1.592211885036500796e+00 4.834750580501097350e-02
4.146601047576717065e+03 1.571902238869295809e+00 4.779397848406834182e-02
4.150747648624294925e+03 1.607695460540140564e+00 3.179936745599088593e-02
4.154898396272920763e+03 1.585667790180632197e+00 3.120532444761893107e-02
4.159053294669195566e+03 1.587103523772547486e+00 3.104737601194555718e-02
4.163212347963865795e+03 1.603588511650436033e+00 2.923444612794329558e-02
4.167375560311830668e+03 1.642463964741733173e+00 2.156046459201347784e-02
4.171542935872143971e+03 1.649001876676002842e+00 2.147108020905886747e-02
4.175714478808017702e+03 1.635163873330158335e+00 1.800548412477549071e-02
4.179890193286827525e+03 1.639617639761814294e+00 1.683767831852192587e-02
4.184070083480115500e+03 1.659735775341731001e+00 1.604682624007774255e-02
4.188254153563597356e+03 1.665196402854098645e+00 1.569487206393800974e-02
4.192442407717161586e+03 1.685711978410816103e+00 1.522273620803784623e-02
4.196634850124880359e+03 1.709716213627687553e+00 1.345175813686200206e-02
4.200831484975006788e+03 1.727883688801029605e+00 1.295571813539122749e-02
4.205032316459983122e+03 1.742888111741522472e+00 1.298977997143419168e-02
4.209237348776444378e+03 1.753359412594341693e+00 1.334070157599119219e-02
4.213446586125221984e+03 1.747736163054421921e+00 1.355180099458751924e-02
4.217660032711349231e+03 1.734763667360510020e+00 1.288522742131503578e-02
4.221877692744061278e+03 1.734754704500581335e+00 1.322173578766980793e-02
4.226099570436806971e+03 1.733310632711155819e+00 1.336278060953993013e-02
4.230325670007245208e+03 1.736667039741079499e+00 1.347950876210305370e-02
4.234555995677254032e+03 1.746928450194557891e+00 1.365151864450447547e-02
4.238790551672932452e+03 1.752309026967230565e+00 1.382876153219842787e-02
4.243029342224606808e+03 1.759345464778210744e+00 1.399054928828410635e-02
4.247272371566832589e+03 1.764557007389144339e+00 1.395445717984586387e-02
4.251519643938400804e+03 1.779147493394255930e+00 1.416442323810281068e-02
4.255771163582340705e+03 1.786052757545829150e+00 1.429335907117927976e-02
4.260026934745924336e+03 1.785425373930179305e+00 1.383837573740904180e-02
4.264286961680671993e+03 1.787819972616510489e+00 1.404508469795914295e-02
4.268551248642354039e+03 1.794163778706253876e+00 1.429295871620709507e-02
4.272819799890998183e+03 1.797907508247151620e+00 1.424014374562496479e-02
4.277092619690890388e+03 1.806134364014389426e+00 1.348634016770705948e-02
4.281369712310583054e+03 1.805043396753388985e+00 1.387024771018793845e-02
4.285651082022895025e+03 1.800124556599990155e+00 1.430049569075023119e-02
4.289936733104918858e+03 1.800823140664869815e+00 1.452052249131799769e-02
4.294226669838025373e+03 1.802874646216883425e+00 1.482160246231749995e-02
4.298520896507864563e+03 1.801570665494891976e+00 1.451707400817893803e-02
4.302819417404373780e+03 1.801631183039712703e+00 1.455345699862669977e-02
4.307122236821779552e+03 1.805826089974978732e+00 1.456094799988032380e-02
4.311429359058603040e+03 1.805064478082744950e+00 1.412704091144558610e-02
4.315740788417662770e+03 1.800050773342806165e+00 1.378279880874131239e-02
4.320056529206081905e+03 1.802345728324981966e+00 1.386639027883171740e-02
4.324376585735290064e+03 1.807261607432588679e+00 1.374292005998112125e-02
4.328700962321026054e+03 1.806372277430349893e+00 1.375030600756939510e-02
4.333029663283348782e+03 1.809033677804591456e+00 1.392784921166361108e-02
4.337362692946633615e+03 1.814958435431523576e+00 1.375666378853764547e-02
4.341700055639581478e+03 1.828466811403027137e+00 1.448601402128423844e-02
4.346041755695222491e+03 1.850527592498725449e+00 1.226563041142303932e-02
4.350387797450919606e+03 1.850573452618819115e+00 1.280980734901448342e-02
4.354738185248371337e+03 1.838214989652934728e+00 1.354503100678798415e-02
4.359092923433621763e+03 1.833798449868206504e+00 1.361085967068838450e-02
4.363452016357056891e+03 1.832006510050457893e+00 1.389307576676902627e-02
4.367815468373414660e+03 1.824131863194371039e+00 1.415059260551634543e-02
4.372183283841789489e+03 1.818734530666931803e+00 1.441960441477458527e-02
4.376555467125633186e+03 1.810177798583605835e+00 1.358265575064749112e-02
4.380932022592760404e+03 1.802186374804690461e+00 1.357862113441133528e-02
4.385312954615354101e+03 1.793718725357128063e+00 1.351141681810385034e-02
4.389698267569970994e+03 1.791362368195207111e+00 1.333691730603379574e-02
4.394087965837542470e+03 1.787544355433856591e+00 1.354694632548851703e-02
4.398482053803381859e+03 1.782486520744180014e+00 1.335436240808634753e-02
4.402880535857186260e+03 1.778090421982541969e+00 1.283995044593500175e-02
4.407283416393044718e+03 1.769525887443501366e+00 1.319250614775220251e-02
4.411690699809440048e+03 1.756020004260083089e+00 1.373144379251532363e-02
4.416102390509250654e+03 1.745758886735960136e+00 1.350174715259281136e-02
4.420518492899761441e+03 1.734029764498304926e+00 1.363699763794624757e-02
4.424939011392662906e+03 1.721691335297145686e+00 1.366136602112451998e-02
4.429363950404056595e+03 1.708174379031041967e+00 1.386304534383670482e-02
4.433793314354462382e+03 1.692829600192112594e+00 1.399692555726146127e-02
4.438227107668818462e+03 1.681695561769485092e+00 1.446034765853441637e-02
4.442665334776488635e+03 1.681343961539004450e+00 1.463845881744678910e-02
4.447108000111265937e+03 1.673731489537884309e+00 1.479136832178020583e-02
4.451555108111379013e+03 1.666653302129764924e+00 1.476932427250656106e-02
4.456006663219492111e+03 1.661689009540497475e+00 1.467856918299070140e-02
4.460462669882713271e+03 1.660177264935324803e+00 1.495737668588150229e-02
4.464923132552597053e+03 1.661491254668153505e+00 1.488322704725277001e-02
4.469388055685150903e+03 1.672571683326100178e+00 1.305396015097804591e-02
4.473857443740837880e+03 1.677554874211371061e+00 1.278312719747593321e-02
4.478331301184580298e+03 1.669732107829011714e+00 1.205362958639105350e-02
4.482809632485766087e+03 1.667864414067975032e+00 1.183566076229185075e-02
4.487292442118253348e+03 1.672725898927108767e+00 1.178478132227045623e-02
4.491779734560373072e+03 1.665432070353404015e+00 1.052062626457386449e-02
4.496271514294934605e+03 1.663060842513244264e+00 1.028605648021400573e-02
4.500767785809231100e+03 1.670351627405388006e+00 9.751501681388309584e-03
4.505268553595042249e+03 1.677437228678135384e+00 9.735161430599464927e-03
4.509773822148638828e+03 1.673790321592647290e+00 9.656314737386531219e-03
4.514283595970789065e+03 1.684770957188378437e+00 9.925312081834718192e-03
4.518797879566761367e+03 1.697054676981902599e+00 1.007714542525727300e-02
4.523316677446328868e+03 1.700046826774480824e+00 1.003738426415831317e-02
4.527839994123776705e+03 1.699363288176996223e+00 9.639860192400215647e-03
4.532367834117902021e+03 1.700354527301091379e+00 9.583483342923682785e-03
4.536900201952022144e+03 1.710329025340472375e+00 8.594209512416007418e-03
4.541437102153975502e+03 1.722814242593736722e+00 8.308627329304105538e-03
4.545978539256130716e+03 1.730350687331986936e+00 8.835019891525399890e-03
4.550524517795388419e+03 1.727149747721375528e+00 8.699044911551339146e-03
4.555075042313184895e+03 1.720649514904370569e+00 8.497869795154851594e-03
4.559630117355500261e+03 1.721077304889299553e+00 7.782206268935712087e-03
4.564189747472856652e+03 1.710391152620347022e+00 7.867809080761354115e-03
4.568753937220330954e+03 1.702163414171002476e+00 7.833649530730110722e-03
4.573322691157552981e+03 1.696492195237872647e+00 7.717691397876537754e-03
4.577896013848711846e+03 1.681396538654252426e+00 7.829634865282370307e-03
4.582473909862562323e+03 1.666550756260093857e+00 7.734031915348546678e-03
4.587056383772426670e+03 1.656667637513526969e+00 7.764233037418804759e-03
4.591643440156200086e+03 1.641960227730113075e+00 7.978541235115203800e-03
4.596235083596357981e+03 1.629216558204362286e+00 8.102938717721835590e-03
4.600831318679955984e+03 1.627738767659182351e+00 8.845009060218105706e-03
4.605432149998637215e+03 1.625071993739957144e+00 9.544973031450781215e-03
4.610037582148637739e+03 1.620242716905202940e+00 9.849320893972668411e-03
4.614647619730787483e+03 1.608994633136490826e+00 1.078634536629297265e-02
4.619262267350520233e+03 1.600792022983138274e+00 1.084848612140926032e-02
4.623881529617872729e+03 1.600886299808818913e+00 1.083492903822090916e-02
4.628505411147491941e+03 1.606919913086204188e+00 9.855023189838458403e-03
4.633133916558640522e+03 1.599770195694463881e+00 9.848802988499005123e-03
4.637767050475200449e+03 1.590850715540331084e+00 1.002676728937691372e-02
4.642404817525677572e+03 1.576529436253935934e+00 9.780359123344305877e-03
4.647047222343205249e+03 1.563807598190947834e+00 9.840312443967430892e-03
4.651694269565549803e+03 1.557111448327984649e+00 9.984418233308043136e-03
4.656345963835116891e+03 1.546826744200021642e+00 9.479487624426742934e-03
4.661002309798953320e+03 1.542820574724058647e+00 9.650417202494047247e-03
4.665663312108753416e+03 1.540429510204236463e+00 9.552743937646325859e-03
4.670328975420864481e+03 1.542422890468153174e+00 9.374899748870756111e-03
4.674999304396286789e+03 1.550587221734355703e+00 9.302526875189134903e-03
4.679674303700684504e+03 1.558897661364771814e+00 9.097116299681365370e-03
4.684353978004386590e+03 1.568013907226133652e+00 9.340443148776180968e-03
4.689038331982392265e+03 1.581478759644253662e+00 9.790455922805516020e-03
4.693727370314376458e+03 1.602119868268380154e+00 9.712214318457309398e-03
4.698421097684692540e+03 1.625365719244513230e+00 1.001665330661791718e-02
4.703119518782378691e+03 1.659646112853156996e+00 8.658100753035059827e-03
4.707822638301162442e+03 1.689828981510643757e+00 8.304198084497496288e-03
4.712530460939465229e+03 1.710496003357884653e+00 7.930051423575636832e-03
4.717242991400406027e+03 1.726589668443093029e+00 7.938894841305227032e-03
4.721960234391808626e+03 1.737314943479363549e+00 7.726536558510556374e-03
4.726682194626201635e+03 1.745964000212394174e+00 7.260191078557813073e-03
4.731408876820829391e+03 1.742069176055915714e+00 7.938610776200366592e-03
4.736140285697651962e+03 1.732787058468000518e+00 9.248774110229026832e-03
4.740876425983350600e+03 1.722742947564346760e+00 8.964148483401370923e-03
4.745617302409335934e+03 1.708021915100802701e+00 7.689420677469297437e-03
4.750362919711747054e+03 1.699820752739715113e+00 7.181613126539591191e-03
4.755113282631459697e+03 1.696242975043132040e+00 7.211576637144355428e-03
4.759868395914093526e+03 1.696695591891235644e+00 7.365448033424619977e-03
4.764628264310008490e+03 1.707227557560324627e+00 7.408173340747709230e-03
4.769392892574320285e+03 1.726732698960830925e+00 7.612392420976314515e-03
4.774162285466896719e+03 1.746160998797587016e+00 7.381082898469664734e-03
4.778936447752364984e+03 1.756487439416267726e+00 7.299555805930750194e-03
4.783715384200118933e+03 1.762826891388070027e+00 7.278503122108406255e-03
4.788499099584319993e+03 1.771545774424124975e+00 6.764820386125567665e-03
4.793287598683906253e+03 1.770938267220484974e+00 6.735435571535148755e-03
4.798080886282591564e+03 1.767933184668692315e+00 6.417924765999334473e-03
4.802878967168876443e+03 1.761454865224306277e+00 6.383946712323991177e-03
4.807681846136046261e+03 1.754362992433946111e+00 6.215481043744911470e-03
4.812489527982183972e+03 1.742946126371369919e+00 6.066139149779057986e-03
4.817302017510168298e+03 1.728967967065186739e+00 5.809536935575918513e-03
4.822119319527679181e+03 1.715738863919043844e+00 6.055533995568622430e-03
4.826941438847208701e+03 1.702032546796597989e+00 5.163500289695354198e-03
4.831768380286057436e+03 1.698363947136423135e+00 5.134654059418449976e-03
4.836600148666345376e+03 1.697644070504363834e+00 5.009551848183708272e-03
4.841436748815013743e+03 1.697911215841463761e+00 4.929114233228650867e-03
4.846278185563829538e+03 1.700407187045295476e+00 4.914739039282738087e-03
4.851124463749395545e+03 1.700734822296995130e+00 4.563312285460330645e-03
4.855975588213146693e+03 1.706205626790602281e+00 4.662756731382338045e-03
4.860831563801360971e+03 1.714229874520593722e+00 4.372872297998439163e-03
4.865692395365163975e+03 1.722447389136610774e+00 3.433159568843554155e-03
4.870558087760530725e+03 1.723253474778398298e+00 3.471085712704700867e-03
4.875428645848292945e+03 1.722301866997236974e+00 3.486427485813417548e-03
4.880304074494142696e+03 1.715376175841295314e+00 3.575391975066091483e-03
4.885184378568638749e+03 1.707716121126223507e+00 3.508326050349933403e-03
4.890069562947209306e+03 1.698738525876968053e+00 3.629273574888496317e-03
4.894959632510157462e+03 1.687587140186689316e+00 4.340262397921930762e-03
4.899854592142669389e+03 1.674668854969838527e+00 5.288142711984676093e-03
4.904754446734813428e+03 1.675340001193353245e+00 5.481354309297816439e-03
4.909659201181550088e+03 1.682932027544425946e+00 6.635588270717413320e-03
4.914568860382732964e+03 1.686476139268396013e+00 6.588886687315634490e-03
4.919483429243117826e+03 1.693164085614243808e+00 6.511048372258554026e-03
4.924402912672362618e+03 1.708497219820538815e+00 6.233677770774565668e-03
4.929327315585036558e+03 1.720037584871981995e+00 5.994712326711737656e-03
4.934256642900622865e+03 1.727455592810476892e+00 5.927340970473806911e-03
4.939190899543525120e+03 1.735399776043133668e+00 6.072969441317230266e-03
4.944130090443070912e+03 1.733716631741661018e+00 6.014636029323069434e-03
4.949074220533515472e+03 1.723499108958602699e+00 6.385919330595231196e-03
4.954023294754050767e+03 1.707846188229896756e+00 6.618173213822476850e-03
4.958977318048806410e+03 1.692524416542867005e+00 6.447860637241920392e-03
4.963936295366856939e+03 1.669688521106147405e+00 6.675727796425293993e-03
4.968900231662225451e+03 1.654567959754659867e+00 6.724624372031901172e-03
4.973869131893889062e+03 1.646562215094854453e+00 6.714091832226562126e-03
4.978843001025784361e+03 1.645643413687534640e+00 6.643527258318971881e-03
4.983821844026811959e+03 1.647384511435608490e+00 6.482779799598143051e-03
4.988805665870840130e+03 1.650482593522226482e+00 6.485672308070566071e-03
4.993794471536712990e+03 1.657698775229015542e+00 7.586234154079235341e-03
4.998788266008251412e+03 1.667619672525608721e+00 7.805658064385209878e-03
5.003787054274261209e+03 1.677490552639052224e+00 5.621314722282410616e-03
5.008790841328536771e+03 1.671133691081138739e+00 6.480707094331826686e-03
5.013799632169867436e+03 1.657741381075219289e+00 7.986022968463716079e-03
5.018813431802038394e+03 1.648941609188419699e+00 7.884612100258092671e-03
5.023832245233842514e+03 1.636160022625675614e+00 7.695810103013361707e-03
5.028856077479077612e+03 1.615948745105527218e+00 7.325544969057908376e-03
5.033884933556558281e+03 1.601860926738659208e+00 7.412862610291175332e-03
5.038918818490116792e+03 1.595160741954706696e+00 7.509606630314030404e-03
5.043957737308608557e+03 1.590598153900914857e+00 7.715597448265944583e-03
5.049001695045918495e+03 1.591262194645311601e+00 8.055278589988116439e-03
5.054050696740966487e+03 1.595066910985841302e+00 7.486274190851216134e-03
5.059104747437709193e+03 1.593779486947938251e+00 7.050586029446105456e-03
5.064163852185148244e+03 1.590806647282270836e+00 6.841760565127285795e-03
5.069228016037335692e+03 1.583168549666661207e+00 7.160457879198372372e-03
5.074297244053374015e+03 1.572284343069655144e+00 7.497232705670681119e-03
5.079371541297429758e+03 1.555967570722034177e+00 7.325337205092229131e-03
5.084450912838728073e+03 1.547352104214553492e+00 6.643486274667940832e-03
5.089535363751569093e+03 1.546688172768979408e+00 6.757012441991084098e-03
5.094624899115322478e+03 1.551493286951339368e+00 6.633473324484996138e-03
5.099719524014439230e+03 1.557583968625879445e+00 6.623433625587996955e-03
5.104819243538455339e+03 1.561116688519104345e+00 6.525538782811719091e-03
5.109924062781995417e+03 1.566308627861710656e+00 6.616375010796429583e-03
5.115033986844779065e+03 1.577296382063672064e+00 5.103862827746122321e-03
5.120149020831625421e+03 1.586551812237073200e+00 4.326005560733430129e-03
5.125269169852458617e+03 1.591074284314780707e+00 4.715678316408292853e-03
5.130394439022313236e+03 1.581629392563971948e+00 5.254606534439730525e-03
5.135524833461337039e+03 1.567317750507114527e+00 6.588352317292674350e-03
5.140660358294800062e+03 1.558986785666719221e+00 6.368818649911334867e-03
5.145801018653096435e+03 1.555447055470693840e+00 6.305192323440487329e-03
5.150946819671751655e+03 1.551421059244002976e+00 6.252439605483993933e-03
5.156097766491425318e+03 1.556917794784778764e+00 7.678774286108905854e-03
5.161253864257918394e+03 1.564393806465279368e+00 7.987636377855916042e-03
5.166415118122177773e+03 1.563971997092299837e+00 7.853941425812338215e-03
5.171581533240301724e+03 1.567369913715712881e+00 8.435486390535184772e-03
5.176753114773543530e+03 1.557796054503942873e+00 8.476114251258159982e-03
5.181929867888318768e+03 1.544236023478371411e+00 8.780680651750479015e-03
5.187111797756208944e+03 1.528465300390556170e+00 9.481851611948274514e-03
5.192298909553966951e+03 1.511169741356374718e+00 9.593196237996969369e-03
5.197491208463522526e+03 1.499598895978738522e+00 9.389677537759939796e-03
5.202688699671987706e+03 1.483494568807622205e+00 9.103795473077158640e-03
5.207891388371661378e+03 1.476599949144005164e+00 8.941134785577859595e-03
5.213099279760034733e+03 1.478333786920579485e+00 9.656856962837126121e-03
5.218312379039796724e+03 1.483262833016852689e+00 9.759180441451624499e-03
5.223530691418837705e+03 1.499214941258867118e+00 8.039012041845663981e-03
5.228754222110258524e+03 1.508508257430142940e+00 7.554874921003732965e-03
5.233982976332370527e+03 1.511297171598285027e+00 7.646972882074045026e-03
5.239216959308704645e+03 1.514941266509407747e+00 7.656471681754374072e-03
5.244456176268015042e+03 1.511813368942338753e+00 7.715233428788566446e-03
5.249700632444284565e+03 1.495348188417760404e+00 7.544850341767465537e-03
5.254950333076731113e+03 1.480834847497216611e+00 7.592792844212797009e-03
5.260205283409809454e+03 1.467508545488899196e+00 7.670198828709077522e-03
5.265465488693221232e+03 1.457034131503602170e+00 6.515407433102662210e-03
5.270730954181915877e+03 1.462612600613640401e+00 6.305710754428244663e-03
5.276001685136099695e+03 1.465405952103091103e+00 6.140187448928729336e-03
5.281277686821237694e+03 1.473005679724201489e+00 6.212810910419148090e-03
5.286558964508059944e+03 1.483446781038563422e+00 6.417891113326731900e-03
5.291845523472569766e+03 1.500163086322568118e+00 7.192030786979747292e-03
5.297137368996044643e+03 1.516723930873561610e+00 6.369365406732684955e-03
5.302434506365042580e+03 1.514869095948595978e+00 6.660369471191026486e-03
