# starting wavelength: 4066.560
# ending wavelength: 10686.500
# wav flux eflux
4.068597997085794304e+03 3.914903559178522396e+00 9.468333725025775138e-02
4.072666595082881486e+03 3.519820554897879816e+00 7.727540665401898268e-02
4.076739261677965715e+03 3.266936217338479054e+00 6.503090715268704247e-02
4.080816000939644709e+03 3.101637989521165206e+00 5.276419339609680903e-02
4.084896816940585722e+03 2.990674770694427664e+00 4.333790191322790808e-02
4.088981713757527814e+03 2.914147474586962883e+00 3.575923743423003315e-02
4.093070695471286854e+03 2.859418982934135212e+00 2.938807142132123310e-02
4.097163766166759160e+03 2.821044144482255600e+00 2.537535914724611472e-02
4.101260929932927866e+03 2.788912849485274403e+00 2.299780041224140301e-02
4.105362190862862008e+03 2.761173066130213627e+00 2.055950063612064713e-02
4.109467553053726078e+03 2.739431313632770149e+00 1.833933952271519716e-02
4.113577020606780934e+03 2.726506265089291503e+00 1.638168672168850010e-02
4.117690597627389252e+03 2.716645027320973682e+00 1.501507033625742310e-02
4.121808288225018259e+03 2.707415939845714270e+00 1.414616085610115835e-02
4.125930096513244280e+03 2.704620267824746183e+00 1.337649078603869203e-02
4.130056026609759101e+03 2.706947582696167309e+00 1.273198912346765015e-02
4.134186082636369974e+03 2.710597212033125203e+00 1.230003851159140217e-02
4.138320268719007800e+03 2.716593122446782971e+00 1.193819550326402114e-02
4.142458588987728035e+03 2.727109355090998388e+00 1.162364035669681550e-02
4.146601047576717065e+03 2.726102784467216100e+00 9.022544062449552871e-03
4.150747648624294925e+03 2.727874532139423547e+00 7.398841278886120545e-03
4.154898396272920763e+03 2.737020890208529789e+00 7.091473963609193354e-03
4.159053294669195566e+03 2.748811294083935319e+00 7.119059514258916331e-03
4.163212347963865795e+03 2.765045539562139609e+00 7.222500568011164766e-03
4.167375560311830668e+03 2.784399657278881612e+00 7.011362893837857178e-03
4.171542935872143971e+03 2.809216066506098564e+00 5.419197223358936978e-03
4.175714478808017702e+03 2.827120253442483744e+00 4.928601979889369634e-03
4.179890193286827525e+03 2.845459422136025651e+00 3.883280288887665764e-03
4.184070083480115500e+03 2.853631353094403966e+00 3.753989581191869481e-03
4.188254153563597356e+03 2.852624433857932740e+00 3.639580930520406286e-03
4.192442407717161586e+03 2.848589109599028113e+00 3.807478838912447747e-03
4.196634850124880359e+03 2.845122992848408305e+00 3.812722453689075183e-03
4.200831484975006788e+03 2.841179955457413087e+00 3.791470247632603568e-03
4.205032316459983122e+03 2.835026325345757492e+00 3.922417631770458955e-03
4.209237348776444378e+03 2.821248467609887900e+00 4.165292853887511172e-03
4.213446586125221984e+03 2.811430510832908070e+00 4.043983301556171653e-03
4.217660032711349231e+03 2.804174003653567837e+00 3.948610715971804380e-03
4.221877692744061278e+03 2.795068628147978629e+00 3.832191427017425742e-03
4.226099570436806971e+03 2.785422273661003256e+00 3.609515363196709892e-03
4.230325670007245208e+03 2.780762164681094273e+00 3.699590648986601435e-03
4.234555995677254032e+03 2.777325929801635063e+00 3.755297781103617005e-03
4.238790551672932452e+03 2.775084839745423082e+00 3.759691445275428409e-03
4.243029342224606808e+03 2.775652413807763619e+00 3.718748623057491470e-03
4.247272371566832589e+03 2.773268032022031093e+00 3.741047842628334678e-03
4.251519643938400804e+03 2.770669681709136523e+00 3.782378386884862123e-03
4.255771163582340705e+03 2.771767242568017764e+00 3.815769330789378199e-03
4.260026934745924336e+03 2.772656269558856135e+00 3.235271914981142569e-03
4.264286961680671993e+03 2.771149252219988757e+00 2.997480064587118055e-03
4.268551248642354039e+03 2.766074195977579198e+00 3.143702985629086982e-03
4.272819799890998183e+03 2.761738612625161071e+00 3.226790820502446148e-03
4.277092619690890388e+03 2.756016732751946918e+00 3.355582383985253932e-03
4.281369712310583054e+03 2.746654771273981499e+00 3.350839095369993574e-03
4.285651082022895025e+03 2.737482873921551096e+00 3.499107187749023792e-03
4.289936733104918858e+03 2.731411491022585736e+00 3.365000765251337927e-03
4.294226669838025373e+03 2.729613440832895144e+00 3.327178754430597501e-03
4.298520896507864563e+03 2.729266358591559083e+00 3.332779100635761566e-03
4.302819417404373780e+03 2.729561920416362586e+00 3.347767190413137705e-03
4.307122236821779552e+03 2.734553151925706693e+00 4.239418718836760087e-03
4.311429359058603040e+03 2.736625982267785862e+00 4.444869164858455610e-03
4.315740788417662770e+03 2.735405116128147629e+00 4.458018050975912951e-03
4.320056529206081905e+03 2.735765190322192009e+00 4.376001469313266223e-03
4.324376585735290064e+03 2.738331106473221865e+00 4.324062767476514677e-03
4.328700962321026054e+03 2.739479476351541098e+00 4.330946297844991306e-03
4.333029663283348782e+03 2.737310424756239424e+00 4.272439916026046954e-03
4.337362692946633615e+03 2.734902501019335297e+00 4.022560100556101317e-03
4.341700055639581478e+03 2.728078440346189737e+00 4.065783051952318213e-03
4.346041755695222491e+03 2.715611764262102046e+00 4.180401600491011338e-03
4.350387797450919606e+03 2.705298037496201680e+00 4.217939265202367422e-03
4.354738185248371337e+03 2.692597415861794019e+00 4.201057143781146939e-03
4.359092923433621763e+03 2.677363216997718176e+00 4.175548880378372046e-03
4.363452016357056891e+03 2.655227787115724158e+00 4.033706357006034728e-03
4.367815468373414660e+03 2.637120927469350118e+00 4.031487501502695539e-03
4.372183283841789489e+03 2.619399185142755826e+00 4.075871225329015003e-03
4.376555467125633186e+03 2.596614230535654766e+00 4.182983031508619859e-03
4.380932022592760404e+03 2.577350669416336171e+00 4.253634754718625330e-03
4.385312954615354101e+03 2.562178388518851158e+00 4.275548782513529343e-03
4.389698267569970994e+03 2.547254189018559156e+00 4.282568867048702418e-03
4.394087965837542470e+03 2.533168042911593698e+00 4.359721199917480569e-03
4.398482053803381859e+03 2.524272129698568179e+00 4.374020137949395128e-03
4.402880535857186260e+03 2.517746148588328570e+00 4.395955919353967956e-03
4.407283416393044718e+03 2.511738595012485753e+00 4.408555213206114855e-03
4.411690699809440048e+03 2.505792776364863528e+00 4.401856096152287519e-03
4.416102390509250654e+03 2.498431449727155584e+00 4.284726389374135351e-03
4.420518492899761441e+03 2.496933121749920659e+00 4.199570667111546252e-03
4.424939011392662906e+03 2.503989051295373525e+00 4.573528279846568977e-03
4.429363950404056595e+03 2.512149520351956600e+00 4.745984677989928055e-03
4.433793314354462382e+03 2.525117606540182358e+00 4.526442139427502842e-03
4.438227107668818462e+03 2.539047793050455137e+00 4.114525787309830131e-03
4.442665334776488635e+03 2.547444808340272537e+00 4.062975436160946689e-03
4.447108000111265937e+03 2.554710490600160977e+00 4.043309731785481309e-03
4.451555108111379013e+03 2.565611180589338680e+00 3.953463083726344376e-03
4.456006663219492111e+03 2.577880160914059360e+00 3.889911251454386196e-03
4.460462669882713271e+03 2.586777107207656634e+00 3.913053293203852361e-03
4.464923132552597053e+03 2.596297781678478245e+00 3.859784362211101608e-03
4.469388055685150903e+03 2.603994829568621494e+00 3.778065239447906971e-03
4.473857443740837880e+03 2.614071748877337509e+00 3.742961430750098729e-03
4.478331301184580298e+03 2.624663360402850198e+00 3.610754838429002748e-03
4.482809632485766087e+03 2.630532482539345907e+00 3.559058206839454345e-03
4.487292442118253348e+03 2.634727477313328237e+00 3.560007254625765800e-03
4.491779734560373072e+03 2.640057485180489216e+00 3.548832725185698846e-03
4.496271514294934605e+03 2.647344309908290505e+00 3.565345696207467691e-03
4.500767785809231100e+03 2.650438772784079688e+00 3.272446704506516962e-03
4.505268553595042249e+03 2.659374080728092338e+00 3.168301160883113358e-03
4.509773822148638828e+03 2.668998596414029034e+00 3.174926542337834588e-03
4.514283595970789065e+03 2.675614028477616202e+00 3.094193783082960312e-03
4.518797879566761367e+03 2.687632193171028305e+00 3.147861832275353731e-03
4.523316677446328868e+03 2.699343284353950434e+00 3.078884111842487142e-03
4.527839994123776705e+03 2.703563214184284913e+00 3.056662938813823477e-03
4.532367834117902021e+03 2.705401235920565028e+00 3.024073689312831593e-03
4.536900201952022144e+03 2.704539961175761675e+00 2.914761310829969490e-03
4.541437102153975502e+03 2.708098517238874514e+00 2.739732418661606182e-03
4.545978539256130716e+03 2.706720712826128583e+00 2.369126496180719819e-03
4.550524517795388419e+03 2.698723213230856288e+00 2.770040862039716174e-03
4.555075042313184895e+03 2.692138748823371230e+00 2.807441769719008946e-03
4.559630117355500261e+03 2.684140708188193614e+00 2.938792200551640799e-03
4.564189747472856652e+03 2.667765281057498328e+00 2.962559057439916564e-03
4.568753937220330954e+03 2.646452130548453852e+00 2.995258341472135932e-03
4.573322691157552981e+03 2.624494178161789648e+00 2.830301746723545755e-03
4.577896013848711846e+03 2.603505402430617455e+00 2.735988503681566902e-03
4.582473909862562323e+03 2.585540588370527804e+00 2.750448835354731957e-03
4.587056383772426670e+03 2.572289995471758850e+00 2.818427405029890788e-03
4.591643440156200086e+03 2.562830296278824083e+00 2.790032035998687553e-03
4.596235083596357981e+03 2.553539893723629994e+00 2.814449526081297566e-03
4.600831318679955984e+03 2.543376179843527485e+00 2.830352613478959861e-03
4.605432149998637215e+03 2.531593800009875661e+00 2.976249538344290409e-03
4.610037582148637739e+03 2.523004974474904571e+00 3.014584443400010992e-03
4.614647619730787483e+03 2.518834432403564971e+00 3.203817203857097298e-03
4.619262267350520233e+03 2.514849215110590563e+00 3.227817331924561634e-03
4.623881529617872729e+03 2.509903623099026593e+00 3.239174555876122522e-03
4.628505411147491941e+03 2.507202672520610243e+00 3.106713743611611619e-03
4.633133916558640522e+03 2.500432078254260837e+00 3.096939302979603587e-03
4.637767050475200449e+03 2.489499217650526841e+00 3.263418005115482825e-03
4.642404817525677572e+03 2.479057277171318852e+00 3.391174660343222649e-03
4.647047222343205249e+03 2.470241351929939100e+00 3.432939027795116338e-03
4.651694269565549803e+03 2.458600718604683877e+00 3.192720396713915210e-03
4.656345963835116891e+03 2.448575214680275280e+00 2.722788645310626841e-03
4.661002309798953320e+03 2.448513745796053076e+00 2.662811935119312017e-03
4.665663312108753416e+03 2.449384854241998699e+00 2.486243165245325629e-03
4.670328975420864481e+03 2.447691459237625100e+00 2.421475630171341514e-03
4.674999304396286789e+03 2.449527900754470799e+00 2.443903478151355623e-03
4.679674303700684504e+03 2.454227715474286420e+00 2.554006999196306582e-03
4.684353978004386590e+03 2.458413732282918041e+00 2.592491890951797301e-03
4.689038331982392265e+03 2.465213764481876790e+00 2.313731861287703345e-03
4.693727370314376458e+03 2.471241140170703066e+00 2.114188823102480189e-03
4.698421097684692540e+03 2.475052340472146728e+00 2.023182399853866269e-03
4.703119518782378691e+03 2.473336908530669120e+00 1.837546820497613009e-03
4.707822638301162442e+03 2.467508494444749623e+00 1.538364539323230137e-03
4.712530460939465229e+03 2.464208383286610626e+00 1.526289537236749563e-03
4.717242991400406027e+03 2.459137328557722046e+00 1.517142028566878867e-03
4.721960234391808626e+03 2.453572916124148851e+00 1.472022645694953365e-03
4.726682194626201635e+03 2.448610955874365835e+00 1.344456958869601074e-03
4.731408876820829391e+03 2.440274966497815168e+00 1.471361445573696886e-03
4.736140285697651962e+03 2.431323607110100760e+00 1.604209502543527729e-03
4.740876425983350600e+03 2.428450290795220123e+00 1.737354272190037201e-03
4.745617302409335934e+03 2.426347510922706174e+00 1.822905940313159032e-03
4.750362919711747054e+03 2.425821728277731459e+00 1.818709965343594075e-03
4.755113282631459697e+03 2.431108847449487076e+00 1.927788600787650256e-03
4.759868395914093526e+03 2.431440267541272071e+00 1.972187519870069981e-03
4.764628264310008490e+03 2.432151775552914508e+00 1.966940755210918896e-03
4.769392892574320285e+03 2.434007618995224664e+00 1.942713320475248110e-03
4.774162285466896719e+03 2.434374285946470984e+00 1.879392975864392894e-03
4.778936447752364984e+03 2.430962579843999105e+00 2.104488554251384216e-03
4.783715384200118933e+03 2.429162074796368032e+00 2.131381134176992334e-03
4.788499099584319993e+03 2.428778260108803710e+00 2.254949793269566804e-03
4.793287598683906253e+03 2.425700662564644894e+00 2.228188618987555093e-03
4.798080886282591564e+03 2.422790439300277043e+00 2.265387555363706194e-03
4.802878967168876443e+03 2.417714649196762711e+00 2.241151225433240905e-03
4.807681846136046261e+03 2.413223833653605155e+00 2.220462626856510146e-03
4.812489527982183972e+03 2.411244543754350378e+00 2.172133989340676793e-03
4.817302017510168298e+03 2.407822981658247041e+00 2.182161013024131856e-03
4.822119319527679181e+03 2.402512113828519702e+00 2.250822118832284269e-03
4.826941438847208701e+03 2.397310022474117730e+00 2.050531001576213520e-03
4.831768380286057436e+03 2.394569810255790188e+00 2.047919241902219217e-03
4.836600148666345376e+03 2.394987187646911764e+00 2.323872455595194647e-03
4.841436748815013743e+03 2.390926709581449483e+00 2.521375564578689967e-03
4.846278185563829538e+03 2.384129420979543834e+00 2.489750644012416955e-03
4.851124463749395545e+03 2.376922407926208347e+00 2.486376339652594022e-03
4.855975588213146693e+03 2.367597062268232744e+00 2.453889616438744131e-03
4.860831563801360971e+03 2.358237287145744876e+00 2.420998859709716337e-03
4.865692395365163975e+03 2.345583823803997436e+00 2.412869231675970720e-03
4.870558087760530725e+03 2.329588937078582944e+00 2.194746603749794106e-03
4.875428645848292945e+03 2.313420445599855935e+00 2.203966428621768198e-03
4.880304074494142696e+03 2.305586505933553187e+00 2.249959586791667500e-03
4.885184378568638749e+03 2.298942957808858267e+00 2.394975669896038956e-03
4.890069562947209306e+03 2.294811809292589100e+00 2.411729873870826438e-03
4.894959632510157462e+03 2.292348280913444114e+00 2.352985755201987463e-03
4.899854592142669389e+03 2.288543518716429581e+00 2.337339978288689116e-03
4.904754446734813428e+03 2.285581329455986133e+00 2.162585038410867223e-03
4.909659201181550088e+03 2.282035623782072697e+00 2.107892065912790516e-03
4.914568860382732964e+03 2.273213685613262758e+00 2.121569603271507634e-03
4.919483429243117826e+03 2.263093907556084527e+00 2.187731440232848924e-03
4.924402912672362618e+03 2.254301093367996778e+00 2.123906699349665909e-03
4.929327315585036558e+03 2.247799630404152982e+00 2.175686849812926218e-03
4.934256642900622865e+03 2.240745141195778611e+00 2.092382490411864599e-03
4.939190899543525120e+03 2.226656703362956513e+00 1.951260112361912543e-03
4.944130090443070912e+03 2.214199737446311822e+00 1.924082890434033067e-03
4.949074220533515472e+03 2.205106205108156026e+00 1.840448702625554697e-03
4.954023294754050767e+03 2.196016968661815838e+00 1.806527313440389792e-03
4.958977318048806410e+03 2.188029029118077506e+00 1.753707438239905485e-03
4.963936295366856939e+03 2.179309140501314968e+00 1.779345146908578503e-03
4.968900231662225451e+03 2.165696627167930988e+00 1.637387313381981520e-03
4.973869131893889062e+03 2.151959528379434605e+00 1.695877346326809176e-03
4.978843001025784361e+03 2.140372606830336810e+00 1.724871046792171049e-03
4.983821844026811959e+03 2.129928286233403689e+00 1.709180932833375246e-03
4.988805665870840130e+03 2.121629236774560834e+00 1.723752003182217130e-03
4.993794471536712990e+03 2.114230309280830333e+00 1.711311954676451690e-03
4.998788266008251412e+03 2.105824920872448214e+00 1.753100741958607675e-03
5.003787054274261209e+03 2.101711402599143685e+00 1.772154361428656929e-03
5.008790841328536771e+03 2.099464018458854220e+00 1.832105001253752198e-03
5.013799632169867436e+03 2.094123064145992696e+00 1.805859608243665223e-03
5.018813431802038394e+03 2.093615492765555697e+00 1.829348743083473398e-03
5.023832245233842514e+03 2.095880099183856426e+00 1.700614258516505110e-03
5.028856077479077612e+03 2.096090523777535797e+00 1.786917662619476495e-03
5.033884933556558281e+03 2.097114211861144550e+00 1.766886163587926689e-03
5.038918818490116792e+03 2.097919202013790230e+00 1.692974030992205415e-03
5.043957737308608557e+03 2.099297087675491724e+00 1.771597415889123025e-03
5.049001695045918495e+03 2.099026032573838574e+00 1.796579385869785531e-03
5.054050696740966487e+03 2.098799555583583221e+00 1.812191981235398595e-03
5.059104747437709193e+03 2.097973267640372619e+00 1.664822340693587971e-03
5.064163852185148244e+03 2.093024277432439906e+00 1.651214602194563553e-03
5.069228016037335692e+03 2.084229037956943476e+00 1.705433073856297936e-03
5.074297244053374015e+03 2.074075954127456267e+00 1.720444791346570530e-03
5.079371541297429758e+03 2.063782186493476445e+00 1.810189222288325793e-03
5.084450912838728073e+03 2.056878287342382539e+00 1.813617105825091969e-03
5.089535363751569093e+03 2.051158204599894841e+00 1.768528200131399197e-03
5.094624899115322478e+03 2.046580838169414829e+00 1.794721935565368439e-03
5.099719524014439230e+03 2.045442002565911022e+00 2.240082329577130354e-03
5.104819243538455339e+03 2.043113883920416374e+00 2.032237782935095768e-03
5.109924062781995417e+03 2.039243733591538987e+00 2.031460080166578794e-03
5.115033986844779065e+03 2.036336088318170034e+00 1.886902604753713884e-03
5.120149020831625421e+03 2.033256006188711051e+00 1.771028239394419664e-03
5.125269169852458617e+03 2.025408138244248146e+00 1.750657129311202886e-03
5.130394439022313236e+03 2.018945822154468939e+00 1.712810931145901860e-03
5.135524833461337039e+03 2.010680701427900896e+00 1.783483270528670849e-03
5.140660358294800062e+03 2.003957144762700260e+00 1.666962350599917285e-03
5.145801018653096435e+03 2.000932196448032219e+00 1.751400628833597569e-03
5.150946819671751655e+03 1.999752692300552415e+00 1.900758359730081231e-03
5.156097766491425318e+03 1.998113556877710417e+00 1.794932524227816273e-03
5.161253864257918394e+03 1.996779212359985012e+00 1.781303456989052425e-03
5.166415118122177773e+03 1.998416075057985353e+00 1.843558307022180815e-03
5.171581533240301724e+03 1.996525895178979271e+00 1.850781729109654290e-03
5.176753114773543530e+03 1.990288957348693044e+00 1.879840171730032782e-03
5.181929867888318768e+03 1.981589272236830235e+00 1.979351297674618315e-03
5.187111797756208944e+03 1.972728306529579978e+00 2.047202753153844548e-03
5.192298909553966951e+03 1.967585570931492001e+00 2.114422308552924012e-03
5.197491208463522526e+03 1.965424428545075708e+00 2.173452714306375530e-03
5.202688699671987706e+03 1.958494437894646722e+00 2.128883348492037995e-03
5.207891388371661378e+03 1.950234316552269975e+00 2.111651797637873699e-03
5.213099279760034733e+03 1.946005187036963013e+00 2.080372938827114611e-03
5.218312379039796724e+03 1.941882538701856564e+00 2.096576954824108403e-03
5.223530691418837705e+03 1.938981235105394330e+00 2.118487888866747194e-03
5.228754222110258524e+03 1.940274183457841861e+00 2.099390961509023466e-03
5.233982976332370527e+03 1.942690284373298271e+00 2.361644970130392669e-03
5.239216959308704645e+03 1.943498367824659345e+00 2.438181193621971089e-03
5.244456176268015042e+03 1.944335101504845120e+00 2.324550779964233704e-03
5.249700632444284565e+03 1.941452776437295968e+00 2.355103373982432146e-03
5.254950333076731113e+03 1.935250752822259557e+00 2.420784213676278537e-03
5.260205283409809454e+03 1.929818585209935211e+00 2.377382934036758027e-03
5.265465488693221232e+03 1.926901087668455359e+00 2.300899667352925872e-03
5.270730954181915877e+03 1.922151449334269957e+00 2.276330311935643568e-03
5.276001685136099695e+03 1.915424196425885794e+00 2.237769605130269807e-03
5.281277686821237694e+03 1.909127511620387629e+00 2.036261751712542620e-03
5.286558964508059944e+03 1.903768855173627372e+00 1.882761838413981844e-03
5.291845523472569766e+03 1.901038730785664210e+00 1.833342097971647896e-03
5.297137368996044643e+03 1.901684381015873671e+00 1.604291121344436763e-03
