# starting wavelength: 4066.530
# ending wavelength: 10688.800
# wav flux eflux
4.068597997085794304e+03 1.814727920643378845e+00 1.932202132365172520e-01
4.072666595082881486e+03 1.802858567286057312e+00 1.403891587435508181e-01
4.076739261677965715e+03 1.793464352975175480e+00 1.043955979499880393e-01
4.080816000939644709e+03 1.787534297309473441e+00 7.961183448548428410e-02
4.084896816940585722e+03 1.781857560003198504e+00 6.180724964065999194e-02
4.088981713757527814e+03 1.775091717006138436e+00 4.917461315674275663e-02
4.093070695471286854e+03 1.763855819037745354e+00 3.988122650141735781e-02
4.097163766166759160e+03 1.748324063716388821e+00 3.269666277532669307e-02
4.101260929932927866e+03 1.729658764865301901e+00 2.750878876362096784e-02
4.105362190862862008e+03 1.709195618183839915e+00 2.361288430719927015e-02
4.109467553053726078e+03 1.686075207749013094e+00 2.071951062437566923e-02
4.113577020606780934e+03 1.662357195007394317e+00 1.852046719279567405e-02
4.117690597627389252e+03 1.638466617096102196e+00 1.683171162027655501e-02
4.121808288225018259e+03 1.615667391461492297e+00 1.559420731040828123e-02
4.125930096513244280e+03 1.593809625226129345e+00 1.464585768105874063e-02
4.130056026609759101e+03 1.574706677326518589e+00 1.399046703279803114e-02
4.134186082636369974e+03 1.554904030324048669e+00 1.353643084577888650e-02
4.138320268719007800e+03 1.535353068318455083e+00 1.310549807771969714e-02
4.142458588987728035e+03 1.515138075681182528e+00 1.272305682549034790e-02
4.146601047576717065e+03 1.491237043975164545e+00 1.229839750353215605e-02
4.150747648624294925e+03 1.482909215602015829e+00 9.896304827236052093e-03
4.154898396272920763e+03 1.456916556481025804e+00 8.202817391159324817e-03
4.159053294669195566e+03 1.434895544575666371e+00 7.706511355217036431e-03
4.163212347963865795e+03 1.414325563012633458e+00 7.520950686769610136e-03
4.167375560311830668e+03 1.405355888418357901e+00 7.056206354919658530e-03
4.171542935872143971e+03 1.400846339127068685e+00 6.924096812240009002e-03
4.175714478808017702e+03 1.401030710166407900e+00 7.093108710721593435e-03
4.179890193286827525e+03 1.398064282108875345e+00 6.654217737791253903e-03
4.184070083480115500e+03 1.400073977101220724e+00 6.097829669523248397e-03
4.188254153563597356e+03 1.409056424674267172e+00 5.724962934020912803e-03
4.192442407717161586e+03 1.422724304410455387e+00 5.391535496783863429e-03
4.196634850124880359e+03 1.443520732905312798e+00 5.498769838830574151e-03
4.200831484975006788e+03 1.469010188354258339e+00 5.668510850730926545e-03
4.205032316459983122e+03 1.497181689055690157e+00 5.823334558324350617e-03
4.209237348776444378e+03 1.530960040962986435e+00 6.332707356494886482e-03
4.213446586125221984e+03 1.567082823994094154e+00 6.658513977164621372e-03
4.217660032711349231e+03 1.605607350853596849e+00 7.034363553484869122e-03
4.221877692744061278e+03 1.647608545838902483e+00 6.813486011144234515e-03
4.226099570436806971e+03 1.693561026555700844e+00 6.040545323823513606e-03
4.230325670007245208e+03 1.735547822026005882e+00 5.517892831589579251e-03
4.234555995677254032e+03 1.775154741369694200e+00 4.719735919665267627e-03
4.238790551672932452e+03 1.809361634844664835e+00 4.295122862371191994e-03
4.243029342224606808e+03 1.838929738421854809e+00 4.193162221456243378e-03
4.247272371566832589e+03 1.864513909780811440e+00 4.341576108974170602e-03
4.251519643938400804e+03 1.885101248610050684e+00 4.556070768628865154e-03
4.255771163582340705e+03 1.898305515024879320e+00 4.722884052009219090e-03
4.260026934745924336e+03 1.904764423981795129e+00 4.324646537190565167e-03
4.264286961680671993e+03 1.907065213548587490e+00 3.738132617703928719e-03
4.268551248642354039e+03 1.906834530986664333e+00 3.022500372982116993e-03
4.272819799890998183e+03 1.905189659395395640e+00 2.301850381254469217e-03
4.277092619690890388e+03 1.903896707125138699e+00 2.220068500534339191e-03
4.281369712310583054e+03 1.901714162013294684e+00 2.424922252424664866e-03
4.285651082022895025e+03 1.897029778206075656e+00 2.546287340420616118e-03
4.289936733104918858e+03 1.893198651970893875e+00 2.994210230223582139e-03
4.294226669838025373e+03 1.886423113372400318e+00 3.142123625777805580e-03
4.298520896507864563e+03 1.878171751927992572e+00 2.825091264491867270e-03
4.302819417404373780e+03 1.866682200418141369e+00 2.495504539505123687e-03
4.307122236821779552e+03 1.850527703096752186e+00 2.539787684435044612e-03
4.311429359058603040e+03 1.832466611366857956e+00 2.625938780657384626e-03
4.315740788417662770e+03 1.811237287887586200e+00 2.789877938950097863e-03
4.320056529206081905e+03 1.789574212024168220e+00 2.916255595182558162e-03
4.324376585735290064e+03 1.768213343044195973e+00 2.933279921879047066e-03
4.328700962321026054e+03 1.745949276960387042e+00 2.975486153445273691e-03
4.333029663283348782e+03 1.721461428758816137e+00 3.178444417845306420e-03
4.337362692946633615e+03 1.695502401316720809e+00 3.157056885081246673e-03
4.341700055639581478e+03 1.671993594791353566e+00 2.961991760998775036e-03
4.346041755695222491e+03 1.649533407917377570e+00 2.691905411936314566e-03
4.350387797450919606e+03 1.629715101419581647e+00 2.549851438512015442e-03
4.354738185248371337e+03 1.611183323572377368e+00 2.253465001594207040e-03
4.359092923433621763e+03 1.597949461960750828e+00 2.513942915686500062e-03
4.363452016357056891e+03 1.587511839531284386e+00 2.679010996449473180e-03
4.367815468373414660e+03 1.580056159754591683e+00 2.663894604533413764e-03
4.372183283841789489e+03 1.574239776904202692e+00 2.544386494259702220e-03
4.376555467125633186e+03 1.569875189596928067e+00 2.542181747820508771e-03
4.380932022592760404e+03 1.568168057025228546e+00 2.486241488315046530e-03
4.385312954615354101e+03 1.569941618350456425e+00 2.353894141857197902e-03
4.389698267569970994e+03 1.573573347643834719e+00 2.204134506121898686e-03
4.394087965837542470e+03 1.576739690783171222e+00 2.289199904474436328e-03
4.398482053803381859e+03 1.580265683220938966e+00 2.184611840105514166e-03
4.402880535857186260e+03 1.585325990062112167e+00 2.029971941297244349e-03
4.407283416393044718e+03 1.591952607361972971e+00 1.989496878966077326e-03
4.411690699809440048e+03 1.600567997021579592e+00 2.053450628820974958e-03
4.416102390509250654e+03 1.609174519982343510e+00 2.051346480059020212e-03
4.420518492899761441e+03 1.620400749195739287e+00 1.925640465751718607e-03
4.424939011392662906e+03 1.633134944934257815e+00 1.860454302293586748e-03
4.429363950404056595e+03 1.645700694331841074e+00 1.849772591247314741e-03
4.433793314354462382e+03 1.657638745204248920e+00 1.873258955210854466e-03
4.438227107668818462e+03 1.668815292473665446e+00 1.972773583220867148e-03
4.442665334776488635e+03 1.681393261340621947e+00 2.018628059229214157e-03
4.447108000111265937e+03 1.695356191914358712e+00 2.053580172878233592e-03
4.451555108111379013e+03 1.708737005616973725e+00 2.142472552182059491e-03
4.456006663219492111e+03 1.723033161444754713e+00 2.159005407577874527e-03
4.460462669882713271e+03 1.735648011540034119e+00 1.989620942887389363e-03
4.464923132552597053e+03 1.748718310101433637e+00 1.894804182636615399e-03
4.469388055685150903e+03 1.763846772123801809e+00 2.279900489495609046e-03
4.473857443740837880e+03 1.775820394020242610e+00 2.441249047688806833e-03
4.478331301184580298e+03 1.786917112742261837e+00 2.562859882242847151e-03
4.482809632485766087e+03 1.799940688201076444e+00 2.494473320115635044e-03
4.487292442118253348e+03 1.813394342517828273e+00 2.407681203605395621e-03
4.491779734560373072e+03 1.824672851548251318e+00 2.389112557186378726e-03
4.496271514294934605e+03 1.833081942343459447e+00 2.443167538041115996e-03
4.500767785809231100e+03 1.840042085196066379e+00 2.457406160377012105e-03
4.505268553595042249e+03 1.847773776484801678e+00 2.504184502629161393e-03
4.509773822148638828e+03 1.853069127656945758e+00 2.550275345919278316e-03
4.514283595970789065e+03 1.856113463863225954e+00 2.591760183716078619e-03
4.518797879566761367e+03 1.859755315611173687e+00 2.824670682727911577e-03
4.523316677446328868e+03 1.861308201589369604e+00 2.817254220021281515e-03
4.527839994123776705e+03 1.861570524912131708e+00 2.924932585537948736e-03
4.532367834117902021e+03 1.859460640414594135e+00 2.931018329686102281e-03
4.536900201952022144e+03 1.853379675411213734e+00 3.188191823371832895e-03
4.541437102153975502e+03 1.848218463011684687e+00 3.173669207945388395e-03
4.545978539256130716e+03 1.842376904281374683e+00 3.145946099412914258e-03
4.550524517795388419e+03 1.833200324246325730e+00 3.202156742929812127e-03
4.555075042313184895e+03 1.822247195937366060e+00 3.181196267563710621e-03
4.559630117355500261e+03 1.810961328985935204e+00 3.184782845681386181e-03
4.564189747472856652e+03 1.798853980818782006e+00 3.217612282385642550e-03
4.568753937220330954e+03 1.784848419987330459e+00 2.906943408201810835e-03
4.573322691157552981e+03 1.772413903150100500e+00 2.918238132549408597e-03
4.577896013848711846e+03 1.760210303713726887e+00 2.920869740336103169e-03
4.582473909862562323e+03 1.750135953579466719e+00 2.876320918538602302e-03
4.587056383772426670e+03 1.739107775669319400e+00 2.769853279636177133e-03
4.591643440156200086e+03 1.725016898204094318e+00 2.545321193532664415e-03
4.596235083596357981e+03 1.713629976531943155e+00 2.447384188329993458e-03
4.600831318679955984e+03 1.701704024905122958e+00 2.433510714133634012e-03
4.605432149998637215e+03 1.688173480375013691e+00 2.646190836754352960e-03
4.610037582148637739e+03 1.670273925635518797e+00 2.674497193822452951e-03
4.614647619730787483e+03 1.650701295882048836e+00 2.566506032938564719e-03
4.619262267350520233e+03 1.625143897763218659e+00 2.586027663069596916e-03
4.623881529617872729e+03 1.595914529116491121e+00 2.548719267287806109e-03
4.628505411147491941e+03 1.565451912138445811e+00 2.052055119491603356e-03
4.633133916558640522e+03 1.529044406069766104e+00 2.092389007291688575e-03
4.637767050475200449e+03 1.490511513075606809e+00 2.163595112872521153e-03
4.642404817525677572e+03 1.447395577739483352e+00 1.824291825835810130e-03
4.647047222343205249e+03 1.404228878879187015e+00 1.541519160653460029e-03
4.651694269565549803e+03 1.362411121745660703e+00 1.670025980790971120e-03
4.656345963835116891e+03 1.320967234556262415e+00 1.636520612004158321e-03
4.661002309798953320e+03 1.283930663963169350e+00 1.777950464392519161e-03
4.665663312108753416e+03 1.253949193535514262e+00 1.645192874195357995e-03
4.670328975420864481e+03 1.232767293305613965e+00 1.755302051645331709e-03
4.674999304396286789e+03 1.219092933482020857e+00 1.861652381937239096e-03
4.679674303700684504e+03 1.212708188220016137e+00 1.930232618412498118e-03
4.684353978004386590e+03 1.215547831318198435e+00 1.869664201599824556e-03
4.689038331982392265e+03 1.225571816139652270e+00 1.764686412649659787e-03
4.693727370314376458e+03 1.241302070004997926e+00 1.765113639843374910e-03
4.698421097684692540e+03 1.265011842355954208e+00 1.793218220810809376e-03
4.703119518782378691e+03 1.296834238754239976e+00 1.734082569387973040e-03
4.707822638301162442e+03 1.333454544781849993e+00 1.761458899469481136e-03
4.712530460939465229e+03 1.374797881410432687e+00 1.762457277899427905e-03
4.717242991400406027e+03 1.421312725910844232e+00 1.787079033475397162e-03
4.721960234391808626e+03 1.472313211463878391e+00 1.958915987108967357e-03
4.726682194626201635e+03 1.526721102711951383e+00 2.422933439245619422e-03
4.731408876820829391e+03 1.581254778648435888e+00 2.523921763450596729e-03
4.736140285697651962e+03 1.635554265141109020e+00 2.480411852523498484e-03
4.740876425983350600e+03 1.689670570048261711e+00 1.975472343360127475e-03
4.745617302409335934e+03 1.738276667505604500e+00 2.008224092863890049e-03
4.750362919711747054e+03 1.781566136454125093e+00 2.323706910963274901e-03
4.755113282631459697e+03 1.820697797548103791e+00 2.078258338294264491e-03
4.759868395914093526e+03 1.855750751047905434e+00 2.048428168151053119e-03
4.764628264310008490e+03 1.889630466902656236e+00 2.097382955822188824e-03
4.769392892574320285e+03 1.919181493985966158e+00 2.120234181030572831e-03
4.774162285466896719e+03 1.943708700022999558e+00 2.126565909792569372e-03
4.778936447752364984e+03 1.966561554309333104e+00 2.535126946619468968e-03
4.783715384200118933e+03 1.981221999042361848e+00 2.537809222519228115e-03
4.788499099584319993e+03 1.988118828602552624e+00 2.490894129469495462e-03
4.793287598683906253e+03 1.991603955541873860e+00 2.298513181642740204e-03
4.798080886282591564e+03 1.987438460731869805e+00 2.297756604203224536e-03
4.802878967168876443e+03 1.974917529958565510e+00 2.573303542481594677e-03
4.807681846136046261e+03 1.956264720819203884e+00 2.322424341293010362e-03
4.812489527982183972e+03 1.935270803343344337e+00 2.199927322626953757e-03
4.817302017510168298e+03 1.914966022544193791e+00 2.293375997702302993e-03
4.822119319527679181e+03 1.896047065185192837e+00 2.068988134768361305e-03
4.826941438847208701e+03 1.879612429306628085e+00 1.941322987488594901e-03
4.831768380286057436e+03 1.868194055930797903e+00 1.924211351907825253e-03
4.836600148666345376e+03 1.859681289798730486e+00 1.956560491414160215e-03
4.841436748815013743e+03 1.854031771551925001e+00 1.974625076726519921e-03
4.846278185563829538e+03 1.853203538792287386e+00 2.123607097249899985e-03
4.851124463749395545e+03 1.853248195006675481e+00 2.291428276173793337e-03
4.855975588213146693e+03 1.853450065067098196e+00 2.149075372403582655e-03
4.860831563801360971e+03 1.854389325007032463e+00 2.099779542371241637e-03
4.865692395365163975e+03 1.854582088974115139e+00 2.084673726653063237e-03
4.870558087760530725e+03 1.854287321942883038e+00 1.919112030132978089e-03
4.875428645848292945e+03 1.851439297892820912e+00 1.924587567407522399e-03
4.880304074494142696e+03 1.845648336195976569e+00 1.801611420756793177e-03
4.885184378568638749e+03 1.839478436850552567e+00 1.689895898739292041e-03
4.890069562947209306e+03 1.835666886746552429e+00 1.608569883982280836e-03
4.894959632510157462e+03 1.830000784843322625e+00 1.536955780664036241e-03
4.899854592142669389e+03 1.824912840194413910e+00 1.603531267791952295e-03
4.904754446734813428e+03 1.823705535151378676e+00 1.719809500631523094e-03
4.909659201181550088e+03 1.823583945446296317e+00 2.199895081253168579e-03
4.914568860382732964e+03 1.823572279981088951e+00 2.407315747792758420e-03
4.919483429243117826e+03 1.821502585418224740e+00 2.301770461045333713e-03
4.924402912672362618e+03 1.815457118093249056e+00 2.127508946001781861e-03
4.929327315585036558e+03 1.805300765967062571e+00 1.991330690946883832e-03
4.934256642900622865e+03 1.789257152609402990e+00 1.900653182318109806e-03
4.939190899543525120e+03 1.766009664831196035e+00 2.012620032411063971e-03
4.944130090443070912e+03 1.739392656173018636e+00 2.161702392435119278e-03
4.949074220533515472e+03 1.706223442734782436e+00 2.218270009531867100e-03
4.954023294754050767e+03 1.671500070014820372e+00 1.944145411383002304e-03
4.958977318048806410e+03 1.638085210329629948e+00 1.765552364834278550e-03
4.963936295366856939e+03 1.605959004938597223e+00 1.425004316582080110e-03
4.968900231662225451e+03 1.579809441821425020e+00 1.348580251927908704e-03
4.973869131893889062e+03 1.558981158775373688e+00 1.492695036196181515e-03
4.978843001025784361e+03 1.543124025251243925e+00 1.523297977423197129e-03
4.983821844026811959e+03 1.532854840462669621e+00 1.386236336564491013e-03
4.988805665870840130e+03 1.525256433394172051e+00 1.255204239564900251e-03
4.993794471536712990e+03 1.520405245295186614e+00 1.259050852726826273e-03
4.998788266008251412e+03 1.520410621590463807e+00 1.223098785947991304e-03
5.003787054274261209e+03 1.521954813405730578e+00 1.093997952248052744e-03
5.008790841328536771e+03 1.525540576942313375e+00 1.127458953626734022e-03
5.013799632169867436e+03 1.530481888478666175e+00 1.077628804437683312e-03
5.018813431802038394e+03 1.536266893682057599e+00 1.090292603339691659e-03
5.023832245233842514e+03 1.542638319012035186e+00 1.118524838092170180e-03
5.028856077479077612e+03 1.550217521521173758e+00 1.118387023580002084e-03
5.033884933556558281e+03 1.558027002482658130e+00 1.131891494141226305e-03
5.038918818490116792e+03 1.566750422503518259e+00 1.163409447330886973e-03
5.043957737308608557e+03 1.575978350756231272e+00 1.203969382365930848e-03
5.049001695045918495e+03 1.584381513576037959e+00 1.212600757821946347e-03
5.054050696740966487e+03 1.592885822990513622e+00 1.210206188499284236e-03
5.059104747437709193e+03 1.599493318497982042e+00 1.180111643275798695e-03
5.064163852185148244e+03 1.605679415246440200e+00 1.156021458171119882e-03
5.069228016037335692e+03 1.611494484756115009e+00 1.162074185412518591e-03
5.074297244053374015e+03 1.616323466415912069e+00 1.172901635325308703e-03
5.079371541297429758e+03 1.618872902063833941e+00 1.260371053184876572e-03
5.084450912838728073e+03 1.620211515422159243e+00 1.237320067182432880e-03
5.089535363751569093e+03 1.621955924616776290e+00 1.223525458165538758e-03
5.094624899115322478e+03 1.624012832510074889e+00 1.282369682531201045e-03
5.099719524014439230e+03 1.623642598390949487e+00 1.228855230173736459e-03
5.104819243538455339e+03 1.621570348084240276e+00 1.267326475214870752e-03
5.109924062781995417e+03 1.620842933600808999e+00 1.309465123968033213e-03
5.115033986844779065e+03 1.621032709667251437e+00 1.319951129906069389e-03
5.120149020831625421e+03 1.621360995670191318e+00 1.280770814840325291e-03
5.125269169852458617e+03 1.623002344605087188e+00 1.312527689221643047e-03
5.130394439022313236e+03 1.624536117601836249e+00 1.289107063723408117e-03
5.135524833461337039e+03 1.627415973226292056e+00 1.259127403643521461e-03
5.140660358294800062e+03 1.631993206789958073e+00 1.260432738395113198e-03
5.145801018653096435e+03 1.637735916911340572e+00 1.354396722136116211e-03
5.150946819671751655e+03 1.644511558516185135e+00 1.450930513023241742e-03
5.156097766491425318e+03 1.650882332477455083e+00 1.395800179083589963e-03
5.161253864257918394e+03 1.655300752644508044e+00 1.374280967522663191e-03
5.166415118122177773e+03 1.658678177464181447e+00 1.472098373781643467e-03
5.171581533240301724e+03 1.662152241093668437e+00 1.486993922986990261e-03
5.176753114773543530e+03 1.663780069035145415e+00 1.348256187700339580e-03
5.181929867888318768e+03 1.664028160584017701e+00 1.175342786266955850e-03
5.187111797756208944e+03 1.664628592805726948e+00 1.160218228195699719e-03
5.192298909553966951e+03 1.665827776426056062e+00 1.136383436769507638e-03
5.197491208463522526e+03 1.666163793052778619e+00 1.138461654590787724e-03
5.202688699671987706e+03 1.666837769483145326e+00 1.205500973268129258e-03
5.207891388371661378e+03 1.666367223382365204e+00 1.216250861875893237e-03
5.213099279760034733e+03 1.664847434552750860e+00 1.266978997363021582e-03
5.218312379039796724e+03 1.664047563645268291e+00 1.280564642604814941e-03
5.223530691418837705e+03 1.664344421420133502e+00 1.278684329112288621e-03
5.228754222110258524e+03 1.662359272056969539e+00 1.351191244187379369e-03
5.233982976332370527e+03 1.656878934297539407e+00 1.397394591760841003e-03
5.239216959308704645e+03 1.650448067873992564e+00 1.404589353291130216e-03
5.244456176268015042e+03 1.643551690660842501e+00 1.386087276835843351e-03
5.249700632444284565e+03 1.636052172718801323e+00 1.456690904684141471e-03
5.254950333076731113e+03 1.629285112340413733e+00 1.473567772368036778e-03
5.260205283409809454e+03 1.621728780865233421e+00 1.481165152236354381e-03
5.265465488693221232e+03 1.612063085232034121e+00 1.423799980192276635e-03
5.270730954181915877e+03 1.603608935039066985e+00 1.368356597510210623e-03
5.276001685136099695e+03 1.596788958976420369e+00 1.397949226143405978e-03
5.281277686821237694e+03 1.590699828536501492e+00 1.418261898615446465e-03
5.286558964508059944e+03 1.584376060457062918e+00 1.419976050976890988e-03
5.291845523472569766e+03 1.579325156215597437e+00 1.393111272892324235e-03
5.297137368996044643e+03 1.574183533675154845e+00 1.398438143525735462e-03
