# starting wavelength: 4516.830
# ending wavelength: 8001.180
# wav flux eflux
4.518797879566761367e+03 3.358980631485810608e-01 1.820590998227923918e-01
4.523316677446328868e+03 2.655007462648699690e-01 1.446897330774113977e-01
4.527839994123776705e+03 2.974699835480005272e-01 1.267550317785976211e-01
4.532367834117902021e+03 3.733048415450618274e-01 1.073009276929332845e-01
4.536900201952022144e+03 4.764661704369734796e-01 9.516929118814963784e-02
4.541437102153975502e+03 5.719114165832026586e-01 7.998074624939761901e-02
4.545978539256130716e+03 6.551309673539116307e-01 6.579119633417002122e-02
4.550524517795388419e+03 7.291762690384793189e-01 5.363242208249098530e-02
4.555075042313184895e+03 7.965107075454563867e-01 4.503908641021154430e-02
4.559630117355500261e+03 8.550749359940288397e-01 3.874183485776739461e-02
4.564189747472856652e+03 9.056373347778409189e-01 3.402042883533581974e-02
4.568753937220330954e+03 9.402067093040532564e-01 3.103576379239945254e-02
4.573322691157552981e+03 9.650024967440524737e-01 2.916153003256733225e-02
4.577896013848711846e+03 9.773594917629833123e-01 2.804077121407142284e-02
4.582473909862562323e+03 9.805615490594410399e-01 2.777286326333670841e-02
4.587056383772426670e+03 9.801304126435457231e-01 2.778162592241893714e-02
4.591643440156200086e+03 9.849803549660809399e-01 2.770827068401075788e-02
4.596235083596357981e+03 9.894257330707711962e-01 2.736204817145752519e-02
4.600831318679955984e+03 9.823957655492357999e-01 2.562630598776667601e-02
4.605432149998637215e+03 9.806033603972915680e-01 2.384373619642608452e-02
4.610037582148637739e+03 9.799213469238180485e-01 2.188865609754448924e-02
4.614647619730787483e+03 9.848119885036699106e-01 2.172153281200749422e-02
4.619262267350520233e+03 9.994757511961732677e-01 2.127027532084911632e-02
4.623881529617872729e+03 1.030091506739131857e+00 2.232131287149819940e-02
4.628505411147491941e+03 1.077819836744450033e+00 2.281063022953997918e-02
4.633133916558640522e+03 1.137366867938906623e+00 2.213265362048651153e-02
4.637767050475200449e+03 1.184459638677886062e+00 2.083463967949050061e-02
4.642404817525677572e+03 1.228124957636343106e+00 2.004788241146998606e-02
4.647047222343205249e+03 1.259241192537574383e+00 2.036473710045390989e-02
4.651694269565549803e+03 1.271374337395032583e+00 2.037159055046959544e-02
4.656345963835116891e+03 1.284146421220870193e+00 2.049491474334985339e-02
4.661002309798953320e+03 1.297861083475371657e+00 2.090387279721249089e-02
4.665663312108753416e+03 1.316608113667935731e+00 2.087477380453291870e-02
4.670328975420864481e+03 1.334935966356723291e+00 2.023656314956688920e-02
4.674999304396286789e+03 1.348007474734973066e+00 1.997123900626874768e-02
4.679674303700684504e+03 1.348267922880568959e+00 2.027769416169948949e-02
4.684353978004386590e+03 1.339181775259506546e+00 1.951782155973511707e-02
4.689038331982392265e+03 1.321496414635308980e+00 1.752136099167975539e-02
4.693727370314376458e+03 1.299685725721235752e+00 1.659071942043901376e-02
4.698421097684692540e+03 1.272545835353247723e+00 1.617534167384261645e-02
4.703119518782378691e+03 1.254671004932871980e+00 1.656629541127004751e-02
4.707822638301162442e+03 1.236643290098448311e+00 1.649943415641448585e-02
4.712530460939465229e+03 1.221029023670496150e+00 1.496244354378005112e-02
4.717242991400406027e+03 1.193671983763106459e+00 1.424616790053857482e-02
4.721960234391808626e+03 1.155954734022279773e+00 1.376878446172894420e-02
4.726682194626201635e+03 1.112197772037641252e+00 1.316224951860347180e-02
4.731408876820829391e+03 1.053642881885631377e+00 1.349729202762103147e-02
4.736140285697651962e+03 9.867134064989534492e-01 1.394538223323801493e-02
4.740876425983350600e+03 9.184898612118035377e-01 1.501425858046976335e-02
4.745617302409335934e+03 8.379021716597014890e-01 1.698307907842165274e-02
4.750362919711747054e+03 7.573798426563500552e-01 1.571587797570570336e-02
4.755113282631459697e+03 6.751236441977508385e-01 1.151569707984089960e-02
4.759868395914093526e+03 6.196077592565507608e-01 1.067412077518384121e-02
4.764628264310008490e+03 5.874085060605163111e-01 1.157698191476629578e-02
4.769392892574320285e+03 5.763929072434659240e-01 1.299105269909227138e-02
4.774162285466896719e+03 5.735225903651451906e-01 1.399620044941773424e-02
4.778936447752364984e+03 5.759263815167635636e-01 1.600584136759266099e-02
4.783715384200118933e+03 5.885789976902180420e-01 1.657233372969828950e-02
4.788499099584319993e+03 6.001105388967483689e-01 1.602326926093695231e-02
4.793287598683906253e+03 6.182635658580687421e-01 1.617749039531639343e-02
4.798080886282591564e+03 6.408744159896496706e-01 1.647923452805173314e-02
4.802878967168876443e+03 6.623390512554920839e-01 1.739390716817733329e-02
4.807681846136046261e+03 6.917079590353295560e-01 1.853964375500310319e-02
4.812489527982183972e+03 7.227007762028656579e-01 1.851283475051962446e-02
4.817302017510168298e+03 7.482534469915269604e-01 1.712910463134641528e-02
4.822119319527679181e+03 7.858150989631619288e-01 1.795680475727103390e-02
4.826941438847208701e+03 8.174640508270736294e-01 1.911703145565519374e-02
4.831768380286057436e+03 8.559140402025687822e-01 2.057449374451088969e-02
4.836600148666345376e+03 8.952984857746230096e-01 2.252453893518494357e-02
4.841436748815013743e+03 9.358976555229584493e-01 2.125000220583336472e-02
4.846278185563829538e+03 9.505596010394681272e-01 1.677266033699867029e-02
4.851124463749395545e+03 9.377623217042875270e-01 1.536113354137960858e-02
4.855975588213146693e+03 8.890127346655049001e-01 2.273587436162206182e-02
4.860831563801360971e+03 8.341874762898920936e-01 2.703566881801524463e-02
4.865692395365163975e+03 7.545713659649674332e-01 2.462741001619117923e-02
4.870558087760530725e+03 7.105217838825597099e-01 2.109510211694072893e-02
4.875428645848292945e+03 7.031029701095451445e-01 1.711384707393437399e-02
4.880304074494142696e+03 7.445122260575582906e-01 1.505276629686158260e-02
4.885184378568638749e+03 8.481876334549399710e-01 1.806850767295015495e-02
4.890069562947209306e+03 9.933175057539768149e-01 2.147407470820373449e-02
4.894959632510157462e+03 1.166839239118368399e+00 2.252827381399920975e-02
4.899854592142669389e+03 1.371960483432354438e+00 2.415241462541924469e-02
4.904754446734813428e+03 1.572712635340835829e+00 2.070287479257469296e-02
4.909659201181550088e+03 1.742579942605794407e+00 1.667715384612477800e-02
4.914568860382732964e+03 1.873881790974038619e+00 1.391970612171559984e-02
4.919483429243117826e+03 1.948443130451162464e+00 1.188306576527209564e-02
4.924402912672362618e+03 1.954816117356614313e+00 1.203681843766552309e-02
4.929327315585036558e+03 1.891686743426711281e+00 1.116570174709349481e-02
4.934256642900622865e+03 1.775075235595881651e+00 1.165247633464374342e-02
4.939190899543525120e+03 1.609705456317855443e+00 1.676158743194501241e-02
4.944130090443070912e+03 1.413116782277479722e+00 2.128222174521232635e-02
4.949074220533515472e+03 1.206339096860293836e+00 2.263980220298681192e-02
4.954023294754050767e+03 1.006083812944522204e+00 1.849035524397785527e-02
4.958977318048806410e+03 8.470763461527396343e-01 1.560561171986235389e-02
4.963936295366856939e+03 7.362414951831492971e-01 1.501439005324847406e-02
4.968900231662225451e+03 6.693367006805100994e-01 1.307083358091083551e-02
4.973869131893889062e+03 6.580536449642412355e-01 1.125044384133027167e-02
4.978843001025784361e+03 7.350020708192638308e-01 1.317802546632980236e-02
4.983821844026811959e+03 8.668732235739060599e-01 1.645257210045411589e-02
4.988805665870840130e+03 1.035564831043914946e+00 1.986330310138016350e-02
4.993794471536712990e+03 1.229861537795129856e+00 2.046654581604761061e-02
4.998788266008251412e+03 1.424346916695874876e+00 2.002780642740828107e-02
5.003787054274261209e+03 1.598332397049505804e+00 1.818432336723539017e-02
5.008790841328536771e+03 1.724578435643422836e+00 1.633514885718601040e-02
5.013799632169867436e+03 1.805001317829403984e+00 1.681879710741173220e-02
5.018813431802038394e+03 1.838239123680520448e+00 1.870436614111045323e-02
5.023832245233842514e+03 1.820894498519693983e+00 2.371882925986673954e-02
5.028856077479077612e+03 1.774854730610807341e+00 2.516525633118619001e-02
5.033884933556558281e+03 1.709283300260894034e+00 2.183481403307318755e-02
5.038918818490116792e+03 1.624292105271126774e+00 1.673928627273915323e-02
5.043957737308608557e+03 1.542943086328054214e+00 1.325885128985463367e-02
5.049001695045918495e+03 1.472312477702390821e+00 1.470313011774251194e-02
5.054050696740966487e+03 1.418272621596990968e+00 1.496520472604732400e-02
5.059104747437709193e+03 1.364418398423163703e+00 1.318102575646736691e-02
5.064163852185148244e+03 1.304030071513898381e+00 1.017715610994961682e-02
5.069228016037335692e+03 1.224559611200875198e+00 9.495935927574840341e-03
5.074297244053374015e+03 1.130513190264694101e+00 8.965473885086755468e-03
5.079371541297429758e+03 1.019820044906517342e+00 1.175430469224597770e-02
5.084450912838728073e+03 8.960449995813494217e-01 1.167711730048404291e-02
5.089535363751569093e+03 7.776810902246228396e-01 1.031777751424896826e-02
5.094624899115322478e+03 6.727218578125279125e-01 9.644756388825403287e-03
5.099719524014439230e+03 5.827343212852562626e-01 8.937934766766124361e-03
5.104819243538455339e+03 5.116435122939879676e-01 8.064449761194178445e-03
5.109924062781995417e+03 4.656944336633855319e-01 7.992545320077402288e-03
5.115033986844779065e+03 4.440752252853896187e-01 7.992923999558238998e-03
5.120149020831625421e+03 4.424682019601269278e-01 8.105870236211844618e-03
5.125269169852458617e+03 4.635856512341878788e-01 7.753320739087765992e-03
5.130394439022313236e+03 5.071178587006899274e-01 6.145258562886486350e-03
5.135524833461337039e+03 5.618448894086699452e-01 6.209922863191443335e-03
5.140660358294800062e+03 6.283607752299174010e-01 6.558022351819030663e-03
5.145801018653096435e+03 7.055728927109047310e-01 9.053099450846095048e-03
5.150946819671751655e+03 7.806266635972681778e-01 1.118759198336492788e-02
5.156097766491425318e+03 8.445715373822230143e-01 1.123816816365901146e-02
5.161253864257918394e+03 8.941385707905242786e-01 1.032420335839694288e-02
5.166415118122177773e+03 9.300989079241334112e-01 1.078167295960768580e-02
5.171581533240301724e+03 9.516649851443756969e-01 1.332968191232065426e-02
5.176753114773543530e+03 9.562355269884806885e-01 1.399467602639200767e-02
5.181929867888318768e+03 9.632168895581938450e-01 1.327680284021344817e-02
5.187111797756208944e+03 9.705113461717134182e-01 1.263840575733950027e-02
5.192298909553966951e+03 9.718401543096660822e-01 1.229907795925425963e-02
5.197491208463522526e+03 9.791031598051584961e-01 1.255687857623142591e-02
5.202688699671987706e+03 9.864870591653936982e-01 1.261709220521247017e-02
5.207891388371661378e+03 9.962716693445952121e-01 1.237568570296146420e-02
5.213099279760034733e+03 1.000487574557815673e+00 1.191171950064909626e-02
5.218312379039796724e+03 1.006866261943085039e+00 1.232450788258918593e-02
5.223530691418837705e+03 1.014485399665030707e+00 1.239213006076058353e-02
5.228754222110258524e+03 1.022704606457706333e+00 1.280321505065886573e-02
5.233982976332370527e+03 1.022263387630735654e+00 1.329806826148413439e-02
5.239216959308704645e+03 1.012927270001684033e+00 1.327754834760759214e-02
5.244456176268015042e+03 9.994540002361352871e-01 1.313489303858782209e-02
5.249700632444284565e+03 9.934479525801719335e-01 1.243689855577097617e-02
5.254950333076731113e+03 9.836795570952949763e-01 1.214860583843082979e-02
5.260205283409809454e+03 9.659514884472373275e-01 1.409368254679099416e-02
5.265465488693221232e+03 9.544715680545693415e-01 1.485198348307239027e-02
5.270730954181915877e+03 9.478921434175753280e-01 1.411191261280049514e-02
5.276001685136099695e+03 9.552416666960840130e-01 1.201858520265038782e-02
5.281277686821237694e+03 9.774599368027092616e-01 1.205856005627665636e-02
5.286558964508059944e+03 1.016971112480502315e+00 1.426111933548582754e-02
5.291845523472569766e+03 1.069248022815782129e+00 1.472418073391358606e-02
5.297137368996044643e+03 1.120620928610011280e+00 1.398060667868911318e-02
5.302434506365042580e+03 1.179893663099674139e+00 1.059694419408430816e-02
5.307736940871409388e+03 1.223902567027066457e+00 1.065329663153204154e-02
5.313044677812282316e+03 1.261090744353406068e+00 1.169049443310142197e-02
5.318357722490096421e+03 1.285268068448229828e+00 1.073732925585603286e-02
5.323676080212588204e+03 1.312487669434619919e+00 8.976139276756662025e-03
5.328999756292802886e+03 1.343781970018591787e+00 8.748457336860899700e-03
5.334328756049097137e+03 1.376662035546831753e+00 1.017865284565819609e-02
5.339663084805148173e+03 1.409600089904180953e+00 1.216901141001014951e-02
5.345002747889954662e+03 1.432027508868314314e+00 1.239515523910002769e-02
5.350347750637846730e+03 1.445977692889886201e+00 1.029337353378900408e-02
5.355698098388485960e+03 1.449481446478559032e+00 8.882439159547414129e-03
5.361053796486876308e+03 1.435665277366913850e+00 1.151441696311005652e-02
5.366414850283365013e+03 1.406935166892739675e+00 1.545907992370875415e-02
5.371781265133649867e+03 1.382948595380108614e+00 1.594319473565012496e-02
5.377153046398785591e+03 1.375383630279043423e+00 1.433108167713743192e-02
5.382530199445186554e+03 1.388492523423818126e+00 1.072221894618071401e-02
5.387912729644633146e+03 1.433359598973675153e+00 1.219638554751134411e-02
5.393300642374279960e+03 1.504333824845309975e+00 1.643768421511550629e-02
5.398693943016655794e+03 1.589222579956941273e+00 1.845633331576331665e-02
5.404092636959673655e+03 1.671494616569780600e+00 1.702753278496921957e-02
5.409496729596635305e+03 1.743725462376443991e+00 1.405254628999482239e-02
5.414906226326233991e+03 1.798782351152010683e+00 1.039387007615961284e-02
5.420321132552561721e+03 1.814305556933362817e+00 1.131883132404455129e-02
5.425741453685116539e+03 1.805344119766794542e+00 1.272057309386171418e-02
5.431167195138803436e+03 1.763947038484113161e+00 1.251818843422415097e-02
5.436598362333943442e+03 1.708167649314442649e+00 1.089472784716505500e-02
5.442034960696279086e+03 1.641590174984480344e+00 1.060557999839365807e-02
5.447476995656978033e+03 1.564855960421217551e+00 1.182365885773809487e-02
5.452924472652636723e+03 1.473663773982487823e+00 1.187908031921453347e-02
5.458377397125291282e+03 1.376257563884549562e+00 1.377790331096677250e-02
5.463835774522417523e+03 1.284521285184249795e+00 1.735872991372531052e-02
5.469299610296941864e+03 1.210433881033665671e+00 2.008456775721298090e-02
5.474768909907241323e+03 1.151264071330446281e+00 1.983632505045888200e-02
5.480243678817149885e+03 1.138301257475878403e+00 1.808109441728330755e-02
5.485723922495968509e+03 1.171948670781327362e+00 1.772488958723161465e-02
5.491209646418466946e+03 1.237266200051733378e+00 1.938425051308679745e-02
5.496700856064887375e+03 1.345676435499884915e+00 2.254181553597600640e-02
5.502197556920953502e+03 1.478255076446219007e+00 2.350482137023971602e-02
5.507699754477876013e+03 1.617382122690759649e+00 2.315131181403505198e-02
5.513207454232356213e+03 1.752502594578946971e+00 1.951807389710477278e-02
5.518720661686590574e+03 1.866292191585316340e+00 1.382663585555832068e-02
5.524239382348278923e+03 1.934892885960099562e+00 1.440623553538703146e-02
5.529763621730628984e+03 1.965491456280966220e+00 1.583781214048366609e-02
5.535293385352360929e+03 1.952993138119227812e+00 1.515595204314208917e-02
5.540828678737715563e+03 1.919700048641695078e+00 1.094998046104342024e-02
5.546369507416455235e+03 1.870570630020167879e+00 6.321765852926621715e-03
5.551915876923872929e+03 1.818199927938966898e+00 6.195273984912234508e-03
5.557467792800798634e+03 1.762283595792141000e+00 7.436522720639495224e-03
5.563025260593602070e+03 1.697062969111957420e+00 8.513002648497252842e-03
5.568588285854197238e+03 1.616742075514808530e+00 8.448789198800888897e-03
5.574156874140053333e+03 1.531855785526252678e+00 7.971175699412998486e-03
5.579731031014194741e+03 1.425678155305708072e+00 7.479177399353460938e-03
5.585310762045211050e+03 1.303447022619732776e+00 1.079016835337073821e-02
5.590896072807257951e+03 1.184214890818567456e+00 1.333146853870222776e-02
5.596486968880067252e+03 1.066499001427775095e+00 1.374885973820392203e-02
5.602083455848949598e+03 9.716448047902841445e-01 1.262689556637365540e-02
5.607685539304799931e+03 9.036703393641228876e-01 1.023573007041862250e-02
5.613293224844106589e+03 8.741523271029734143e-01 8.738726856186509323e-03
5.618906518068952209e+03 8.911541375848540669e-01 9.043841536412843343e-03
5.624525424587023736e+03 9.420043123837615884e-01 1.045665777550292865e-02
5.630149950011612418e+03 1.035136263374206056e+00 1.257168365349973366e-02
5.635780099961625638e+03 1.156525521996116801e+00 1.162618662126254851e-02
5.641415880061589633e+03 1.286338255337927450e+00 1.139845435589451061e-02
5.647057295941652228e+03 1.412216713276820190e+00 8.240798900369800117e-03
5.652704353237596479e+03 1.523685826551371969e+00 6.228806560462541754e-03
5.658357057590835211e+03 1.607169849638568904e+00 5.726644335604922677e-03
5.664015414648428305e+03 1.655593697531040132e+00 8.220121397083347478e-03
5.669679430063079053e+03 1.680584758158231606e+00 9.258789418947836400e-03
5.675349109493143260e+03 1.677800901264658195e+00 8.914473379872242184e-03
5.681024458602638333e+03 1.664221850087333365e+00 9.428941800966803011e-03
5.686705483061243285e+03 1.630061800972144148e+00 8.599830361540716783e-03
5.692392188544306009e+03 1.588860056301426793e+00 7.108806571582201340e-03
5.698084580732852373e+03 1.541628374683659208e+00 6.130839516559895459e-03
5.703782665313587131e+03 1.494111031305760395e+00 6.453291545867678204e-03
5.709486447978903016e+03 1.447373670912331489e+00 6.879990234578484999e-03
5.715195934426883468e+03 1.394642029162059593e+00 6.594536634637961775e-03
5.720911130361312644e+03 1.333465225645007690e+00 5.518796409556090722e-03
5.726632041491675409e+03 1.264790062450213970e+00 4.928420982893551468e-03
5.732358673533169167e+03 1.185768235078173305e+00 5.284969322340258256e-03
5.738091032206703858e+03 1.100630782576121236e+00 5.082723369845346117e-03
5.743829123238912871e+03 1.006501322526432540e+00 5.356270671662245568e-03
5.749572952362153046e+03 9.092566854666334075e-01 6.016930536767445790e-03
5.755322525314517407e+03 8.167590934093367228e-01 5.395937668374387042e-03
5.761077847839834249e+03 7.338669562679156488e-01 5.370804822541969288e-03
5.766838925687675328e+03 6.628692134764221366e-01 5.445322416517031638e-03
5.772605764613364954e+03 6.033973065264776059e-01 5.878424254753190047e-03
5.778378370377980900e+03 5.546177439740856974e-01 6.107573983558751626e-03
5.784156748748360769e+03 5.145263473664097864e-01 5.942458140004955834e-03
5.789940905497111089e+03 4.896543979250929102e-01 5.910756384738560971e-03
5.795730846402610041e+03 4.800969852678359517e-01 6.575871330592197340e-03
5.801526577249013826e+03 4.815146178295794943e-01 7.119731408966406550e-03
5.807328103826264851e+03 4.870086532690001135e-01 6.887713135729349803e-03
5.813135431930093546e+03 4.936245034630244444e-01 8.412607938088158266e-03
5.818948567362025642e+03 5.110077347592576480e-01 1.151830122329983684e-02
5.824767515929389447e+03 5.427046293617552308e-01 1.336038103844467556e-02
5.830592283445320390e+03 6.028184593145529124e-01 1.270843783580142064e-02
5.836422875728768304e+03 6.895531246280600657e-01 1.115573759063491141e-02
5.842259298604498326e+03 8.109869920487648987e-01 1.073294149083870060e-02
5.848101557903105459e+03 9.627723152573358645e-01 1.244096125093036367e-02
5.853949659461010015e+03 1.138853794678095221e+00 1.508831443378717829e-02
5.859803609120473084e+03 1.320104541441947665e+00 1.700928904748898879e-02
5.865663412729595620e+03 1.499401150984468911e+00 1.564456701689888318e-02
5.871529076142326630e+03 1.657253516471287158e+00 1.444352487261837958e-02
5.877400605218471355e+03 1.803224850876972374e+00 1.238783406211858840e-02
5.883278005823691274e+03 1.919691886414067961e+00 1.092902174709380926e-02
