# starting wavelength: 4198.170
# ending wavelength: 7655.680
# wav flux eflux
4.200831484975006788e+03 8.498889710983524859e-01 1.910517119341679226e-01
4.205032316459983122e+03 9.403222473794520253e-01 1.483851647231188287e-01
4.209237348776444378e+03 1.048226268972254349e+00 1.187558046547588647e-01
4.213446586125221984e+03 1.145250373729970850e+00 9.919727768348936270e-02
4.217660032711349231e+03 1.219146022226834436e+00 8.240186823217492129e-02
4.221877692744061278e+03 1.264681422014789725e+00 6.805966662154422364e-02
4.226099570436806971e+03 1.282503823442115998e+00 5.550272792416186679e-02
4.230325670007245208e+03 1.277412340698486748e+00 4.611209210435939648e-02
4.234555995677254032e+03 1.249989925696850301e+00 3.992146842602103951e-02
4.238790551672932452e+03 1.203868379575416370e+00 3.513543802711491248e-02
4.243029342224606808e+03 1.141572217212975637e+00 3.196840750911566359e-02
4.247272371566832589e+03 1.063574588052471626e+00 3.121463609972960004e-02
4.251519643938400804e+03 9.767812185523014890e-01 3.151633044132120393e-02
4.255771163582340705e+03 8.864369512127522333e-01 3.284561911784485838e-02
4.260026934745924336e+03 8.012797297862870316e-01 3.397312512596832590e-02
4.264286961680671993e+03 7.269357569838279520e-01 3.493336663397296482e-02
4.268551248642354039e+03 6.688321586031111821e-01 3.543960489243958706e-02
4.272819799890998183e+03 6.312017648043861673e-01 3.523046889366469175e-02
4.277092619690890388e+03 5.971149705206437730e-01 3.146862828783206917e-02
4.281369712310583054e+03 5.739693982006015549e-01 2.793655787883244160e-02
4.285651082022895025e+03 6.041718784274954235e-01 3.707032177761366426e-02
4.289936733104918858e+03 6.387555610319846089e-01 4.381911105945227730e-02
4.294226669838025373e+03 7.010834791189568538e-01 5.219862810540145531e-02
4.298520896507864563e+03 7.724334916007500329e-01 5.657652334445505832e-02
4.302819417404373780e+03 8.430409778429621692e-01 5.840635879296557365e-02
4.307122236821779552e+03 9.337576951187852581e-01 5.243511507009102762e-02
4.311429359058603040e+03 9.912224343940990723e-01 4.761762966767847660e-02
4.315740788417662770e+03 1.035828497512873980e+00 4.373220313375456719e-02
4.320056529206081905e+03 1.070468562947422875e+00 4.303002838431919247e-02
4.324376585735290064e+03 1.074004502235875957e+00 4.487950193022408052e-02
4.328700962321026054e+03 1.066286275844749776e+00 4.770004614050549208e-02
4.333029663283348782e+03 1.052853025764576733e+00 5.171212006702424757e-02
4.337362692946633615e+03 1.020038880072071219e+00 5.586038131708268711e-02
4.341700055639581478e+03 9.731766220540899459e-01 5.919127568661945726e-02
4.346041755695222491e+03 8.999920642546702654e-01 5.733423283869810982e-02
4.350387797450919606e+03 8.421396839430117520e-01 5.407995268096556229e-02
4.354738185248371337e+03 8.058538125357763704e-01 5.009208088039720369e-02
4.359092923433621763e+03 7.561707906740721130e-01 4.087760035302541450e-02
4.363452016357056891e+03 7.461518633094121888e-01 4.161900700432104305e-02
4.367815468373414660e+03 7.532049238368832000e-01 4.475877763163974010e-02
4.372183283841789489e+03 7.918111824111547792e-01 4.937385891489823320e-02
4.376555467125633186e+03 8.428629450152105296e-01 5.065359587967221272e-02
4.380932022592760404e+03 9.053546476313378832e-01 4.719532878325278374e-02
4.385312954615354101e+03 9.942499369227543182e-01 3.484711021758965521e-02
4.389698267569970994e+03 1.047548330826149288e+00 2.656951901828411358e-02
4.394087965837542470e+03 1.082582521852280655e+00 2.179908750870355669e-02
4.398482053803381859e+03 1.096975455506802977e+00 2.806065797112035701e-02
4.402880535857186260e+03 1.082359395664645563e+00 3.625224723125917980e-02
4.407283416393044718e+03 1.046098984356906181e+00 4.209531823326214534e-02
4.411690699809440048e+03 1.010410655725809681e+00 3.849841815182525329e-02
4.416102390509250654e+03 9.973073183088431160e-01 3.494352179207087933e-02
4.420518492899761441e+03 9.806245428487104787e-01 2.909365988391561172e-02
4.424939011392662906e+03 9.963163007915025737e-01 3.100345527290617603e-02
4.429363950404056595e+03 1.021755835489704278e+00 3.381624208402880111e-02
4.433793314354462382e+03 1.048580626795647452e+00 3.658937425706606378e-02
4.438227107668818462e+03 1.083123696740721620e+00 3.773520468817748164e-02
4.442665334776488635e+03 1.128424136709502257e+00 3.779507787583617773e-02
4.447108000111265937e+03 1.190030495245167019e+00 3.471461757522260189e-02
4.451555108111379013e+03 1.235708160384221266e+00 3.129746079876297854e-02
4.456006663219492111e+03 1.273627040163640034e+00 2.646778735266862304e-02
4.460462669882713271e+03 1.282793334798861373e+00 2.722201680015885403e-02
4.464923132552597053e+03 1.277026266146535693e+00 2.792682134528096799e-02
4.469388055685150903e+03 1.244022716222005887e+00 2.784921410973252923e-02
4.473857443740837880e+03 1.202918291576556609e+00 2.755421672420187845e-02
4.478331301184580298e+03 1.153238763895517494e+00 2.659598914897078406e-02
4.482809632485766087e+03 1.078710179459362317e+00 2.226880200454574299e-02
4.487292442118253348e+03 1.013611387089919047e+00 2.201425264941486021e-02
4.491779734560373072e+03 9.622589282629094853e-01 2.245987017473095176e-02
4.496271514294934605e+03 9.173013799947584701e-01 1.779415511887814938e-02
4.500767785809231100e+03 8.705243676135518971e-01 1.473899409930089222e-02
4.505268553595042249e+03 8.144547585127395184e-01 1.537784700888327263e-02
4.509773822148638828e+03 7.632348840677194435e-01 1.550077664001501751e-02
4.514283595970789065e+03 7.159530299787486562e-01 1.247543187354485487e-02
4.518797879566761367e+03 6.887633350932481635e-01 1.057454564152557688e-02
4.523316677446328868e+03 6.792346904400472507e-01 1.029797375889610067e-02
4.527839994123776705e+03 6.937401642402778457e-01 1.127644669457790461e-02
4.532367834117902021e+03 7.331487334612243334e-01 1.139475866261415761e-02
4.536900201952022144e+03 7.921747791986522014e-01 1.095818746210970931e-02
4.541437102153975502e+03 8.784903617182264757e-01 1.304208480084650609e-02
4.545978539256130716e+03 9.907104965148876285e-01 1.597705010233336706e-02
4.550524517795388419e+03 1.141470798186891455e+00 1.694701912595500404e-02
4.555075042313184895e+03 1.310816072720050185e+00 1.737049840318221489e-02
4.559630117355500261e+03 1.496758817545358333e+00 2.019039801580888374e-02
4.564189747472856652e+03 1.701723740751402758e+00 2.996928512673421169e-02
4.568753937220330954e+03 1.890675037111643642e+00 3.555755121051017154e-02
4.573322691157552981e+03 2.046312778660791309e+00 3.417406239805752255e-02
4.577896013848711846e+03 2.143408895643950096e+00 2.877740443427462963e-02
4.582473909862562323e+03 2.181659219428809138e+00 3.044570341697755422e-02
4.587056383772426670e+03 2.171796788313480331e+00 3.922855268512841220e-02
4.591643440156200086e+03 2.108376502611132519e+00 4.572729570537206051e-02
4.596235083596357981e+03 2.010203077669689975e+00 4.721043996508701018e-02
4.600831318679955984e+03 1.927812545723061044e+00 4.099946142832645163e-02
4.605432149998637215e+03 1.837026883295267199e+00 3.380794924797440870e-02
4.610037582148637739e+03 1.791452943467962911e+00 3.495268438143051687e-02
4.614647619730787483e+03 1.755817705418302177e+00 3.747704365813409738e-02
4.619262267350520233e+03 1.740959989322942381e+00 3.853896908536125904e-02
4.623881529617872729e+03 1.769274438203194411e+00 2.939512990080600172e-02
4.628505411147491941e+03 1.773812648119427848e+00 2.779090988678602214e-02
4.633133916558640522e+03 1.789072952339462841e+00 2.832292189349151432e-02
4.637767050475200449e+03 1.810859763790107824e+00 2.979338312441987338e-02
4.642404817525677572e+03 1.829634617232853699e+00 2.713227506556332297e-02
4.647047222343205249e+03 1.842249750215079418e+00 2.546716190520075668e-02
4.651694269565549803e+03 1.847111702889324691e+00 2.422060805602973751e-02
4.656345963835116891e+03 1.861425248906698027e+00 2.533550148946191530e-02
4.661002309798953320e+03 1.880764203504867726e+00 2.226398701001671906e-02
4.665663312108753416e+03 1.885762364548542847e+00 2.021463554199521423e-02
4.670328975420864481e+03 1.891016727320604662e+00 1.832999897590740709e-02
4.674999304396286789e+03 1.860197171906722069e+00 2.195156328507151186e-02
4.679674303700684504e+03 1.828606584002950397e+00 2.151877058183841382e-02
4.684353978004386590e+03 1.791309254047467547e+00 1.805598280335809352e-02
4.689038331982392265e+03 1.762569190544436282e+00 1.412977950035314983e-02
4.693727370314376458e+03 1.759227249729119924e+00 1.839178702481177388e-02
4.698421097684692540e+03 1.757143125392340410e+00 2.203265256062138244e-02
4.703119518782378691e+03 1.780097156744607556e+00 2.235977435499324553e-02
4.707822638301162442e+03 1.776972453487905002e+00 1.808563124969831543e-02
4.712530460939465229e+03 1.763258591431021927e+00 1.563013611801716829e-02
4.717242991400406027e+03 1.719473721556381562e+00 2.310694747946685779e-02
4.721960234391808626e+03 1.675968989080443006e+00 2.507633398108518458e-02
4.726682194626201635e+03 1.634050902609383682e+00 2.424748473680860342e-02
4.731408876820829391e+03 1.596572080021205098e+00 2.307349742942016446e-02
4.736140285697651962e+03 1.560259385566873602e+00 2.118202238464070297e-02
4.740876425983350600e+03 1.538402447821777264e+00 1.926641826416611303e-02
4.745617302409335934e+03 1.537684660522199209e+00 2.094623135027494365e-02
4.750362919711747054e+03 1.540783147670995223e+00 2.245256294679818035e-02
4.755113282631459697e+03 1.556172727332620020e+00 2.257994390772334603e-02
4.759868395914093526e+03 1.563502103114834396e+00 1.774030677587703012e-02
4.764628264310008490e+03 1.558886204316244140e+00 1.406206730850903010e-02
4.769392892574320285e+03 1.529681985958235346e+00 1.007029488910363320e-02
4.774162285466896719e+03 1.456109652709328239e+00 9.633875560142819358e-03
4.778936447752364984e+03 1.352923932852093447e+00 9.371137516935891532e-03
4.783715384200118933e+03 1.225750832541987023e+00 1.001770049847391757e-02
4.788499099584319993e+03 1.061552459779081969e+00 2.084282017129900424e-02
4.793287598683906253e+03 9.049559422273493192e-01 2.951713523955061536e-02
4.798080886282591564e+03 7.589069606175096183e-01 3.311828988955748537e-02
4.802878967168876443e+03 6.521433930704245707e-01 3.206341361757168718e-02
4.807681846136046261e+03 5.994111582206075317e-01 2.757424190489403057e-02
4.812489527982183972e+03 5.894603441486300222e-01 2.096057050995036794e-02
4.817302017510168298e+03 6.705001365952917292e-01 2.555424288096388996e-02
4.822119319527679181e+03 7.949863311263899446e-01 2.866431078704499008e-02
4.826941438847208701e+03 9.773696436834018453e-01 2.993910316540118050e-02
4.831768380286057436e+03 1.190661842123311054e+00 2.791026904451638160e-02
4.836600148666345376e+03 1.409067634054944840e+00 2.455460049605191417e-02
4.841436748815013743e+03 1.621451796066021966e+00 2.222706598733684147e-02
4.846278185563829538e+03 1.814494656649667581e+00 1.454057355570674039e-02
4.851124463749395545e+03 1.945958295594576670e+00 1.671037719824641429e-02
4.855975588213146693e+03 2.015882730695540026e+00 1.670716299255074408e-02
4.860831563801360971e+03 2.018210322394947909e+00 1.685303785364980142e-02
4.865692395365163975e+03 1.959147642516409604e+00 1.954882797265596744e-02
4.870558087760530725e+03 1.839659841365677506e+00 3.315176784887973599e-02
4.875428645848292945e+03 1.708777178136021258e+00 4.219343221937817134e-02
4.880304074494142696e+03 1.577647671752397063e+00 4.599441103984001217e-02
4.885184378568638749e+03 1.429848429574224200e+00 3.884671251051924346e-02
4.890069562947209306e+03 1.370459892517934986e+00 3.165701194274384705e-02
4.894959632510157462e+03 1.377856029243561320e+00 2.579917417658639245e-02
4.899854592142669389e+03 1.473954463791588676e+00 3.165756367641853197e-02
4.904754446734813428e+03 1.636218335624297859e+00 3.891915524441693502e-02
4.909659201181550088e+03 1.855747609259280839e+00 4.499437271349256140e-02
4.914568860382732964e+03 2.145674172767243704e+00 4.387413832478662123e-02
4.919483429243117826e+03 2.384898033444776910e+00 3.662161379918248139e-02
4.924402912672362618e+03 2.594235791973396932e+00 2.875068842597250374e-02
4.929327315585036558e+03 2.730548003559742032e+00 1.958698989155554029e-02
4.934256642900622865e+03 2.777975374322693813e+00 2.141941205737829187e-02
4.939190899543525120e+03 2.739040272321306535e+00 2.023786587033387166e-02
4.944130090443070912e+03 2.627059708900802093e+00 2.036620884517120755e-02
4.949074220533515472e+03 2.426223303630714145e+00 2.235487716975020911e-02
4.954023294754050767e+03 2.179949438112725790e+00 2.487102482989863098e-02
4.958977318048806410e+03 1.896948679169747409e+00 2.641147410034969459e-02
4.963936295366856939e+03 1.599746013992344951e+00 3.450261909199173194e-02
4.968900231662225451e+03 1.352097044557873051e+00 3.565447086968461660e-02
4.973869131893889062e+03 1.142675228318969616e+00 3.500035459091650758e-02
4.978843001025784361e+03 1.023591402750976265e+00 3.219747145777288044e-02
4.983821844026811959e+03 9.891986190671910872e-01 2.740183053619272766e-02
4.988805665870840130e+03 1.075464910374006156e+00 3.132513960676486936e-02
4.993794471536712990e+03 1.240459724260090546e+00 3.851680701378436961e-02
4.998788266008251412e+03 1.485214870316155178e+00 4.686431050815149241e-02
5.003787054274261209e+03 1.793920386052545002e+00 5.738473063536399243e-02
5.008790841328536771e+03 2.075114016728838884e+00 5.538044854498764408e-02
5.013799632169867436e+03 2.353327976815275058e+00 3.670123349478340846e-02
5.018813431802038394e+03 2.530631435538703844e+00 2.255667516897610914e-02
5.023832245233842514e+03 2.611677922214195480e+00 1.867318480352649426e-02
5.028856077479077612e+03 2.568224407138234522e+00 3.230235713117724644e-02
5.033884933556558281e+03 2.466974599228166198e+00 3.871401966498608238e-02
5.038918818490116792e+03 2.261666955807021040e+00 5.039574917573919066e-02
5.043957737308608557e+03 2.066172350326533902e+00 4.613109090571957532e-02
5.049001695045918495e+03 1.871445047035340314e+00 3.877435151317919215e-02
5.054050696740966487e+03 1.684829483579632470e+00 2.530572161378403725e-02
5.059104747437709193e+03 1.556495551534036847e+00 2.368825359869787539e-02
5.064163852185148244e+03 1.491044473540438009e+00 3.061260680534923229e-02
5.069228016037335692e+03 1.452050572206749823e+00 3.144688966263620156e-02
5.074297244053374015e+03 1.458105679972894642e+00 2.899067373606024900e-02
5.079371541297429758e+03 1.493158784363403768e+00 2.109827906292378874e-02
5.084450912838728073e+03 1.519126661409404999e+00 1.876140363481549819e-02
5.089535363751569093e+03 1.544037465283710997e+00 1.814150728548499097e-02
5.094624899115322478e+03 1.519865483825077135e+00 1.720800455785842162e-02
5.099719524014439230e+03 1.454192420551496667e+00 1.678932289292016725e-02
5.104819243538455339e+03 1.355991974123944566e+00 2.013688655545807504e-02
5.109924062781995417e+03 1.207132246580117307e+00 3.046768806530665910e-02
5.115033986844779065e+03 1.066375683928067808e+00 3.300376629204893747e-02
5.120149020831625421e+03 9.435197050299096722e-01 3.357984045888762897e-02
5.125269169852458617e+03 8.402688386073170479e-01 3.161680410709443584e-02
5.130394439022313236e+03 7.759342721651107944e-01 2.885644474627664310e-02
5.135524833461337039e+03 7.665173062841701412e-01 2.506568946187103658e-02
5.140660358294800062e+03 7.982268919227162307e-01 2.561046584099898119e-02
5.145801018653096435e+03 8.936074809266114638e-01 2.644257109292811117e-02
5.150946819671751655e+03 1.028987530332032607e+00 2.715844269755810989e-02
5.156097766491425318e+03 1.214043496074617812e+00 2.362732246690272750e-02
5.161253864257918394e+03 1.406855022470504979e+00 2.134835857369528703e-02
5.166415118122177773e+03 1.583868331208291291e+00 1.379187879743482698e-02
5.171581533240301724e+03 1.714869354594726891e+00 1.310705386643093613e-02
5.176753114773543530e+03 1.806203767953842521e+00 1.475952859659161211e-02
5.181929867888318768e+03 1.855801803757405333e+00 1.773604883659830878e-02
5.187111797756208944e+03 1.884095109393062017e+00 1.834367705735118897e-02
5.192298909553966951e+03 1.881649964731539448e+00 1.805768071139080000e-02
5.197491208463522526e+03 1.858974680628485032e+00 1.785979571219374618e-02
5.202688699671987706e+03 1.807066851824465026e+00 1.773914915105190282e-02
5.207891388371661378e+03 1.742635284488360581e+00 1.648955761896884684e-02
5.213099279760034733e+03 1.668474857457015847e+00 1.560506436746605767e-02
5.218312379039796724e+03 1.602448608454084322e+00 1.604669730566319827e-02
5.223530691418837705e+03 1.556289508172558955e+00 1.695591591613980834e-02
5.228754222110258524e+03 1.528337428425298183e+00 1.890925928859807717e-02
5.233982976332370527e+03 1.540904405803294352e+00 1.892248337001256955e-02
5.239216959308704645e+03 1.585243433749474740e+00 2.277736822241793399e-02
5.244456176268015042e+03 1.640731951614457618e+00 3.047459179988407443e-02
5.249700632444284565e+03 1.725289267877676558e+00 4.361021758220889888e-02
5.254950333076731113e+03 1.771733222745355274e+00 4.311622979291532265e-02
5.260205283409809454e+03 1.789624767452719256e+00 3.780220890911870774e-02
5.265465488693221232e+03 1.787649259489759279e+00 3.556691098934817302e-02
5.270730954181915877e+03 1.719163284698494776e+00 4.974951866649567761e-02
5.276001685136099695e+03 1.647911126893697009e+00 5.620778192471027890e-02
5.281277686821237694e+03 1.572866748410552074e+00 5.413680118870997648e-02
5.286558964508059944e+03 1.510692460661000380e+00 4.443773662193578611e-02
5.291845523472569766e+03 1.512620965088965042e+00 4.250046617936002746e-02
5.297137368996044643e+03 1.529726927857330443e+00 4.651480695604973126e-02
5.302434506365042580e+03 1.583250241309802187e+00 5.007888395048418206e-02
5.307736940871409388e+03 1.690340372009059511e+00 4.970259531628599958e-02
5.313044677812282316e+03 1.777507608105363346e+00 4.391338850411490025e-02
5.318357722490096421e+03 1.856875361074032282e+00 3.442421011703050010e-02
5.323676080212588204e+03 1.924981997088748731e+00 2.680315199006306007e-02
5.328999756292802886e+03 1.926347548088323647e+00 3.062463578425412766e-02
5.334328756049097137e+03 1.891343069617461570e+00 3.029415635124826922e-02
5.339663084805148173e+03 1.830574655619157109e+00 2.552145392300742346e-02
5.345002747889954662e+03 1.763563166440874630e+00 1.261896056915855387e-02
5.350347750637846730e+03 1.727129714502966706e+00 1.358426059788327492e-02
5.355698098388485960e+03 1.697984309731841224e+00 1.721049222357003833e-02
5.361053796486876308e+03 1.680139731448752505e+00 1.768648579318822522e-02
5.366414850283365013e+03 1.664235862536336485e+00 1.256748679182041403e-02
5.371781265133649867e+03 1.629266845829367760e+00 1.145804103071969976e-02
5.377153046398785591e+03 1.590991497457091564e+00 1.341023718485516783e-02
5.382530199445186554e+03 1.542576029357483725e+00 1.840618452395785531e-02
5.387912729644633146e+03 1.504261463922060393e+00 2.071885650479076552e-02
5.393300642374279960e+03 1.483305021074186714e+00 2.125002336508617987e-02
5.398693943016655794e+03 1.486970676581386597e+00 1.947590596675563557e-02
5.404092636959673655e+03 1.523206033281858884e+00 2.085396587390603990e-02
5.409496729596635305e+03 1.569264539545425663e+00 2.438871702293722230e-02
5.414906226326233991e+03 1.638259158283554395e+00 3.021312566267931460e-02
5.420321132552561721e+03 1.700244024557102884e+00 3.093107199566635587e-02
5.425741453685116539e+03 1.750818285572865562e+00 2.343954455555072661e-02
5.431167195138803436e+03 1.760227310391640820e+00 2.027726072183641884e-02
5.436598362333943442e+03 1.749392465789258777e+00 2.251885771782041051e-02
5.442034960696279086e+03 1.694774082282775041e+00 2.670052959275474869e-02
5.447476995656978033e+03 1.625122957678967639e+00 2.487066165032777304e-02
5.452924472652636723e+03 1.555604510894166959e+00 2.104242580189328790e-02
5.458377397125291282e+03 1.477338072663113122e+00 1.773547895913422587e-02
5.463835774522417523e+03 1.412126332284367125e+00 1.633121613279459733e-02
5.469299610296941864e+03 1.358482402430583935e+00 1.714547760460864365e-02
