# starting wavelength: 4198.170
# ending wavelength: 7667.820
# wav flux eflux
4.200831484975006788e+03 6.243004127524625080e-01 3.528823148929798315e-01
4.205032316459983122e+03 6.325808247030221265e-01 2.747397686126477612e-01
4.209237348776444378e+03 6.898004199154051941e-01 2.212622683329426854e-01
4.213446586125221984e+03 7.547687381494933012e-01 1.778572547167033002e-01
4.217660032711349231e+03 8.084303699429901124e-01 1.439182196029507033e-01
4.221877692744061278e+03 8.421093607375820245e-01 1.165333244508861277e-01
4.226099570436806971e+03 8.562856376926479829e-01 9.446512032189770258e-02
4.230325670007245208e+03 8.596476838631479378e-01 7.811810225888886350e-02
4.234555995677254032e+03 8.470741658753476733e-01 6.681746025733342753e-02
4.238790551672932452e+03 8.291602596157410243e-01 5.771658445945751503e-02
4.243029342224606808e+03 7.983797187070225121e-01 5.100303192100124478e-02
4.247272371566832589e+03 7.523911871510343685e-01 4.721941144298619913e-02
4.251519643938400804e+03 6.880944935378783267e-01 4.834724831377430754e-02
4.255771163582340705e+03 6.192362143303975497e-01 5.055144687110231516e-02
4.260026934745924336e+03 5.719003252574983431e-01 4.842602098734624660e-02
4.264286961680671993e+03 5.390379376238511044e-01 4.646936810455200295e-02
4.268551248642354039e+03 5.151822088755009243e-01 4.503449887290407461e-02
4.272819799890998183e+03 4.938523694671717035e-01 4.409657929479574717e-02
4.277092619690890388e+03 4.693613641643055168e-01 4.153016144977746127e-02
4.281369712310583054e+03 4.566497844364482139e-01 4.012344877459128600e-02
4.285651082022895025e+03 4.702489166695605904e-01 4.083263914885888052e-02
4.289936733104918858e+03 5.015387639322291813e-01 4.456588250990247552e-02
4.294226669838025373e+03 5.200815567352832236e-01 4.590119463534287486e-02
4.298520896507864563e+03 5.590460322870232091e-01 4.513281488049056267e-02
4.302819417404373780e+03 6.276212540270460494e-01 3.929275153548637822e-02
4.307122236821779552e+03 6.900384157587566847e-01 3.785243427733084309e-02
4.311429359058603040e+03 7.449383920642596024e-01 3.677913002801491693e-02
4.315740788417662770e+03 7.914051868223054287e-01 3.779971906761368100e-02
4.320056529206081905e+03 8.221904214371547059e-01 3.877009523291970183e-02
4.324376585735290064e+03 8.465081418799459412e-01 3.818032692651308901e-02
4.328700962321026054e+03 8.652164678105591644e-01 3.749134500021686356e-02
4.333029663283348782e+03 8.661556723490797527e-01 3.935131230448850326e-02
4.337362692946633615e+03 8.584879341420750265e-01 4.182279275391353329e-02
4.341700055639581478e+03 8.486920260703103569e-01 4.375621674415069301e-02
4.346041755695222491e+03 8.130842107774824967e-01 4.535675611457119782e-02
4.350387797450919606e+03 7.930631051968312084e-01 4.488452608373121044e-02
4.354738185248371337e+03 7.708377378691246840e-01 4.246469673243764148e-02
4.359092923433621763e+03 7.339754985676353316e-01 3.926502437108203569e-02
4.363452016357056891e+03 7.100831594282401849e-01 3.805515867435894928e-02
4.367815468373414660e+03 7.003586054204792299e-01 3.829360098405583390e-02
4.372183283841789489e+03 7.099977248713605915e-01 3.964060511603073600e-02
4.376555467125633186e+03 7.278177101686249539e-01 4.066884605667501346e-02
4.380932022592760404e+03 7.567609820149721056e-01 3.742109668957266377e-02
4.385312954615354101e+03 7.638297505477230631e-01 3.820157989773841772e-02
4.389698267569970994e+03 7.605241866648267957e-01 3.753028106592762314e-02
4.394087965837542470e+03 7.629960841683252060e-01 3.815248616798164183e-02
4.398482053803381859e+03 7.903405903683157208e-01 3.420421588278640262e-02
4.402880535857186260e+03 7.692023069816242842e-01 3.850102653576305267e-02
4.407283416393044718e+03 7.530090600744114848e-01 4.121570903095143901e-02
4.411690699809440048e+03 7.585012596732247925e-01 4.331856958961147891e-02
4.416102390509250654e+03 7.579801385962450233e-01 4.243588163888344783e-02
4.420518492899761441e+03 7.497813874059789940e-01 4.312086120516249454e-02
4.424939011392662906e+03 7.336660435371342714e-01 2.912921405730950486e-02
4.429363950404056595e+03 7.480849753299645410e-01 2.974612112226087193e-02
4.433793314354462382e+03 7.676985107234371997e-01 3.123525317366216900e-02
4.438227107668818462e+03 8.073827325891624884e-01 3.237817394157151141e-02
4.442665334776488635e+03 8.635330923782940094e-01 3.474729541750722767e-02
4.447108000111265937e+03 9.221264873495216285e-01 3.682062532416831291e-02
4.451555108111379013e+03 9.569441880503648523e-01 3.224325115571547579e-02
4.456006663219492111e+03 9.734396784854213447e-01 3.324523174085887434e-02
4.460462669882713271e+03 9.751389568878026104e-01 3.381253752206338919e-02
4.464923132552597053e+03 9.641269854102409997e-01 3.514039138287931852e-02
4.469388055685150903e+03 9.434238148645184285e-01 3.780644780288368312e-02
4.473857443740837880e+03 9.161478261230373565e-01 3.833295799117182601e-02
4.478331301184580298e+03 8.734940711223129206e-01 3.666187057781775810e-02
4.482809632485766087e+03 8.029945205932095265e-01 3.096368055225528354e-02
4.487292442118253348e+03 7.522120775305074503e-01 3.076742867107636753e-02
4.491779734560373072e+03 7.069464333404387180e-01 3.335734622460348464e-02
4.496271514294934605e+03 6.552763773280770865e-01 3.319212254720713823e-02
4.500767785809231100e+03 6.329149615228701897e-01 2.982302367716615360e-02
4.505268553595042249e+03 6.198510528133998054e-01 2.410972420034189836e-02
4.509773822148638828e+03 5.861597373118579979e-01 2.440016960015090747e-02
4.514283595970789065e+03 5.555492690611590900e-01 2.498590981368062347e-02
4.518797879566761367e+03 5.353521280927986403e-01 2.490254136326179937e-02
4.523316677446328868e+03 5.180134402257807746e-01 2.694416833880638323e-02
4.527839994123776705e+03 4.956001867511617975e-01 2.432860660582331774e-02
4.532367834117902021e+03 5.045627175610731818e-01 2.389420556970113865e-02
4.536900201952022144e+03 5.284823535397400462e-01 1.742171303228269227e-02
4.541437102153975502e+03 6.088241890997208028e-01 1.536887806952141194e-02
4.545978539256130716e+03 7.205606111119915447e-01 1.481215433380255082e-02
4.550524517795388419e+03 8.542090164590496748e-01 1.472193214122603268e-02
4.555075042313184895e+03 1.011264403400489620e+00 1.574203702868618923e-02
4.559630117355500261e+03 1.181044748135985367e+00 1.834961457469155149e-02
4.564189747472856652e+03 1.367087643264141894e+00 2.892610956527656360e-02
4.568753937220330954e+03 1.542676328399056995e+00 3.380880693313089574e-02
4.573322691157552981e+03 1.676197604534450436e+00 3.047046139881754226e-02
4.577896013848711846e+03 1.747073869062210516e+00 2.676340234622791650e-02
4.582473909862562323e+03 1.773078632406599908e+00 2.697346626877741502e-02
4.587056383772426670e+03 1.734485411554227863e+00 4.006229868354199697e-02
4.591643440156200086e+03 1.665308382028240830e+00 4.887092472725629994e-02
4.596235083596357981e+03 1.580871790927248055e+00 4.574365223575038719e-02
4.600831318679955984e+03 1.504259973894757740e+00 3.931882792801117549e-02
4.605432149998637215e+03 1.429674802382587373e+00 3.446880506847626452e-02
4.610037582148637739e+03 1.419771564910586648e+00 4.031181093807830601e-02
4.614647619730787483e+03 1.411198716478361703e+00 4.330826212905443395e-02
4.619262267350520233e+03 1.432262581629023535e+00 4.252516059157444156e-02
4.623881529617872729e+03 1.471322738139992703e+00 3.756354766221583347e-02
4.628505411147491941e+03 1.518742274503636525e+00 3.167976149388316426e-02
4.633133916558640522e+03 1.546730884215585355e+00 3.294072409034423665e-02
4.637767050475200449e+03 1.575936087646272910e+00 3.482379041685478016e-02
4.642404817525677572e+03 1.578866383074944757e+00 3.303869743439912660e-02
4.647047222343205249e+03 1.588769546167848823e+00 2.847857889183815980e-02
4.651694269565549803e+03 1.601537870131217511e+00 2.639041486907669348e-02
4.656345963835116891e+03 1.630609795429057263e+00 2.913619291330777142e-02
4.661002309798953320e+03 1.662021030814418543e+00 3.210802655332543193e-02
4.665663312108753416e+03 1.682615347259390770e+00 3.214209527088857099e-02
4.670328975420864481e+03 1.688921662419717862e+00 2.837889272895516291e-02
4.674999304396286789e+03 1.663811253303038695e+00 3.021246729127014322e-02
4.679674303700684504e+03 1.631460180855478503e+00 3.227679162007862645e-02
4.684353978004386590e+03 1.603953775885679889e+00 3.382890257284908164e-02
4.689038331982392265e+03 1.547865483176149359e+00 3.146692409651894590e-02
4.693727370314376458e+03 1.527109326385389210e+00 2.842751476438525049e-02
4.698421097684692540e+03 1.529443544262695687e+00 3.309461402066583152e-02
4.703119518782378691e+03 1.544528158935185802e+00 3.873584808255414041e-02
4.707822638301162442e+03 1.534377780682493198e+00 3.899167380861824628e-02
4.712530460939465229e+03 1.536042734411970478e+00 3.691489175807858431e-02
4.717242991400406027e+03 1.519586094741561810e+00 3.391760019933112713e-02
4.721960234391808626e+03 1.498451287199215942e+00 3.679397935956976035e-02
4.726682194626201635e+03 1.478869172692900857e+00 3.688951299025036018e-02
4.731408876820829391e+03 1.428631732187966463e+00 3.846128490886152607e-02
4.736140285697651962e+03 1.391766664405203802e+00 3.592712994480237731e-02
4.740876425983350600e+03 1.368379232426449654e+00 3.489994673516091245e-02
4.745617302409335934e+03 1.353667160532506797e+00 3.397494698189431478e-02
4.750362919711747054e+03 1.362765114257379118e+00 3.376251105162119542e-02
4.755113282631459697e+03 1.363270868501721411e+00 3.136099607852882443e-02
4.759868395914093526e+03 1.348401330585021096e+00 2.999617523971698577e-02
4.764628264310008490e+03 1.338567735214519772e+00 2.581229616248340714e-02
4.769392892574320285e+03 1.313067502408636233e+00 2.539662531725914163e-02
4.774162285466896719e+03 1.258430654619328015e+00 2.477058837267296504e-02
4.778936447752364984e+03 1.178720732982165842e+00 2.526736072853532841e-02
4.783715384200118933e+03 1.073350889491166749e+00 2.584181095174856169e-02
4.788499099584319993e+03 9.505266913856922351e-01 2.838500723627067693e-02
4.793287598683906253e+03 8.387872953387675024e-01 3.129076183638657138e-02
4.798080886282591564e+03 7.242045719600329612e-01 3.542721734178170406e-02
4.802878967168876443e+03 6.450292315543914023e-01 3.637858657083116454e-02
4.807681846136046261e+03 6.035720613290926906e-01 3.399662139181910958e-02
4.812489527982183972e+03 5.981688930739402776e-01 3.097461134995059887e-02
4.817302017510168298e+03 6.638222476139576944e-01 3.146331504509330274e-02
4.822119319527679181e+03 7.583790582793639157e-01 3.007072471613048484e-02
4.826941438847208701e+03 9.119672668075682331e-01 3.206825357507634561e-02
4.831768380286057436e+03 1.105720378147545979e+00 3.344301012586665955e-02
4.836600148666345376e+03 1.302275899841757623e+00 3.187011631781564575e-02
4.841436748815013743e+03 1.508675743736582309e+00 1.969233752874911120e-02
4.846278185563829538e+03 1.667562442125849920e+00 1.655412501673901235e-02
4.851124463749395545e+03 1.775024918773595139e+00 1.665697514644514515e-02
4.855975588213146693e+03 1.829761613710347623e+00 1.869579333237204183e-02
4.860831563801360971e+03 1.802681637699965034e+00 2.306418907662482337e-02
4.865692395365163975e+03 1.729887937029094047e+00 2.543674823046661315e-02
4.870558087760530725e+03 1.619154802878031152e+00 3.234114579729775729e-02
4.875428645848292945e+03 1.475986366315518605e+00 4.113853661828721642e-02
4.880304074494142696e+03 1.339859520314500507e+00 4.606745887888405444e-02
4.885184378568638749e+03 1.209129556270100103e+00 4.021367585643850079e-02
4.890069562947209306e+03 1.162925178933478687e+00 3.257046508821017511e-02
4.894959632510157462e+03 1.188357982162824289e+00 3.018468487707493333e-02
4.899854592142669389e+03 1.295916992314794847e+00 3.726077205520111901e-02
4.904754446734813428e+03 1.457295679721740678e+00 4.128270488579356690e-02
4.909659201181550088e+03 1.683344738437476007e+00 5.011029353797359642e-02
4.914568860382732964e+03 1.937782863771724928e+00 4.457733466451802018e-02
4.919483429243117826e+03 2.161770325934393888e+00 3.825465440437330472e-02
4.924402912672362618e+03 2.342599581036896694e+00 2.882469671126566824e-02
4.929327315585036558e+03 2.467839022159483697e+00 1.928504339158375672e-02
4.934256642900622865e+03 2.493103420031387962e+00 2.064388901520615091e-02
4.939190899543525120e+03 2.435288823503317879e+00 2.249148098574620461e-02
4.944130090443070912e+03 2.304166811737851983e+00 2.267920912195837621e-02
4.949074220533515472e+03 2.103264771746601092e+00 3.050964539140229095e-02
4.954023294754050767e+03 1.850113572640462056e+00 2.183931622490011340e-02
4.958977318048806410e+03 1.607484572164075587e+00 2.286920287400768387e-02
4.963936295366856939e+03 1.361356353519420637e+00 3.140379312580374171e-02
4.968900231662225451e+03 1.138500404231933327e+00 2.536729659801659209e-02
4.973869131893889062e+03 9.905919785522626642e-01 2.010306676250797966e-02
4.978843001025784361e+03 9.209655867501572724e-01 1.810322310214965841e-02
4.983821844026811959e+03 9.229196522370036737e-01 1.695520602847960454e-02
4.988805665870840130e+03 1.024819555749997946e+00 2.371840265803252037e-02
4.993794471536712990e+03 1.188975786089070841e+00 2.982683822642220525e-02
4.998788266008251412e+03 1.428535695590770871e+00 3.940424075505410267e-02
5.003787054274261209e+03 1.658737320277741567e+00 3.754547296381683524e-02
5.008790841328536771e+03 1.911596637001448107e+00 2.734861412838661410e-02
5.013799632169867436e+03 2.121123948838541384e+00 2.254898314330913353e-02
5.018813431802038394e+03 2.255607332851245594e+00 1.876663430712935399e-02
5.023832245233842514e+03 2.316242100062831266e+00 2.185599732870099898e-02
5.028856077479077612e+03 2.310675502158370698e+00 2.413443681777856925e-02
5.033884933556558281e+03 2.245098388414225710e+00 2.799143190319784355e-02
5.038918818490116792e+03 2.097997963726408788e+00 3.531890889057288929e-02
5.043957737308608557e+03 1.953252155398543133e+00 3.415120759522093097e-02
5.049001695045918495e+03 1.783605196027567619e+00 2.396744385963529497e-02
5.054050696740966487e+03 1.653117357078078831e+00 2.107747729268625442e-02
5.059104747437709193e+03 1.540534170710724959e+00 1.755146653567267456e-02
5.064163852185148244e+03 1.467199453492088468e+00 2.093765682025090086e-02
5.069228016037335692e+03 1.421629571405284231e+00 2.050423500487573089e-02
5.074297244053374015e+03 1.415094606015531387e+00 1.815587840220710472e-02
5.079371541297429758e+03 1.415052368835643559e+00 2.008473812296716898e-02
5.084450912838728073e+03 1.428541232910560677e+00 2.373260027366256089e-02
5.089535363751569093e+03 1.431269318845094896e+00 1.823846491475320311e-02
5.094624899115322478e+03 1.399829201310939908e+00 1.565143643736046850e-02
5.099719524014439230e+03 1.329339787607728196e+00 1.668962722352478403e-02
5.104819243538455339e+03 1.239967388361244094e+00 1.802422841419532712e-02
5.109924062781995417e+03 1.125065936344011419e+00 2.269328397086299576e-02
5.115033986844779065e+03 9.988374185224272450e-01 2.566770191313827443e-02
5.120149020831625421e+03 8.704938435924207685e-01 2.852992921661719541e-02
5.125269169852458617e+03 7.798120706362008381e-01 2.730039471964703854e-02
5.130394439022313236e+03 7.332034331557519824e-01 2.452402780582380037e-02
5.135524833461337039e+03 7.315305657933590666e-01 2.039606137261323199e-02
5.140660358294800062e+03 7.713247699515370925e-01 2.066191288680296195e-02
5.145801018653096435e+03 8.717520547581218970e-01 2.270306402760363315e-02
5.150946819671751655e+03 1.022595531429109750e+00 2.567897758068398220e-02
5.156097766491425318e+03 1.200333688935760312e+00 2.699036298360590891e-02
5.161253864257918394e+03 1.365964827877684140e+00 2.251077614117936304e-02
5.166415118122177773e+03 1.526273642166520617e+00 1.534970150331099563e-02
5.171581533240301724e+03 1.632402626714565486e+00 1.533433589651733708e-02
5.176753114773543530e+03 1.709793208323586500e+00 1.742877141954681658e-02
5.181929867888318768e+03 1.740563003223808858e+00 2.258275277962190283e-02
5.187111797756208944e+03 1.745901358652445223e+00 2.197249095930254442e-02
5.192298909553966951e+03 1.725479894913397594e+00 2.012968412677763885e-02
5.197491208463522526e+03 1.693261322386678813e+00 1.725520310594129067e-02
5.202688699671987706e+03 1.649575157121649038e+00 1.562302354564041457e-02
5.207891388371661378e+03 1.608236488251314045e+00 1.572713930008599534e-02
5.213099279760034733e+03 1.559313620068464967e+00 1.610043764341100025e-02
5.218312379039796724e+03 1.516871041787568153e+00 1.704403793548818838e-02
5.223530691418837705e+03 1.481234957802151753e+00 1.947846926058917350e-02
5.228754222110258524e+03 1.472461399547056127e+00 2.063223996906669508e-02
5.233982976332370527e+03 1.490093080168225947e+00 2.059907726614031501e-02
5.239216959308704645e+03 1.523058050846626266e+00 2.465433704866598283e-02
5.244456176268015042e+03 1.560495809674961931e+00 3.028984371370072731e-02
5.249700632444284565e+03 1.623916778386223614e+00 3.940509087258542431e-02
5.254950333076731113e+03 1.645745157890843524e+00 3.871658322391963863e-02
5.260205283409809454e+03 1.655239805366303552e+00 3.372508873955631231e-02
5.265465488693221232e+03 1.631859420264828664e+00 3.456633510914410706e-02
5.270730954181915877e+03 1.566754101904801022e+00 4.631118013912239456e-02
5.276001685136099695e+03 1.511783212386219821e+00 4.889724320095673732e-02
5.281277686821237694e+03 1.456044728995922632e+00 4.659670031812920832e-02
5.286558964508059944e+03 1.416425854302217235e+00 4.057633894835541849e-02
5.291845523472569766e+03 1.429623619704708082e+00 3.847519262716631028e-02
5.297137368996044643e+03 1.454668315591588712e+00 4.101144698504442798e-02
5.302434506365042580e+03 1.533497508918345797e+00 4.655423573434860213e-02
5.307736940871409388e+03 1.626599402810954276e+00 4.207817750747706864e-02
5.313044677812282316e+03 1.716428338471704951e+00 3.403415798330867992e-02
5.318357722490096421e+03 1.806717317518296673e+00 2.326816835408859752e-02
5.323676080212588204e+03 1.839764992265777277e+00 2.601805200976754079e-02
5.328999756292802886e+03 1.841049335137963539e+00 2.763454388708595083e-02
5.334328756049097137e+03 1.815291114162110864e+00 2.494069324401672338e-02
5.339663084805148173e+03 1.775641657179987121e+00 1.501077331377367353e-02
5.345002747889954662e+03 1.756199519539050069e+00 1.478841311935587786e-02
5.350347750637846730e+03 1.730317381028830148e+00 1.620989027561136470e-02
5.355698098388485960e+03 1.718716500489013921e+00 1.914070053989934406e-02
5.361053796486876308e+03 1.690128853750163973e+00 1.721645081546012424e-02
5.366414850283365013e+03 1.663598195586304174e+00 1.381205428496744443e-02
5.371781265133649867e+03 1.624927543554409270e+00 1.426875273042058252e-02
5.377153046398785591e+03 1.572989405688224096e+00 1.884803946428938171e-02
5.382530199445186554e+03 1.531896499338869511e+00 2.030159032298563954e-02
5.387912729644633146e+03 1.488067874383156797e+00 2.015630338442420469e-02
5.393300642374279960e+03 1.482147390809822385e+00 1.887323030200232718e-02
5.398693943016655794e+03 1.498234847717672791e+00 1.765717533033539510e-02
5.404092636959673655e+03 1.543143181267231601e+00 2.254222741886463544e-02
5.409496729596635305e+03 1.607309418116855015e+00 2.709749133821999154e-02
5.414906226326233991e+03 1.670007520363064657e+00 2.860944881842808832e-02
5.420321132552561721e+03 1.755774157498118493e+00 2.265959453642509697e-02
5.425741453685116539e+03 1.787370945947614143e+00 1.857878127603989835e-02
5.431167195138803436e+03 1.787003685069320058e+00 1.940600823309199599e-02
5.436598362333943442e+03 1.755495289520436764e+00 2.390011832125862878e-02
5.442034960696279086e+03 1.681005096900024087e+00 2.866492725296474961e-02
5.447476995656978033e+03 1.620151816888608876e+00 2.737499052086077647e-02
5.452924472652636723e+03 1.546769319403202170e+00 2.317324703617270817e-02
5.458377397125291282e+03 1.480036786198615451e+00 2.295406676356050515e-02
5.463835774522417523e+03 1.415106202541427605e+00 2.291310880874654690e-02
5.469299610296941864e+03 1.360983074577837515e+00 2.292347596584746669e-02
