# starting wavelength: 3241.590
# ending wavelength: 10068.600
# wav flux eflux
3.242718081123734919e+03 1.504598070414524091e+00 4.671472000927439083e-01
3.245960799204859995e+03 1.427671675285536068e+00 3.427651537966168172e-01
3.249206760004065927e+03 1.347599765126994864e+00 2.561974047498208340e-01
3.252455966764071036e+03 1.284165456418969953e+00 1.949655486734738208e-01
3.255708422730835991e+03 1.240225858402192127e+00 1.508327454339736529e-01
3.258964131153567905e+03 1.212545168171539123e+00 1.189202936037908886e-01
3.262223095284722604e+03 1.193926628458816364e+00 9.542242556073546322e-02
3.265485318380008266e+03 1.188298583810248221e+00 8.016099825024518288e-02
3.268750803698389518e+03 1.189932787212706122e+00 6.853149690451570963e-02
3.272019554502088795e+03 1.192445579009206558e+00 5.946720439187832413e-02
3.275291574056592253e+03 1.201666764126160691e+00 5.182533277657185716e-02
3.278566865630649772e+03 1.222893894243093138e+00 4.679198752419583968e-02
3.281845432496281319e+03 1.244509189902658353e+00 4.282643270978145345e-02
3.285127277928778767e+03 1.260999336430148610e+00 3.966821304644765900e-02
3.288412405206708627e+03 1.277717529408060049e+00 3.734971821320098168e-02
3.291700817611916591e+03 1.295985824490008431e+00 3.554093134397989795e-02
3.294992518429529355e+03 1.317332871319113918e+00 3.409419416680015830e-02
3.298287510947960072e+03 1.343591888392843936e+00 3.257836235656720592e-02
3.301585798458909267e+03 1.361760506026838513e+00 3.163763195076166324e-02
3.304887384257369376e+03 1.387026312161028230e+00 2.926048144379842647e-02
3.308192271641627485e+03 1.394946917469303216e+00 2.881350768010155355e-02
3.311500463913270323e+03 1.392713086329587791e+00 2.700907329615924446e-02
3.314811964377184722e+03 1.402985061173180670e+00 2.680533354193482751e-02
3.318126776341563072e+03 1.405341674777979444e+00 2.407082106077238284e-02
3.321444903117905596e+03 1.398937876655544033e+00 2.006562798024584884e-02
3.324766348021024896e+03 1.395687228410900538e+00 1.991475822134394086e-02
3.328091114369046863e+03 1.395134780050137691e+00 2.007498054910305738e-02
3.331419205483417045e+03 1.401796093425243583e+00 1.961577273610742855e-02
3.334750624688901553e+03 1.405760667724770707e+00 1.968167346815438007e-02
3.338085375313591612e+03 1.417064988593755626e+00 1.928799921755491864e-02
3.341423460688906289e+03 1.425011958367275566e+00 1.912561414965975246e-02
3.344764884149596128e+03 1.432006139937525679e+00 1.833919747992845961e-02
3.348109649033746791e+03 1.436359316351361493e+00 1.806314482887174527e-02
3.351457758682781787e+03 1.445727563679692240e+00 1.806926300781381070e-02
3.354809216441465651e+03 1.453759068087991269e+00 1.799738860050519029e-02
3.358164025657908041e+03 1.461937567983850661e+00 1.748371893686260711e-02
3.361522189683567376e+03 1.468840576893545524e+00 1.763089821893049428e-02
3.364883711873251741e+03 1.482115557947843776e+00 1.761228105683649431e-02
3.368248595585126168e+03 1.497693432390794666e+00 1.704877119546623424e-02
3.371616844180712633e+03 1.512398253789521529e+00 1.743042132974978453e-02
3.374988461024894150e+03 1.527489091037680158e+00 1.712083268161582877e-02
3.378363449485920228e+03 1.545615860859600676e+00 1.720529656254177198e-02
3.381741812935407324e+03 1.567536530534378469e+00 1.725635011705279470e-02
3.385123554748343849e+03 1.598403345153996735e+00 1.711961908656229811e-02
3.388508678303093347e+03 1.619431289479076552e+00 1.612181200483552707e-02
3.391897186981397681e+03 1.643211478941451587e+00 1.412941497628814047e-02
3.395289084168380214e+03 1.678093023809075657e+00 1.412705030891983973e-02
3.398684373252549449e+03 1.717991544938424431e+00 1.426578641031739370e-02
3.402083057625803121e+03 1.751701935320523429e+00 1.462855022811604226e-02
3.405485140683430018e+03 1.789231418496078696e+00 1.139458460958864272e-02
3.408890625824114522e+03 1.841094202748507547e+00 1.060921155599199410e-02
3.412299516449939802e+03 1.902359520454130148e+00 1.095358506090372309e-02
3.415711815966390986e+03 1.977321298757193091e+00 1.168926546239746310e-02
3.419127527782358356e+03 2.048098676499128246e+00 1.182120362069731014e-02
3.422546655310141887e+03 2.123191609563403581e+00 1.278745127114731817e-02
3.425969201965453522e+03 2.203954634043012728e+00 1.427662770025606848e-02
3.429395171167419903e+03 2.285121477849527238e+00 1.515175676468560190e-02
3.432824566338588284e+03 2.355658571324432682e+00 1.561733749972393608e-02
3.436257390904928343e+03 2.433661850810010741e+00 1.300900662704310498e-02
3.439693648295834464e+03 2.494872873454941242e+00 1.292268342690678674e-02
3.443133341944131189e+03 2.545346226263522915e+00 1.336917153868299839e-02
3.446576475286076402e+03 2.586708956167673268e+00 1.319651663975788224e-02
3.450023051761363604e+03 2.613372479573019547e+00 1.280149104989036606e-02
3.453473074813126004e+03 2.626109919241568225e+00 1.227475353565350528e-02
3.456926547887940615e+03 2.625036011733765662e+00 1.237098314636257516e-02
3.460383474435829612e+03 2.609315255607445927e+00 1.423124319853327074e-02
3.463843857910266706e+03 2.583123439201481908e+00 1.583220287941603313e-02
3.467307701768178049e+03 2.539030507781879997e+00 1.685276937943273878e-02
3.470775009469947236e+03 2.484479977423068142e+00 1.822389662440262320e-02
3.474245784479418489e+03 2.434836283963612846e+00 1.835552535301601673e-02
3.477720030263898934e+03 2.374209717714844903e+00 1.769444132062942751e-02
3.481197750294164052e+03 2.316942059167424794e+00 1.661459495645058876e-02
3.484678948044459503e+03 2.254348438982314740e+00 1.174727302220827246e-02
3.488163626992504760e+03 2.206714638515426596e+00 1.093821363787757760e-02
3.491651790619498570e+03 2.164490450435094360e+00 1.118376085343372739e-02
3.495143442410119405e+03 2.133562568860324138e+00 1.326782423990670659e-02
3.498638585852530468e+03 2.104434749862496901e+00 1.371141896128455842e-02
3.502137224438384237e+03 2.080669711462778793e+00 1.376943791064610956e-02
3.505639361662823831e+03 2.066759457531686106e+00 1.272458049964933328e-02
3.509145001024487556e+03 2.052369141571279254e+00 1.187909028472059099e-02
3.512654146025513455e+03 2.037327083294286467e+00 1.166750855000597310e-02
3.516166800171540217e+03 2.027476563647843566e+00 1.095914838749213749e-02
3.519682966971712631e+03 2.016751586727578260e+00 1.009994002471767058e-02
3.523202649938685681e+03 2.008038084079058816e+00 9.334163565415908026e-03
3.526725852588625457e+03 1.997063213715079666e+00 9.480958836729483710e-03
3.530252578441215064e+03 1.983200561796818251e+00 9.341910548824997745e-03
3.533782831019657806e+03 1.970510996522577774e+00 9.212277119985191540e-03
3.537316613850678550e+03 1.957478000748549718e+00 9.065638842575073075e-03
3.540853930464530094e+03 1.942132779043231894e+00 8.281719204598950515e-03
3.544394784394995895e+03 1.922660319512954574e+00 6.938298098415503039e-03
3.547939179179392340e+03 1.908971646736156824e+00 6.946886489629559326e-03
3.551487118358572843e+03 1.894936358489671235e+00 7.326568813879501436e-03
3.555038605476932389e+03 1.882319178956003425e+00 7.126965374366495999e-03
3.558593644082410719e+03 1.866730108072205851e+00 6.807951990931882143e-03
3.562152237726494150e+03 1.854264584778165581e+00 6.761780008092535543e-03
3.565714389964221937e+03 1.839824113096710789e+00 7.001855806281973016e-03
3.569280104354187188e+03 1.825677725097115456e+00 7.592865948115954527e-03
3.572849384458542772e+03 1.811241010745356705e+00 7.914387747834582612e-03
3.576422233843002232e+03 1.799538928072415223e+00 7.807005719276480932e-03
3.579998656076846601e+03 1.787826479489666109e+00 7.794871176300969574e-03
3.583578654732924406e+03 1.778160600103206201e+00 7.345244255294158114e-03
3.587162233387658489e+03 1.763239968074984398e+00 6.023497331441601647e-03
3.590749395621047370e+03 1.753506978042246311e+00 6.111590187086962320e-03
3.594340145016669794e+03 1.749440310487271999e+00 7.583126251055508776e-03
3.597934485161687462e+03 1.745295366182652241e+00 8.353052746867511980e-03
3.601532419646850485e+03 1.738449249138359187e+00 8.900921493444948970e-03
3.605133952066498296e+03 1.730342612854222084e+00 8.572277687710991995e-03
3.608739086018566013e+03 1.715844170114275036e+00 7.618518192714771563e-03
3.612347825104585809e+03 1.696969079686860393e+00 6.835952286273914470e-03
3.615960172929691907e+03 1.676651567528046449e+00 5.776035823537134864e-03
3.619576133102622407e+03 1.646747031502539427e+00 5.945021677982462692e-03
3.623195709235726554e+03 1.612178278776064566e+00 6.372954264444211439e-03
3.626818904944963379e+03 1.574812003387125792e+00 6.528918682473278286e-03
3.630445723849909427e+03 1.535323284428766311e+00 6.346799994495025583e-03
3.634076169573760581e+03 1.491926080329584403e+00 5.705832641334544590e-03
3.637710245743335690e+03 1.451340070433102536e+00 5.908465812367228939e-03
3.641347955989080219e+03 1.407747446690520876e+00 5.807191913828039023e-03
3.644989303945070333e+03 1.376164470111029603e+00 6.100293498083102228e-03
3.648634293249016537e+03 1.351041623491855415e+00 5.969080799608266624e-03
3.652282927542266862e+03 1.336485516911083193e+00 6.685671461759127264e-03
3.655935210469810499e+03 1.337776724857338895e+00 6.881192774310489375e-03
3.659591145680281443e+03 1.348914572263899103e+00 6.028672645377723162e-03
3.663250736825963031e+03 1.378379845283224991e+00 5.580540250507755318e-03
3.666913987562790226e+03 1.422888522273010325e+00 6.230584331215194109e-03
3.670580901550354156e+03 1.481526096371912349e+00 7.231272362002598431e-03
3.674251482451905758e+03 1.553611753306219034e+00 8.049485638018927941e-03
3.677925733934358959e+03 1.638338097883872857e+00 8.643325533230144381e-03
3.681603659668294313e+03 1.729114203868668431e+00 8.391929973793336994e-03
3.685285263327964003e+03 1.824094325511920855e+00 8.512160723520975289e-03
3.688970548591293209e+03 1.924715142306719473e+00 9.011828011269226377e-03
3.692659519139885560e+03 2.028053439323118656e+00 8.101636193116117449e-03
3.696352178659026777e+03 2.125861195914530377e+00 6.898477272173886808e-03
3.700048530837686940e+03 2.222143801116877704e+00 4.500701151076296619e-03
3.703748579368525952e+03 2.306583819337167718e+00 4.388607657905599889e-03
3.707452327947895355e+03 2.380705925380892651e+00 4.571905276233389701e-03
3.711159780275844696e+03 2.441128449993929195e+00 4.526959648518584858e-03
3.714870940056121526e+03 2.485417676883753479e+00 5.460416995436594319e-03
3.718585810996179134e+03 2.513138865387870347e+00 7.869519139296787813e-03
3.722304396807176545e+03 2.536268989541243801e+00 8.622448656460685729e-03
3.726026701203984885e+03 2.550749136380139781e+00 9.107647312034439918e-03
3.729752727905190113e+03 2.561453865097245153e+00 8.796316678227961844e-03
3.733482480633096657e+03 2.563759237295895055e+00 8.642706372084738020e-03
3.737215963113731050e+03 2.560719480447460228e+00 8.919960342342294485e-03
3.740953179076846027e+03 2.552948894740606711e+00 1.023724155656531402e-02
3.744694132255923705e+03 2.532707382802636076e+00 1.093182759752226244e-02
3.748438826388181042e+03 2.502231822579052078e+00 1.183846130913272267e-02
3.752187265214570289e+03 2.461026823812410669e+00 1.185282237637707604e-02
3.755939452479786269e+03 2.407178780904683180e+00 1.144241742590286492e-02
3.759695391932267285e+03 2.338484026777302827e+00 1.074261110285790188e-02
3.763455087324201031e+03 2.259001225435950388e+00 9.632738129287660503e-03
3.767218542411526414e+03 2.164205430638888483e+00 1.006024957445638204e-02
3.770985760953939007e+03 2.056221686093635981e+00 1.101225111473185143e-02
3.774756746714894234e+03 1.935449418527281473e+00 1.122477835066289925e-02
3.778531503461610555e+03 1.809484229495261998e+00 1.067473714452417746e-02
3.782310034965073100e+03 1.682009005864348428e+00 9.689049572364719781e-03
3.786092345000039586e+03 1.550984655034123305e+00 6.069912746646843535e-03
3.789878437345040766e+03 1.429516028599886468e+00 4.762444396182740486e-03
3.793668315782387253e+03 1.320826705450185434e+00 5.014234908310509498e-03
3.797461984098170888e+03 1.222220115985431121e+00 4.493603638031948115e-03
3.801259446082270188e+03 1.136166173055075390e+00 1.814151522531476813e-03
3.805060705528353537e+03 1.056094252336066130e+00 1.463263573308484907e-03
3.808865766233883278e+03 9.863238084964065511e-01 1.373743063035309580e-03
3.812674632000118436e+03 9.258595334959898171e-01 1.309171288835765667e-03
3.816487306632119726e+03 8.759669732559056676e-01 1.328138555042120529e-03
3.820303793938753188e+03 8.374329816922234659e-01 1.384978778028319105e-03
3.824124097732693372e+03 8.113284677928112032e-01 1.829929803659965937e-03
3.827948221830427428e+03 7.957908620913745068e-01 2.180705008959706037e-03
3.831776170052258749e+03 7.915053719083294803e-01 2.369971371846079332e-03
3.835607946222312421e+03 7.973987049595833154e-01 2.324561163478190348e-03
3.839443554168536139e+03 8.124763044026342973e-01 2.252578510620187931e-03
3.843282997722705659e+03 8.353031846430460927e-01 2.243946575532389676e-03
3.847126280720429804e+03 8.652026671429953186e-01 2.282182773278091954e-03
3.850973407001151372e+03 9.038382798929676110e-01 2.371959893672545561e-03
3.854824380408153957e+03 9.479422651028295288e-01 3.449106546243377747e-03
3.858679204788563311e+03 1.003321771486136660e+00 4.387439376672474384e-03
3.862537883993353262e+03 1.068326799979850694e+00 5.048397694439809950e-03
3.866400421877347981e+03 1.145692728217694967e+00 4.947502139806117527e-03
3.870266822299226533e+03 1.235305870761483904e+00 4.031582516155488710e-03
3.874137089121526969e+03 1.340454805091710444e+00 3.156431904756883903e-03
3.878011226210649966e+03 1.461589523485565145e+00 2.962574122368443873e-03
3.881889237436861549e+03 1.598223440748888224e+00 5.251989194183500319e-03
3.885771126674299921e+03 1.751902915613994915e+00 1.043304328954944293e-02
3.889656897800975457e+03 1.899708265624672210e+00 1.045428805665227050e-02
3.893546554698777527e+03 2.051070255326148839e+00 9.000658344790577955e-03
3.897440101253477678e+03 2.188281800098635266e+00 8.074212493387265821e-03
3.901337541354732366e+03 2.317668699350063477e+00 7.308619953971156116e-03
3.905238878896088409e+03 2.428169630095075693e+00 7.699920392031492193e-03
3.909144117774985716e+03 2.526648863643207843e+00 8.300543286325470782e-03
3.913053261892762293e+03 2.601417212844358229e+00 9.576323769064084418e-03
3.916966315154656058e+03 2.670203445540257459e+00 9.421273097765218638e-03
3.920883281469812118e+03 2.729501886628654894e+00 8.241068343690819559e-03
3.924804164751283224e+03 2.785517842985744341e+00 8.241840743163024452e-03
3.928728968916035683e+03 2.830313955759689915e+00 8.567716279300734844e-03
3.932657697884953450e+03 2.871317077993325917e+00 8.573521306394693217e-03
3.936590355582839493e+03 2.904972240278368201e+00 8.320897072013559020e-03
3.940526945938423523e+03 2.925367756245901507e+00 7.880621366291400837e-03
3.944467472884363360e+03 2.940570981668959583e+00 8.043409148717482401e-03
3.948411940357249023e+03 2.944592407725973526e+00 7.778593628583770417e-03
3.952360352297607733e+03 2.939177416136907972e+00 7.417778589869663403e-03
3.956312712649906643e+03 2.921652885843212033e+00 6.476470466586429012e-03
3.960269025362557841e+03 2.901449498353846135e+00 6.595266512157291205e-03
3.964229294387921527e+03 2.877266235491193758e+00 6.871961445104759689e-03
3.968193523682310570e+03 2.840860036933926303e+00 7.083820578860520502e-03
3.972161717205994591e+03 2.802584325849422520e+00 7.300369329288626009e-03
3.976133878923201792e+03 2.748977073477688826e+00 7.040476118916427425e-03
3.980110012802126221e+03 2.687960089654966467e+00 6.463707671638871215e-03
3.984090122814929600e+03 2.618429941293570540e+00 7.103567138255656790e-03
3.988074212937745870e+03 2.538191300335599365e+00 8.465393191305545934e-03
3.992062287150684824e+03 2.459732382525784189e+00 7.169915626065561168e-03
3.996054349437837118e+03 2.385307928694212265e+00 6.296875029307992186e-03
4.000050403787276082e+03 2.325399269371923872e+00 5.900473335625626946e-03
4.004050454191064546e+03 2.274802459980862945e+00 4.075453664281553090e-03
4.008054504645257111e+03 2.244945552405976930e+00 4.142069881765163449e-03
4.012062559149903791e+03 2.234098380996362820e+00 5.010226371454355558e-03
4.016074621709055009e+03 2.238217536852283196e+00 6.823062772086533993e-03
4.020090696330765240e+03 2.251210631489330982e+00 7.096082085558506544e-03
4.024110787027097558e+03 2.273840857455288855e+00 6.197342150596582729e-03
4.028134897814125907e+03 2.300100999576276894e+00 3.175882381101456046e-03
4.032163032711941469e+03 2.320342775786122580e+00 2.707134045078398842e-03
4.036195195744654484e+03 2.337777010269841416e+00 2.597722545452531024e-03
4.040231390940400615e+03 2.347954053764332194e+00 2.531170964622729905e-03
4.044271622331342314e+03 2.348869923314774955e+00 2.528898047196889102e-03
4.048315893953675186e+03 2.342475057093639013e+00 2.395284827216971699e-03
4.052364209847629809e+03 2.324586347655389851e+00 2.543291158261427442e-03
4.056416574057479011e+03 2.298163585500928807e+00 2.608291816320657767e-03
4.060472990631537868e+03 2.263727272452228600e+00 2.978615505568874954e-03
4.064533463622170530e+03 2.223765059164248825e+00 3.596571312707796952e-03
4.068597997085794304e+03 2.178556514882584949e+00 5.677469410579468953e-03
4.072666595082881486e+03 2.140917007522475490e+00 5.776375529330714069e-03
4.076739261677965715e+03 2.104617091809914964e+00 5.135472316152357199e-03
4.080816000939644709e+03 2.077475804804130188e+00 4.465645478056718201e-03
4.084896816940585722e+03 2.058791574027983629e+00 4.604333645131826816e-03
4.088981713757527814e+03 2.047716815830388448e+00 5.480369313368835781e-03
4.093070695471286854e+03 2.046826743096776813e+00 6.307183310001550532e-03
4.097163766166759160e+03 2.048695688133907122e+00 5.768024542591532536e-03
4.101260929932927866e+03 2.048849921346005853e+00 5.006390922815669685e-03
4.105362190862862008e+03 2.044001067898086887e+00 3.447335921393900136e-03
4.109467553053726078e+03 2.031444280459746565e+00 3.191420453050104744e-03
4.113577020606780934e+03 2.009876899835711939e+00 3.297990970830533795e-03
4.117690597627389252e+03 1.979653861393784409e+00 4.013332113761556262e-03
4.121808288225018259e+03 1.938505940949242889e+00 5.077464310951092415e-03
4.125930096513244280e+03 1.897674568791753336e+00 5.444865594944835706e-03
4.130056026609759101e+03 1.851232020756184760e+00 4.457313059115330760e-03
4.134186082636369974e+03 1.815014398218555591e+00 3.965877659690189225e-03
4.138320268719007800e+03 1.783542404737163523e+00 3.379136064927331772e-03
4.142458588987728035e+03 1.761442122427037127e+00 3.857379167170141201e-03
4.146601047576717065e+03 1.742872377746008006e+00 4.474252720171946994e-03
4.150747648624294925e+03 1.733695607066981559e+00 5.500854317539203599e-03
4.154898396272920763e+03 1.722194300407812184e+00 5.623829656412984192e-03
4.159053294669195566e+03 1.712009114570792523e+00 4.863334987501354532e-03
4.163212347963865795e+03 1.695488463418132419e+00 3.931066136584507147e-03
4.167375560311830668e+03 1.675024446279898438e+00 3.045343703701544787e-03
4.171542935872143971e+03 1.644086678620207964e+00 3.623821507941475499e-03
4.175714478808017702e+03 1.607987746082014890e+00 4.295745107550856361e-03
4.179890193286827525e+03 1.565239961060952201e+00 4.916705106113591385e-03
4.184070083480115500e+03 1.519077975267079772e+00 2.967276365798652681e-03
4.188254153563597356e+03 1.476637270460888107e+00 2.286312795078731131e-03
4.192442407717161586e+03 1.439440012344948672e+00 1.848293351801273861e-03
4.196634850124880359e+03 1.407060524176324989e+00 2.161356548166868796e-03
4.200831484975006788e+03 1.382433394377739377e+00 3.311590963935224282e-03
4.205032316459983122e+03 1.360781198856814367e+00 3.535796428301541706e-03
4.209237348776444378e+03 1.342586851809720372e+00 3.397486479219110917e-03
4.213446586125221984e+03 1.328613221323812432e+00 2.580463970040374269e-03
4.217660032711349231e+03 1.316829898469021654e+00 2.626981128697373959e-03
4.221877692744061278e+03 1.307204078327600438e+00 3.444583920579865136e-03
