# starting wavelength: 3640.280
# ending wavelength: 9218.110
# wav flux eflux
3.641347955989080219e+03 6.769506509271885908e-02 1.456362936127519360e-02
3.644989303945070333e+03 7.028835365807918623e-02 1.142794211169999644e-02
3.648634293249016537e+03 7.070550273954115394e-02 8.689272631493103957e-03
3.652282927542266862e+03 6.984857232241939440e-02 6.946554116068947606e-03
3.655935210469810499e+03 6.674493800130891497e-02 5.377688856021941959e-03
3.659591145680281443e+03 6.167965496881477883e-02 7.050445370276169771e-03
3.663250736825963031e+03 5.804188830353382289e-02 5.998573212632551423e-03
3.666913987562790226e+03 5.483147659361195525e-02 4.857043498483050968e-03
3.670580901550354156e+03 5.224679557432101301e-02 4.430578297871494084e-03
3.674251482451905758e+03 5.030973008265130636e-02 4.039522319976453571e-03
3.677925733934358959e+03 4.821500744852609543e-02 3.498793784195971222e-03
3.681603659668294313e+03 4.424156270720799866e-02 3.952649639221228819e-03
3.685285263327964003e+03 4.075119334541699168e-02 4.004572281828708454e-03
3.688970548591293209e+03 3.946967147993859365e-02 3.723881274953613763e-03
3.692659519139885560e+03 3.853357258782751787e-02 3.503460642228798695e-03
3.696352178659026777e+03 3.906411846108195224e-02 3.386330522732775364e-03
3.700048530837686940e+03 3.940370588329282497e-02 3.420099353203091136e-03
3.703748579368525952e+03 4.294918460310058472e-02 3.335102533659660244e-03
3.707452327947895355e+03 4.674532437547830599e-02 3.325402500863853302e-03
3.711159780275844696e+03 5.158226707452281956e-02 3.324257021748779593e-03
3.714870940056121526e+03 5.834420695758070485e-02 3.407355329281885545e-03
3.718585810996179134e+03 6.466764187525118890e-02 3.564840325693112780e-03
3.722304396807176545e+03 7.414046131098202264e-02 4.539257619937118668e-03
3.726026701203984885e+03 8.340907771351620259e-02 5.293625262077630150e-03
3.729752727905190113e+03 8.981273396895322891e-02 5.284492505419243792e-03
3.733482480633096657e+03 9.948105500878832996e-02 5.585474570461459315e-03
3.737215963113731050e+03 1.078470773562492935e-01 5.542148286683960638e-03
3.740953179076846027e+03 1.126467268178774350e-01 5.537118156738659973e-03
3.744694132255923705e+03 1.188547395738414059e-01 5.144655756278610631e-03
3.748438826388181042e+03 1.240190859266654677e-01 4.966282519868583760e-03
3.752187265214570289e+03 1.272827005437773829e-01 4.724556742537655910e-03
3.755939452479786269e+03 1.271218372226637083e-01 4.908494513806897427e-03
3.759695391932267285e+03 1.283094241139217107e-01 5.103165021085839456e-03
3.763455087324201031e+03 1.259213916678276202e-01 6.307038671700167763e-03
3.767218542411526414e+03 1.236536759061604013e-01 6.630173407059197603e-03
3.770985760953939007e+03 1.219048336028165647e-01 6.831466497645853793e-03
3.774756746714894234e+03 1.167165976062817384e-01 7.430054708578702830e-03
3.778531503461610555e+03 1.103015434265735284e-01 6.617233329445379106e-03
3.782310034965073100e+03 1.110727008000871735e-01 6.612633071339186867e-03
3.786092345000039586e+03 1.075513172017215358e-01 4.641584616797213812e-03
3.789878437345040766e+03 1.093402130279247098e-01 4.985106169918917911e-03
3.793668315782387253e+03 1.124786395729178157e-01 4.991070144991828668e-03
3.797461984098170888e+03 1.169648219874627609e-01 6.333176283378313259e-03
3.801259446082270188e+03 1.257876570093864055e-01 7.923053944446867281e-03
3.805060705528353537e+03 1.335452510164335249e-01 7.671848435326729734e-03
3.808865766233883278e+03 1.396670693594246893e-01 8.321794842774210207e-03
3.812674632000118436e+03 1.469743099110084883e-01 8.485987122412936082e-03
3.816487306632119726e+03 1.535883525256414028e-01 7.686315646291155129e-03
3.820303793938753188e+03 1.595848888783883979e-01 6.069763698669519529e-03
3.824124097732693372e+03 1.570917868101368575e-01 6.130125418585490212e-03
3.827948221830427428e+03 1.566006920219335241e-01 6.032718252743556400e-03
3.831776170052258749e+03 1.527207060643866188e-01 6.277104642285519405e-03
3.835607946222312421e+03 1.416027270026764262e-01 7.200177345369906598e-03
3.839443554168536139e+03 1.331912317099925025e-01 7.169621539202720821e-03
3.843282997722705659e+03 1.185903992674717938e-01 7.688355878938704820e-03
3.847126280720429804e+03 1.048370377979697121e-01 7.718412892106385308e-03
3.850973407001151372e+03 9.247677708829411813e-02 7.784138151778783460e-03
3.854824380408153957e+03 7.615754540340925749e-02 6.672018194751963734e-03
3.858679204788563311e+03 6.120392695679729989e-02 5.799577399095020257e-03
3.862537883993353262e+03 4.905065371307967131e-02 5.313229561582968538e-03
3.866400421877347981e+03 4.130810543936902501e-02 5.295501664962477643e-03
3.870266822299226533e+03 3.295483963288445978e-02 5.511323011466317742e-03
3.874137089121526969e+03 3.120603734903366205e-02 6.308619127939383599e-03
3.878011226210649966e+03 3.161167304329038502e-02 5.884298955192037925e-03
3.881889237436861549e+03 2.969024343361089530e-02 5.897704977116463403e-03
3.885771126674299921e+03 3.333913383425499144e-02 5.300125436237521949e-03
3.889656897800975457e+03 3.897554418505434076e-02 2.711086682053938639e-03
3.893546554698777527e+03 4.216759876537518742e-02 2.852602399017902142e-03
3.897440101253477678e+03 4.445648666002785521e-02 3.750056206609589122e-03
3.901337541354732366e+03 4.602207665308252760e-02 4.431588676658359746e-03
3.905238878896088409e+03 5.134612844528830405e-02 4.250868036039959739e-03
3.909144117774985716e+03 5.715348859645948132e-02 4.471165713774404200e-03
3.913053261892762293e+03 6.771732167810100289e-02 4.945815161327295380e-03
3.916966315154656058e+03 7.964529865084161997e-02 3.910943387063296403e-03
3.920883281469812118e+03 9.523818416355508965e-02 3.618831145337897404e-03
3.924804164751283224e+03 1.149006409210381607e-01 3.674522301980715552e-03
3.928728968916035683e+03 1.399884082831790444e-01 5.419207027286663050e-03
3.932657697884953450e+03 1.634497441812526319e-01 5.768535912349290716e-03
3.936590355582839493e+03 1.931338774810462122e-01 7.653210144149766476e-03
3.940526945938423523e+03 2.217287025659907262e-01 8.000435922875959865e-03
3.944467472884363360e+03 2.443449150052541818e-01 7.983422727102727420e-03
3.948411940357249023e+03 2.720199591820887108e-01 6.779177327525264668e-03
3.952360352297607733e+03 2.948857856984333781e-01 5.634721374901617216e-03
3.956312712649906643e+03 3.139392452876310635e-01 5.145737086626836834e-03
3.960269025362557841e+03 3.254175122317139457e-01 5.141008250615721614e-03
3.964229294387921527e+03 3.334022766292469298e-01 5.951951740439741234e-03
3.968193523682310570e+03 3.389831831677355134e-01 6.350682329262799172e-03
3.972161717205994591e+03 3.369172083223614944e-01 7.309701318267331806e-03
3.976133878923201792e+03 3.340111319990508032e-01 7.830982734044778307e-03
3.980110012802126221e+03 3.262062909282784084e-01 6.413973428508592221e-03
3.984090122814929600e+03 3.181348950677977960e-01 5.634085747346674611e-03
3.988074212937745870e+03 3.099862746548497361e-01 4.717057724397486634e-03
3.992062287150684824e+03 3.022307804742306869e-01 5.017433827017892499e-03
3.996054349437837118e+03 2.974845937093925086e-01 6.326521081163897532e-03
4.000050403787276082e+03 2.915106118433472004e-01 6.482884111951896060e-03
4.004050454191064546e+03 2.859400559662652608e-01 6.224854592672166703e-03
4.008054504645257111e+03 2.809294642496092398e-01 5.286891653525803078e-03
4.012062559149903791e+03 2.708116018978788397e-01 6.271901539313692528e-03
4.016074621709055009e+03 2.665247681296425419e-01 6.481616726326719195e-03
4.020090696330765240e+03 2.575262051208649372e-01 7.567150822600421725e-03
4.024110787027097558e+03 2.517087280833307794e-01 7.570009787579374053e-03
4.028134897814125907e+03 2.509022102199466309e-01 7.155802672535883056e-03
4.032163032711941469e+03 2.478201706771724633e-01 6.427639197642371835e-03
4.036195195744654484e+03 2.500580629378018616e-01 6.351761589584312834e-03
4.040231390940400615e+03 2.555941690510286635e-01 6.397666645813187419e-03
4.044271622331342314e+03 2.628452705818641322e-01 6.596863035010693682e-03
4.048315893953675186e+03 2.763105512862414348e-01 6.800130175841069720e-03
4.052364209847629809e+03 2.936001446411466431e-01 7.419714154849058052e-03
4.056416574057479011e+03 3.114742132053595070e-01 7.266047468789831043e-03
4.060472990631537868e+03 3.321526270434884132e-01 5.773157454267485722e-03
4.064533463622170530e+03 3.477476007133566971e-01 5.562515108941069354e-03
4.068597997085794304e+03 3.662048041987807090e-01 5.392438914102800664e-03
4.072666595082881486e+03 3.793387546204075034e-01 5.993138972419374474e-03
4.076739261677965715e+03 3.878681995575430919e-01 5.268572804751735748e-03
4.080816000939644709e+03 3.965216955050890890e-01 4.130706194771380062e-03
4.084896816940585722e+03 4.059439347373961504e-01 4.121696704545097824e-03
4.088981713757527814e+03 4.148920189789401247e-01 5.740368326082366870e-03
4.093070695471286854e+03 4.257741408982522735e-01 7.951396920285796685e-03
4.097163766166759160e+03 4.280095919847995423e-01 7.837829894265208042e-03
4.101260929932927866e+03 4.298308559558682296e-01 7.006588861135033298e-03
4.105362190862862008e+03 4.177708033006319877e-01 6.738577148095541841e-03
4.109467553053726078e+03 4.028635411908060293e-01 7.156917612405465368e-03
4.113577020606780934e+03 3.794965679150812954e-01 8.965215217731406158e-03
4.117690597627389252e+03 3.509846263022212698e-01 1.244302589884659256e-02
4.121808288225018259e+03 3.214546888418369219e-01 1.431658665899715986e-02
4.125930096513244280e+03 3.036465124327283327e-01 1.424500516147133612e-02
4.130056026609759101e+03 2.790508469033213812e-01 1.257566379939368054e-02
4.134186082636369974e+03 2.632457139550660186e-01 9.367765840532348703e-03
4.138320268719007800e+03 2.544849561750182065e-01 8.957414761182946883e-03
4.142458588987728035e+03 2.636927732701556670e-01 1.269033870372041420e-02
4.146601047576717065e+03 2.750680817822601654e-01 1.401473053589424519e-02
4.150747648624294925e+03 2.893309252068030357e-01 1.361102235187207875e-02
4.154898396272920763e+03 3.118352302652935282e-01 1.110737962322982074e-02
4.159053294669195566e+03 3.272546375842483868e-01 6.189140116749612675e-03
4.163212347963865795e+03 3.299976609720974285e-01 6.262892070682075582e-03
4.167375560311830668e+03 3.270266252472782686e-01 6.239671067224008064e-03
4.171542935872143971e+03 3.112639339229817392e-01 7.525009515244931828e-03
4.175714478808017702e+03 2.883872967019127653e-01 6.631225333015603948e-03
4.179890193286827525e+03 2.662363078347907419e-01 4.778475482977655175e-03
4.184070083480115500e+03 2.429362693444105381e-01 3.456220561417230278e-03
4.188254153563597356e+03 2.260162522739809221e-01 4.741501703161984764e-03
4.192442407717161586e+03 2.125020181213313486e-01 3.685937455866285933e-03
4.196634850124880359e+03 2.104774442048167327e-01 3.502154621921018101e-03
4.200831484975006788e+03 2.185163577660960144e-01 4.553086028797584568e-03
4.205032316459983122e+03 2.366336518613279816e-01 7.047975186592106943e-03
4.209237348776444378e+03 2.581142208715286879e-01 9.427662388674188168e-03
4.213446586125221984e+03 2.776892206064806023e-01 9.416271274266833566e-03
4.217660032711349231e+03 3.008407785350484809e-01 8.959338623067287719e-03
4.221877692744061278e+03 3.170892148550631395e-01 6.439735251215788873e-03
4.226099570436806971e+03 3.180927292853332200e-01 6.395705721141518689e-03
4.230325670007245208e+03 3.148386157540327135e-01 6.625623530912543718e-03
4.234555995677254032e+03 2.999025126149195142e-01 7.681788326997440568e-03
4.238790551672932452e+03 2.723364742073877132e-01 8.817026460883444633e-03
4.243029342224606808e+03 2.460503997241506036e-01 8.814477311766733339e-03
4.247272371566832589e+03 2.114741601335395349e-01 6.520366425874902713e-03
4.251519643938400804e+03 1.817081583930875710e-01 3.383781159108973594e-03
4.255771163582340705e+03 1.594423656537221345e-01 2.802560768212604154e-03
4.260026934745924336e+03 1.449487728649178631e-01 2.871618142045161918e-03
4.264286961680671993e+03 1.401206267197512845e-01 3.726157008642638595e-03
4.268551248642354039e+03 1.388531404808741321e-01 3.440445670734158627e-03
4.272819799890998183e+03 1.441472824666260033e-01 4.751324458494946348e-03
4.277092619690890388e+03 1.503039714900844537e-01 4.997748160705027184e-03
4.281369712310583054e+03 1.598931546138345483e-01 3.882431613958132587e-03
4.285651082022895025e+03 1.683188257937194843e-01 4.559294012442248814e-03
4.289936733104918858e+03 1.804551253767389951e-01 4.940109365195689481e-03
4.294226669838025373e+03 1.894927137585627752e-01 6.377883987770317786e-03
4.298520896507864563e+03 2.049237022496201710e-01 6.109007866016997329e-03
4.302819417404373780e+03 2.223641635844625375e-01 5.793454445138485065e-03
4.307122236821779552e+03 2.432915798021783038e-01 7.393363873016027543e-03
4.311429359058603040e+03 2.619247200449351110e-01 7.899587682414487347e-03
4.315740788417662770e+03 2.812499222607338090e-01 8.973063136095683207e-03
4.320056529206081905e+03 2.981235308160691266e-01 9.066486317068083930e-03
4.324376585735290064e+03 3.089831876144066292e-01 6.464230559997884498e-03
4.328700962321026054e+03 3.087917256875900573e-01 7.281919642481657698e-03
4.333029663283348782e+03 3.053634942017003917e-01 7.852435117631725164e-03
4.337362692946633615e+03 2.925014121082482599e-01 9.044475014384399658e-03
4.341700055639581478e+03 2.729974825646471759e-01 8.368978070095676666e-03
4.346041755695222491e+03 2.546460536557353938e-01 5.673632485057843351e-03
4.350387797450919606e+03 2.404768025565688638e-01 3.567931224435323505e-03
4.354738185248371337e+03 2.335262676599938192e-01 3.564739125346807515e-03
4.359092923433621763e+03 2.312054945481991086e-01 3.300982508996084912e-03
4.363452016357056891e+03 2.385422989974390617e-01 3.413075157219425202e-03
4.367815468373414660e+03 2.538925054773287782e-01 2.656571191772436839e-03
4.372183283841789489e+03 2.744573895541151387e-01 4.316793829452698558e-03
4.376555467125633186e+03 2.919788107970416879e-01 4.302313478488586744e-03
4.380932022592760404e+03 3.139565128364989466e-01 5.157141781145570605e-03
4.385312954615354101e+03 3.324958506648557077e-01 5.056510806208534999e-03
4.389698267569970994e+03 3.458720608687982367e-01 4.568725820713398326e-03
4.394087965837542470e+03 3.541749441896071549e-01 4.298814318583289718e-03
4.398482053803381859e+03 3.570906134498595952e-01 4.279502390412528827e-03
4.402880535857186260e+03 3.545273643924262696e-01 5.432924717104278302e-03
4.407283416393044718e+03 3.440384974785577477e-01 7.848388396720189231e-03
4.411690699809440048e+03 3.320411096166491771e-01 7.908086047041646555e-03
4.416102390509250654e+03 3.241698394404960437e-01 5.450945214369381196e-03
4.420518492899761441e+03 3.240836039737248764e-01 5.427915126612405626e-03
4.424939011392662906e+03 3.270720731536850834e-01 6.446696000010935720e-03
4.429363950404056595e+03 3.384058807987858630e-01 9.061904204085978118e-03
4.433793314354462382e+03 3.504853812415463787e-01 8.281236884887303168e-03
4.438227107668818462e+03 3.564289891330950644e-01 7.931531585229146739e-03
4.442665334776488635e+03 3.627823006408725792e-01 6.998054004485703555e-03
4.447108000111265937e+03 3.649333297261176390e-01 5.751063732491526470e-03
4.451555108111379013e+03 3.580584355049690193e-01 6.303699213479559832e-03
4.456006663219492111e+03 3.446307124188998094e-01 7.358142798815334000e-03
4.460462669882713271e+03 3.294062155535937286e-01 7.494433370898724925e-03
4.464923132552597053e+03 3.094268561472394707e-01 6.809482080744715983e-03
4.469388055685150903e+03 2.888048615746679482e-01 5.142865589391224998e-03
4.473857443740837880e+03 2.707622057135910532e-01 4.204653338426032026e-03
4.478331301184580298e+03 2.584730306510610864e-01 4.333231649162643667e-03
4.482809632485766087e+03 2.493183863389488997e-01 3.015220305852954388e-03
4.487292442118253348e+03 2.412460865774338492e-01 3.027970379492588016e-03
4.491779734560373072e+03 2.357116316212839180e-01 2.621241930735729656e-03
4.496271514294934605e+03 2.303009057405999149e-01 2.619585810447944661e-03
4.500767785809231100e+03 2.245276469951616449e-01 2.722918241360450676e-03
4.505268553595042249e+03 2.256001161560706736e-01 3.896948804015492110e-03
4.509773822148638828e+03 2.249464465241096112e-01 3.613751680632061244e-03
4.514283595970789065e+03 2.278657880018203630e-01 3.427200182495007859e-03
4.518797879566761367e+03 2.304996352581215047e-01 3.671494703542200599e-03
4.523316677446328868e+03 2.352426517185405852e-01 4.072332317272182173e-03
4.527839994123776705e+03 2.419602866910195993e-01 6.717163652604183320e-03
4.532367834117902021e+03 2.556530218422287115e-01 9.300974700802563597e-03
4.536900201952022144e+03 2.768885230651797480e-01 9.715054271648888157e-03
4.541437102153975502e+03 3.127139008217522109e-01 8.663222945963758651e-03
4.545978539256130716e+03 3.551718331066934797e-01 8.451458219490341067e-03
4.550524517795388419e+03 4.127515428791113661e-01 1.267046794901841369e-02
4.555075042313184895e+03 4.802866146349877297e-01 1.727150560194778278e-02
4.559630117355500261e+03 5.365879246507069267e-01 1.983597967134285642e-02
4.564189747472856652e+03 5.849021254646248336e-01 1.684789213882745273e-02
4.568753937220330954e+03 6.145806515908455170e-01 1.609229094623952985e-02
4.573322691157552981e+03 6.384495627693315134e-01 1.608416064669531895e-02
4.577896013848711846e+03 6.344557682901059703e-01 2.098286403596332297e-02
4.582473909862562323e+03 6.275711886447291610e-01 2.290350337789560237e-02
4.587056383772426670e+03 6.100761420475834251e-01 1.987870920603122121e-02
4.591643440156200086e+03 5.989776545009355413e-01 1.639073560281213357e-02
4.596235083596357981e+03 5.956967870822388322e-01 1.582538435237237223e-02
4.600831318679955984e+03 5.961319890152089185e-01 1.706470936219898690e-02
4.605432149998637215e+03 6.154455007078668549e-01 1.725208252472694437e-02
4.610037582148637739e+03 6.261146733274536302e-01 1.631483837735691125e-02
4.614647619730787483e+03 6.460939176556119712e-01 1.230862392044781116e-02
4.619262267350520233e+03 6.603371843771898009e-01 1.244079775146998690e-02
4.623881529617872729e+03 6.700782106930951443e-01 1.318276719693644780e-02
4.628505411147491941e+03 6.775868899048955729e-01 1.188715484183396238e-02
4.633133916558640522e+03 6.819188319482714089e-01 8.643020086401926802e-03
4.637767050475200449e+03 6.965463344280514724e-01 9.297133237240053083e-03
4.642404817525677572e+03 7.066981947353576654e-01 9.429063297764951265e-03
4.647047222343205249e+03 7.237125413510608896e-01 9.113848885994823429e-03
4.651694269565549803e+03 7.399598961125481988e-01 8.189742945823029127e-03
4.656345963835116891e+03 7.525266694857426497e-01 5.977891072575132470e-03
4.661002309798953320e+03 7.566333496011414805e-01 5.425801166814829372e-03
4.665663312108753416e+03 7.553597846540349714e-01 5.419479833052809510e-03
4.670328975420864481e+03 7.454587868267558148e-01 6.267865190745678869e-03
4.674999304396286789e+03 7.273538847239270355e-01 7.309306421300907144e-03
4.679674303700684504e+03 7.093766322042169836e-01 5.957141176071493321e-03
4.684353978004386590e+03 6.985453214793749810e-01 4.874083146964500006e-03
4.689038331982392265e+03 6.954912101387723533e-01 5.685335965117536798e-03
4.693727370314376458e+03 6.967056409696615882e-01 6.609780059417383336e-03
4.698421097684692540e+03 6.977956260814991429e-01 6.984168226973353107e-03
4.703119518782378691e+03 7.035342536395944313e-01 7.507999965519124297e-03
4.707822638301162442e+03 7.083984400498990475e-01 8.608179951869110100e-03
4.712530460939465229e+03 7.101758141799378032e-01 7.551091057390385206e-03
4.717242991400406027e+03 7.027444258766567531e-01 7.045462126601968224e-03
4.721960234391808626e+03 6.889801912520310267e-01 7.866008540166195481e-03
4.726682194626201635e+03 6.697030005130678587e-01 8.308306621619547180e-03
4.731408876820829391e+03 6.465575565567922567e-01 8.199300508500836568e-03
4.736140285697651962e+03 6.160710758051248792e-01 7.066279042993816803e-03
4.740876425983350600e+03 5.873692493987729968e-01 4.931043684417574235e-03
