# starting wavelength: 3786.940
# ending wavelength: 9203.260
# wav flux eflux
3.789878437345040766e+03 3.216930716416960823e-01 1.349131684280957255e-01
3.793668315782387253e+03 3.134251616383340044e-01 1.018739313548490122e-01
3.797461984098170888e+03 3.362882529199749393e-01 8.320358991661902515e-02
3.801259446082270188e+03 3.704329643764649460e-01 6.674738688453350777e-02
3.805060705528353537e+03 4.041265481136711579e-01 5.233681254157253326e-02
3.808865766233883278e+03 4.373012697751415545e-01 4.266826107851837829e-02
3.812674632000118436e+03 4.638805996739436832e-01 3.783223365578314984e-02
3.816487306632119726e+03 4.781487059805479278e-01 3.301663998633738023e-02
3.820303793938753188e+03 4.806231603295334498e-01 2.976150747041507796e-02
3.824124097732693372e+03 4.737968887020008180e-01 2.634599595509349093e-02
3.827948221830427428e+03 4.584015198904666244e-01 2.381005942775679673e-02
3.831776170052258749e+03 4.257449058174760381e-01 2.423614245924798558e-02
3.835607946222312421e+03 3.970601677126315288e-01 2.258504167445216787e-02
3.839443554168536139e+03 3.671886290909529560e-01 2.116862728844543656e-02
3.843282997722705659e+03 3.370685950576639556e-01 2.004701047161032076e-02
3.847126280720429804e+03 3.058620204821925759e-01 1.923968761811133479e-02
3.850973407001151372e+03 2.705021101180023479e-01 1.874223316196153150e-02
3.854824380408153957e+03 2.434483103369549650e-01 1.819534579409482974e-02
3.858679204788563311e+03 2.186461692900014131e-01 1.779224868861418660e-02
3.862537883993353262e+03 1.809970762144448575e-01 1.465412417580829602e-02
3.866400421877347981e+03 1.562917228519847268e-01 1.436091924948216733e-02
3.870266822299226533e+03 1.416572361134815772e-01 1.478938644271968715e-02
3.874137089121526969e+03 1.240485634331119913e-01 1.515362092545852538e-02
3.878011226210649966e+03 1.216569243937090095e-01 1.456331312572936923e-02
3.881889237436861549e+03 1.214590899776705479e-01 1.392997507197856269e-02
3.885771126674299921e+03 1.286996128729123723e-01 1.319988735169245683e-02
3.889656897800975457e+03 1.370374217690132623e-01 1.237990151460596419e-02
3.893546554698777527e+03 1.483777391112292565e-01 1.291090841666244979e-02
3.897440101253477678e+03 1.620406311580591396e-01 1.413912873325426194e-02
3.901337541354732366e+03 1.880533114986999432e-01 1.395487595557828864e-02
3.905238878896088409e+03 2.125725801230279599e-01 1.334108535765413973e-02
3.909144117774985716e+03 2.394867050209840420e-01 1.341402089189076483e-02
3.913053261892762293e+03 2.796594295652548023e-01 1.336950727624525159e-02
3.916966315154656058e+03 3.141736685927867256e-01 1.209472769902465022e-02
3.920883281469812118e+03 3.650328271307323180e-01 1.361309117130094989e-02
3.924804164751283224e+03 4.242724313244066181e-01 1.545478653508584009e-02
3.928728968916035683e+03 4.824465595743244739e-01 1.672911895034192090e-02
3.932657697884953450e+03 5.399838690266018926e-01 1.806802585304268308e-02
3.936590355582839493e+03 5.974516373013910586e-01 1.915678380326302568e-02
3.940526945938423523e+03 6.588855975618447269e-01 1.962796791315972803e-02
3.944467472884363360e+03 7.188836278272261460e-01 1.844580873312273717e-02
3.948411940357249023e+03 7.703957917584394188e-01 1.706550644524786747e-02
3.952360352297607733e+03 8.126526850252582257e-01 1.609483074578475087e-02
3.956312712649906643e+03 8.465293603814596501e-01 1.593406710854414904e-02
3.960269025362557841e+03 8.716953803018103741e-01 1.688952101074539178e-02
3.964229294387921527e+03 8.899654451975116398e-01 1.742551597567422797e-02
3.968193523682310570e+03 8.955905705979867459e-01 1.872905956364258329e-02
3.972161717205994591e+03 9.002365460711299061e-01 1.918400588778543941e-02
3.976133878923201792e+03 8.994900722519535430e-01 1.863344809605604890e-02
3.980110012802126221e+03 8.894030958620627869e-01 1.788558759862976175e-02
3.984090122814929600e+03 8.766719102278559550e-01 1.729468812408414824e-02
3.988074212937745870e+03 8.580205712902893023e-01 1.700847154887960566e-02
3.992062287150684824e+03 8.330707016327782988e-01 1.686652267395447741e-02
3.996054349437837118e+03 8.075402247528717936e-01 1.722782742283333543e-02
4.000050403787276082e+03 7.861383767192249294e-01 1.751336775425347062e-02
4.004050454191064546e+03 7.683227874432559945e-01 1.746667632412758631e-02
4.008054504645257111e+03 7.559623414980229938e-01 1.697767657663633994e-02
4.012062559149903791e+03 7.464031651340181650e-01 1.705217941798245485e-02
4.016074621709055009e+03 7.384869317237965358e-01 1.697118216064204960e-02
4.020090696330765240e+03 7.332947658957145176e-01 1.702629621140626034e-02
4.024110787027097558e+03 7.237408218869684218e-01 1.759062976908970510e-02
4.028134897814125907e+03 7.097366536680818072e-01 1.850625728744233200e-02
4.032163032711941469e+03 7.049357407480996152e-01 1.868877770144083614e-02
4.036195195744654484e+03 7.070632154851806961e-01 1.737796170916071012e-02
4.040231390940400615e+03 7.152009904276518393e-01 1.724551079645874480e-02
4.044271622331342314e+03 7.330311482288729419e-01 1.660261246240502669e-02
4.048315893953675186e+03 7.579274318043831560e-01 1.637322282254937908e-02
4.052364209847629809e+03 7.852410312985499408e-01 1.659263738283394546e-02
4.056416574057479011e+03 8.254556742204161024e-01 1.683006925924110386e-02
4.060472990631537868e+03 8.752922457874265927e-01 1.667740215732486930e-02
4.064533463622170530e+03 9.232086094742870674e-01 1.599310465994182098e-02
4.068597997085794304e+03 9.708636288811587356e-01 1.527821768900685349e-02
4.072666595082881486e+03 1.015076621403780965e+00 1.566652765399186714e-02
4.076739261677965715e+03 1.055455916486931489e+00 1.594905863101386823e-02
4.080816000939644709e+03 1.083861676017879416e+00 1.650832065389402567e-02
4.084896816940585722e+03 1.099597455814026681e+00 1.659935061214111787e-02
4.088981713757527814e+03 1.110149075565980858e+00 1.749994879281369098e-02
4.093070695471286854e+03 1.110466706595873987e+00 1.660219629004637890e-02
4.097163766166759160e+03 1.103829014810301157e+00 1.524870744411791455e-02
4.101260929932927866e+03 1.080757714526765056e+00 1.478229357871258497e-02
4.105362190862862008e+03 1.030387195637713527e+00 2.336343450917859055e-02
4.109467553053726078e+03 9.750173824298135061e-01 2.568276244772759245e-02
4.113577020606780934e+03 9.238688882036774075e-01 2.558649163949640662e-02
4.117690597627389252e+03 8.677457944050128713e-01 2.376441158030008494e-02
4.121808288225018259e+03 8.296489451727648845e-01 2.169920736011318393e-02
4.125930096513244280e+03 8.023879189185995076e-01 2.237789321620642369e-02
4.130056026609759101e+03 7.860842380388727291e-01 2.337923783940580938e-02
4.134186082636369974e+03 7.806984397842450241e-01 2.513855939561234973e-02
4.138320268719007800e+03 7.719716112079781922e-01 2.567875148115997957e-02
4.142458588987728035e+03 7.710444225547872232e-01 2.751550586670091850e-02
4.146601047576717065e+03 7.838793977189055795e-01 2.804183901685819436e-02
4.150747648624294925e+03 7.980371401815475885e-01 2.580601836224525117e-02
4.154898396272920763e+03 8.088284486551823305e-01 2.175541875763239638e-02
4.159053294669195566e+03 8.055088676311176199e-01 2.058658422129192381e-02
4.163212347963865795e+03 7.868982397167163523e-01 2.150001231869710580e-02
4.167375560311830668e+03 7.615306813141727860e-01 2.303217677732839405e-02
4.171542935872143971e+03 7.264418548435928047e-01 2.524229654435434372e-02
4.175714478808017702e+03 6.830206996669372366e-01 2.552408049910364490e-02
4.179890193286827525e+03 6.220588423298322178e-01 2.166470297305259779e-02
4.184070083480115500e+03 5.913130352742437257e-01 1.992582295449623828e-02
4.188254153563597356e+03 5.581875360984235313e-01 1.246800498154039885e-02
4.192442407717161586e+03 5.647311229459591742e-01 1.477400021898164946e-02
4.196634850124880359e+03 5.859045817818391289e-01 1.759230015114890411e-02
4.200831484975006788e+03 6.281149265592369524e-01 1.809635912860830739e-02
4.205032316459983122e+03 6.722548410471509417e-01 1.828316975157961294e-02
4.209237348776444378e+03 7.198270132033210977e-01 1.924316869358091292e-02
4.213446586125221984e+03 7.474416739485570949e-01 1.897860763696076342e-02
4.217660032711349231e+03 7.762872552299799889e-01 1.702493349014007687e-02
4.221877692744061278e+03 7.813950436867279636e-01 1.576692011884321329e-02
4.226099570436806971e+03 7.801653741744783987e-01 1.447591364016651005e-02
4.230325670007245208e+03 7.578218610175592174e-01 1.483276731253416018e-02
4.234555995677254032e+03 7.038168062477780929e-01 1.888949488989048048e-02
4.238790551672932452e+03 6.478512899977463269e-01 1.793167641480509361e-02
4.243029342224606808e+03 5.792982743518663158e-01 1.669475601913449417e-02
4.247272371566832589e+03 5.190528307772761529e-01 1.452979796115954486e-02
4.251519643938400804e+03 4.610932854740836806e-01 1.043044056512469793e-02
4.255771163582340705e+03 4.202233686837262283e-01 9.469644083625414904e-03
4.260026934745924336e+03 3.999525013672500795e-01 1.156296510298471768e-02
4.264286961680671993e+03 3.906389135491369902e-01 1.221926697747255722e-02
4.268551248642354039e+03 3.959050500203247225e-01 9.831469475765937729e-03
4.272819799890998183e+03 4.024996256077745249e-01 8.998050654440089419e-03
4.277092619690890388e+03 4.131610459813558345e-01 1.134877446564335618e-02
4.281369712310583054e+03 4.237588320892677896e-01 1.393838705770552092e-02
4.285651082022895025e+03 4.431552064008019154e-01 1.449210180378079915e-02
4.289936733104918858e+03 4.750623902499297446e-01 1.408631601524829025e-02
4.294226669838025373e+03 5.139695410247380192e-01 1.430093757298553370e-02
4.298520896507864563e+03 5.611323512810051373e-01 1.470787760922045301e-02
4.302819417404373780e+03 6.145337295992567839e-01 1.706568461055398694e-02
4.307122236821779552e+03 6.625878282885265813e-01 1.817402510167729496e-02
4.311429359058603040e+03 7.157083904598848800e-01 2.016318419366177131e-02
4.315740788417662770e+03 7.509393117368847737e-01 1.845403564581501663e-02
4.320056529206081905e+03 7.796485408820263974e-01 1.425650431580429561e-02
4.324376585735290064e+03 7.770315263128509953e-01 1.454737944706731116e-02
4.328700962321026054e+03 7.456648406813539687e-01 2.036673836762072434e-02
4.333029663283348782e+03 7.077757743631355458e-01 2.065590038717943916e-02
4.337362692946633615e+03 6.566115930282729884e-01 1.884408168814458509e-02
4.341700055639581478e+03 6.152451782586340068e-01 1.579553469937452354e-02
4.346041755695222491e+03 5.774216536292311464e-01 1.416169255174015706e-02
4.350387797450919606e+03 5.602084864609464532e-01 1.307595871068685696e-02
4.354738185248371337e+03 5.575521294843510667e-01 1.278283881895271763e-02
4.359092923433621763e+03 5.866803367064570285e-01 1.185415027994093928e-02
4.363452016357056891e+03 6.251892922644181061e-01 9.792217229500388073e-03
4.367815468373414660e+03 6.741901778859721306e-01 1.317783625527839918e-02
4.372183283841789489e+03 7.176999292528913887e-01 1.164119211831511104e-02
4.376555467125633186e+03 7.605904677276038583e-01 1.057073977956433583e-02
4.380932022592760404e+03 7.919244661453598289e-01 9.801234322140719296e-03
4.385312954615354101e+03 8.047302262006417184e-01 1.033798517534732266e-02
4.389698267569970994e+03 8.070078754590941372e-01 1.055924736226450215e-02
4.394087965837542470e+03 7.997041106986259029e-01 1.071059460881167158e-02
4.398482053803381859e+03 7.755494451798473632e-01 1.434760809168781313e-02
4.402880535857186260e+03 7.550866444816678458e-01 1.631353014903507564e-02
4.407283416393044718e+03 7.367011000748150407e-01 1.544297054376942736e-02
4.411690699809440048e+03 7.314990375041723336e-01 1.290049054154892259e-02
4.416102390509250654e+03 7.406791147117401941e-01 1.370543441657671134e-02
4.420518492899761441e+03 7.625399509753061356e-01 1.637854904021030650e-02
4.424939011392662906e+03 7.927852467730382990e-01 1.594198073822467032e-02
4.429363950404056595e+03 8.248487064616121245e-01 1.472693821711858198e-02
4.433793314354462382e+03 8.491309587655025970e-01 1.292427710685039796e-02
4.438227107668818462e+03 8.659802492172689048e-01 1.161963719754488707e-02
4.442665334776488635e+03 8.633434758823670396e-01 1.145384089804270256e-02
4.447108000111265937e+03 8.463036540643308347e-01 1.239119045825761746e-02
4.451555108111379013e+03 8.219253713531553540e-01 1.321833209767932747e-02
4.456006663219492111e+03 7.775237553209577435e-01 1.092020452570510031e-02
4.460462669882713271e+03 7.347819403507157565e-01 9.867485233226612126e-03
4.464923132552597053e+03 6.954131653932250634e-01 9.043153573071864224e-03
4.469388055685150903e+03 6.530677003278096970e-01 8.699061478528526820e-03
4.473857443740837880e+03 6.244565126105543484e-01 8.207919895014320621e-03
4.478331301184580298e+03 6.005772657119917701e-01 5.365634281304216234e-03
4.482809632485766087e+03 5.722532860014891698e-01 5.533291470687811721e-03
4.487292442118253348e+03 5.458822826450998589e-01 5.631920295511804592e-03
4.491779734560373072e+03 5.235807247267136866e-01 5.688464026984145668e-03
4.496271514294934605e+03 5.048400497379527119e-01 5.909135436483182319e-03
4.500767785809231100e+03 4.891024732844395095e-01 6.131340619599758533e-03
4.505268553595042249e+03 4.853995187743966322e-01 6.283826890364711815e-03
4.509773822148638828e+03 4.886343802179400342e-01 6.345113422909903593e-03
4.514283595970789065e+03 4.957232546450276445e-01 6.537212140934629129e-03
4.518797879566761367e+03 5.148738772072971592e-01 6.785679170252172793e-03
4.523316677446328868e+03 5.378447775860524249e-01 9.100608693056250892e-03
4.527839994123776705e+03 5.628045268257908518e-01 1.506820858588493219e-02
4.532367834117902021e+03 6.166980452479187136e-01 1.608106607769398122e-02
4.536900201952022144e+03 6.847859150777870774e-01 1.482847088578608669e-02
4.541437102153975502e+03 7.856395575911123696e-01 1.664097142034606444e-02
4.545978539256130716e+03 9.058396895414143613e-01 2.396577796255371443e-02
4.550524517795388419e+03 1.022627767188020176e+00 2.688236448940086940e-02
4.555075042313184895e+03 1.147547406765034861e+00 2.853143915320353538e-02
4.559630117355500261e+03 1.234368362234044447e+00 2.660465219909268972e-02
4.564189747472856652e+03 1.296881175541521714e+00 2.556191274713445066e-02
4.568753937220330954e+03 1.323709449624870249e+00 2.780826060984462403e-02
4.573322691157552981e+03 1.342301726183305011e+00 3.018958150264422838e-02
4.577896013848711846e+03 1.329274054739540523e+00 3.198220129410407619e-02
4.582473909862562323e+03 1.301813797916280491e+00 2.883568542714621055e-02
4.587056383772426670e+03 1.288724531618591795e+00 2.532451714974117904e-02
4.591643440156200086e+03 1.262165356308380337e+00 2.334524438533192373e-02
4.596235083596357981e+03 1.258088785544521082e+00 2.364569714671233003e-02
4.600831318679955984e+03 1.265170902533787167e+00 2.377048077809470680e-02
4.605432149998637215e+03 1.284559178417828518e+00 1.919548611854228135e-02
4.610037582148637739e+03 1.313396343977432545e+00 1.507649387832704808e-02
4.614647619730787483e+03 1.324753847099318538e+00 1.574205355815428906e-02
4.619262267350520233e+03 1.334898666116327792e+00 1.658909354177965506e-02
4.623881529617872729e+03 1.343565742539564178e+00 1.500205929238459385e-02
4.628505411147491941e+03 1.352886660720631573e+00 1.344971772216857833e-02
4.633133916558640522e+03 1.371870009442992533e+00 1.429601500731311758e-02
4.637767050475200449e+03 1.391977573509646238e+00 1.422131671777466730e-02
4.642404817525677572e+03 1.412853838841041432e+00 1.339579281981207078e-02
4.647047222343205249e+03 1.434856274895403905e+00 1.217025550530764777e-02
4.651694269565549803e+03 1.446378804858698297e+00 1.192751271523800546e-02
4.656345963835116891e+03 1.455044922933690588e+00 1.137047081291600419e-02
4.661002309798953320e+03 1.446207371783553075e+00 1.206704771554488465e-02
4.665663312108753416e+03 1.421372684727375546e+00 1.206486431290104688e-02
4.670328975420864481e+03 1.392885668825120549e+00 1.079154271511451567e-02
4.674999304396286789e+03 1.377121375405606640e+00 1.039950549733599169e-02
4.679674303700684504e+03 1.359852072862137939e+00 1.050641840443774545e-02
4.684353978004386590e+03 1.347033368890798277e+00 1.173522401439381323e-02
4.689038331982392265e+03 1.332148101918925409e+00 1.170057854603338832e-02
4.693727370314376458e+03 1.314495515696648242e+00 1.108538559307514250e-02
4.698421097684692540e+03 1.293847012846037314e+00 1.051497543243913417e-02
4.703119518782378691e+03 1.261068867591581100e+00 1.088757769186363134e-02
4.707822638301162442e+03 1.219290755023845430e+00 1.157556359086074280e-02
4.712530460939465229e+03 1.177785027393351225e+00 1.252320547472633890e-02
4.717242991400406027e+03 1.143896100351538658e+00 1.331318278245133616e-02
4.721960234391808626e+03 1.116529150456604391e+00 1.288638842580878269e-02
4.726682194626201635e+03 1.083524259157366831e+00 1.133273098164780043e-02
4.731408876820829391e+03 1.064138603172385844e+00 1.161684690836086754e-02
4.736140285697651962e+03 1.047634155542743750e+00 1.267047205901331193e-02
4.740876425983350600e+03 1.040148603177935449e+00 1.258774745096884196e-02
4.745617302409335934e+03 1.029964157076333819e+00 1.004093201557825291e-02
4.750362919711747054e+03 1.016466839657567345e+00 8.208126552036542831e-03
4.755113282631459697e+03 9.926427187320495671e-01 7.764784743055540978e-03
4.759868395914093526e+03 9.568886915245716773e-01 7.912265848048700631e-03
4.764628264310008490e+03 9.154390938316894211e-01 7.657679158515903230e-03
4.769392892574320285e+03 8.663196575476816985e-01 8.247212683992465390e-03
4.774162285466896719e+03 8.120612074623393406e-01 8.869398425916372175e-03
4.778936447752364984e+03 7.426078681912697821e-01 9.146568482037605030e-03
4.783715384200118933e+03 6.768943871755283004e-01 1.255151714722670814e-02
4.788499099584319993e+03 6.146329366991742926e-01 1.761059062431406461e-02
4.793287598683906253e+03 5.732818313930087006e-01 1.858273747508454310e-02
4.798080886282591564e+03 5.591025224194128285e-01 1.831608852510917609e-02
4.802878967168876443e+03 5.699646463450500633e-01 1.459991612323660072e-02
4.807681846136046261e+03 6.214483214887933649e-01 1.329474933598473983e-02
4.812489527982183972e+03 7.094759688200014125e-01 1.304320618112776546e-02
4.817302017510168298e+03 8.339988365469320764e-01 1.660579368765617569e-02
4.822119319527679181e+03 9.950218538911432820e-01 2.353669917084985977e-02
4.826941438847208701e+03 1.174667182971515178e+00 2.503365658420026243e-02
4.831768380286057436e+03 1.322503713125969815e+00 2.324786927340038306e-02
4.836600148666345376e+03 1.457182496924353199e+00 1.809519099317838386e-02
4.841436748815013743e+03 1.532433644044024934e+00 1.470595529318053860e-02
4.846278185563829538e+03 1.555647695345032222e+00 1.433209628249633091e-02
4.851124463749395545e+03 1.506200121549164939e+00 2.486173483572210602e-02
4.855975588213146693e+03 1.434520119373187574e+00 2.927840623862114702e-02
4.860831563801360971e+03 1.324480820179195772e+00 3.237738812928756676e-02
4.865692395365163975e+03 1.239346155794919024e+00 3.230291096017298691e-02
4.870558087760530725e+03 1.151680785534470619e+00 2.651504139171910468e-02
4.875428645848292945e+03 1.104203260360237859e+00 1.950294570334807145e-02
4.880304074494142696e+03 1.103091715084945967e+00 1.959440447934738053e-02
4.885184378568638749e+03 1.159104586435701911e+00 2.581389399026873602e-02
4.890069562947209306e+03 1.244993736440744181e+00 2.666931683758906255e-02
4.894959632510157462e+03 1.360794817775739407e+00 2.107452644769136629e-02
4.899854592142669389e+03 1.482506711165330726e+00 1.486038872374184291e-02
4.904754446734813428e+03 1.585125994562246454e+00 1.311039179910413952e-02
4.909659201181550088e+03 1.680544072119540377e+00 1.087075059976524809e-02
4.914568860382732964e+03 1.740878239740626832e+00 1.053395807790354077e-02
4.919483429243117826e+03 1.769076764984929717e+00 1.137032393321015140e-02
4.924402912672362618e+03 1.761033286194868541e+00 1.195677870270332038e-02
4.929327315585036558e+03 1.717514706757827359e+00 1.243020932777167027e-02
4.934256642900622865e+03 1.640210216257576459e+00 1.153231338825273788e-02
