# starting wavelength: 4066.480
# ending wavelength: 10735.700
# wav flux eflux
4.068597997085794304e+03 2.181603581340607168e+00 3.589480877368741996e-01
4.072666595082881486e+03 1.787214504014090988e+00 2.633870259758782084e-01
4.076739261677965715e+03 1.527776080663791447e+00 1.979205833821328087e-01
4.080816000939644709e+03 1.364317924521519787e+00 1.519521055980610491e-01
4.084896816940585722e+03 1.269319286723447959e+00 1.195651448769819020e-01
4.088981713757527814e+03 1.219821156992588751e+00 9.655398178602724035e-02
4.093070695471286854e+03 1.198719987666177600e+00 8.091090230108598236e-02
4.097163766166759160e+03 1.189944385579452479e+00 6.785890412068704136e-02
4.101260929932927866e+03 1.189548476047673775e+00 5.811636716119301937e-02
4.105362190862862008e+03 1.193357311385635278e+00 5.054591517841919290e-02
4.109467553053726078e+03 1.198902362224700813e+00 4.475929016636893965e-02
4.113577020606780934e+03 1.201815505927479100e+00 4.071194065476781837e-02
4.117690597627389252e+03 1.200951509319812649e+00 3.788413228838892477e-02
4.121808288225018259e+03 1.198592394546874162e+00 3.564193721046835656e-02
4.125930096513244280e+03 1.193511818778648204e+00 3.397402913567351690e-02
4.130056026609759101e+03 1.184221983680530998e+00 3.290050500435332675e-02
4.134186082636369974e+03 1.168434721952942734e+00 3.206395291088372235e-02
4.138320268719007800e+03 1.157536688951891213e+00 3.126848460333536694e-02
4.142458588987728035e+03 1.145705759037672244e+00 3.062204365610985551e-02
4.146601047576717065e+03 1.094932401415454226e+00 1.358972326842168565e-02
4.150747648624294925e+03 1.068250132664257279e+00 1.118329893422904779e-02
4.154898396272920763e+03 1.055416598633919234e+00 1.047546622517016995e-02
4.159053294669195566e+03 1.040329117945925974e+00 1.026563726631801905e-02
4.163212347963865795e+03 1.016012613462198955e+00 8.110061652201331142e-03
4.167375560311830668e+03 9.929514847228240182e-01 5.431794262993078042e-03
4.171542935872143971e+03 9.779052531166934070e-01 4.892589192060640968e-03
4.175714478808017702e+03 9.726946238919065291e-01 4.305755663678658557e-03
4.179890193286827525e+03 9.702591597155776348e-01 4.107615033013067331e-03
4.184070083480115500e+03 9.700473798150337501e-01 4.209425389701552424e-03
4.188254153563597356e+03 9.743316123532330675e-01 4.233040340140164712e-03
4.192442407717161586e+03 9.842425683240199064e-01 4.134604921234170602e-03
4.196634850124880359e+03 9.968764311094940878e-01 4.160566679324488246e-03
4.200831484975006788e+03 1.014879199503729845e+00 4.163375600407043936e-03
4.205032316459983122e+03 1.033575646984040697e+00 4.108439077498729844e-03
4.209237348776444378e+03 1.053340566264357570e+00 3.988333172009711318e-03
4.213446586125221984e+03 1.077245265814610331e+00 4.067206430212614091e-03
4.217660032711349231e+03 1.103711729223906479e+00 4.236105497112957127e-03
4.221877692744061278e+03 1.133815673619252617e+00 4.295002651903661282e-03
4.226099570436806971e+03 1.165291962815532489e+00 4.234919593838974705e-03
4.230325670007245208e+03 1.199644846973560552e+00 4.246389172658522615e-03
4.234555995677254032e+03 1.232689683914351075e+00 3.998031354759732856e-03
4.238790551672932452e+03 1.263690250547383709e+00 3.943903777443824067e-03
4.243029342224606808e+03 1.294292629700017017e+00 3.832955541233782053e-03
4.247272371566832589e+03 1.324422552025716238e+00 3.588191630900514247e-03
4.251519643938400804e+03 1.350664114782154090e+00 3.491811556501684191e-03
4.255771163582340705e+03 1.374655282716949145e+00 3.528012403628834424e-03
4.260026934745924336e+03 1.394423956569951883e+00 3.962703244832711108e-03
4.264286961680671993e+03 1.410942368295798000e+00 4.223917448476801478e-03
4.268551248642354039e+03 1.425178202435961605e+00 4.440567277041114307e-03
4.272819799890998183e+03 1.437909163595329831e+00 4.223474032280505157e-03
4.277092619690890388e+03 1.446768214439823730e+00 2.779920806373060733e-03
4.281369712310583054e+03 1.458103394253998264e+00 2.384736143228990447e-03
4.285651082022895025e+03 1.470259825875987802e+00 2.514872112489135655e-03
4.289936733104918858e+03 1.482633616155095702e+00 3.140442145154184045e-03
4.294226669838025373e+03 1.493645804259292831e+00 3.602530217240757122e-03
4.298520896507864563e+03 1.503004660002185133e+00 4.018289057697695989e-03
4.302819417404373780e+03 1.511358488449271231e+00 4.218744836274579066e-03
4.307122236821779552e+03 1.516060037597517285e+00 4.441756875174673880e-03
4.311429359058603040e+03 1.517276227304408032e+00 4.353301816985053786e-03
4.315740788417662770e+03 1.512301943947625293e+00 4.195873212597851787e-03
4.320056529206081905e+03 1.503766977594260812e+00 3.985245942178956488e-03
4.324376585735290064e+03 1.487949049127353707e+00 4.302381981956752109e-03
4.328700962321026054e+03 1.470376863097866860e+00 4.403668411533269607e-03
4.333029663283348782e+03 1.450350199467995260e+00 4.504991434037621673e-03
4.337362692946633615e+03 1.426450775003298421e+00 4.673268001459324368e-03
4.341700055639581478e+03 1.398398945686833761e+00 4.943738501223306388e-03
4.346041755695222491e+03 1.367596096722327959e+00 4.858968707410149523e-03
4.350387797450919606e+03 1.334326957582617323e+00 4.452309552104558900e-03
4.354738185248371337e+03 1.301565848129241809e+00 4.081888186510836819e-03
4.359092923433621763e+03 1.268712906657627704e+00 3.759430909087230210e-03
4.363452016357056891e+03 1.234893967720154695e+00 3.332544648780699087e-03
4.367815468373414660e+03 1.205671382596974928e+00 3.351575316001212043e-03
4.372183283841789489e+03 1.175919375568644787e+00 3.321391976872358105e-03
4.376555467125633186e+03 1.150273196998867320e+00 3.319027653583736179e-03
4.380932022592760404e+03 1.130273281738631175e+00 3.078931003895380575e-03
4.385312954615354101e+03 1.113157118075173813e+00 2.923764483111555672e-03
4.389698267569970994e+03 1.099688070322518474e+00 2.875664416143729717e-03
4.394087965837542470e+03 1.088351551912581039e+00 2.860628543117986824e-03
4.398482053803381859e+03 1.079489323747239826e+00 2.973254917764768090e-03
4.402880535857186260e+03 1.074133717134760024e+00 2.960924410565365320e-03
4.407283416393044718e+03 1.073544702547903684e+00 2.989386125214986509e-03
4.411690699809440048e+03 1.074705277945506188e+00 2.964476287242796132e-03
4.416102390509250654e+03 1.078601635459863095e+00 2.886286383314673465e-03
4.420518492899761441e+03 1.086635239922949303e+00 2.953336628330944548e-03
4.424939011392662906e+03 1.098136504194743290e+00 2.977224103614867657e-03
4.429363950404056595e+03 1.115184148353048688e+00 3.052501843420513550e-03
4.433793314354462382e+03 1.136427189800851556e+00 3.046870519879487250e-03
4.438227107668818462e+03 1.162025581575709454e+00 2.719789415068778627e-03
4.442665334776488635e+03 1.189043629064620244e+00 2.673785735286664592e-03
4.447108000111265937e+03 1.218439556826199643e+00 2.745918512715395284e-03
4.451555108111379013e+03 1.248692463518272566e+00 2.775850281297620025e-03
4.456006663219492111e+03 1.281141881035518848e+00 3.008893992300273965e-03
4.460462669882713271e+03 1.314355551769337049e+00 3.020168117925542753e-03
4.464923132552597053e+03 1.345940985821367564e+00 3.010409188392737089e-03
4.469388055685150903e+03 1.376350653618501063e+00 3.049859278740520065e-03
4.473857443740837880e+03 1.407658967493766511e+00 3.110133812639471508e-03
4.478331301184580298e+03 1.439106600755520438e+00 3.028472356086545168e-03
4.482809632485766087e+03 1.471014086390116438e+00 2.954692170244058082e-03
4.487292442118253348e+03 1.501238054584895787e+00 2.932100625826834783e-03
4.491779734560373072e+03 1.529456117234629708e+00 2.954496999401800064e-03
4.496271514294934605e+03 1.552807513594953503e+00 3.040701811118371074e-03
4.500767785809231100e+03 1.573533337974398094e+00 2.887090192497172424e-03
4.505268553595042249e+03 1.594170940366893108e+00 2.912885671939034402e-03
4.509773822148638828e+03 1.613937516341730438e+00 2.870797490461320881e-03
4.514283595970789065e+03 1.632092334568528091e+00 2.811065207929030509e-03
4.518797879566761367e+03 1.648959950947173736e+00 2.627786263548971286e-03
4.523316677446328868e+03 1.666915335153426048e+00 2.834903088731357060e-03
4.527839994123776705e+03 1.683504296885295126e+00 2.531269173918116074e-03
4.532367834117902021e+03 1.699375456381396088e+00 2.426183489325336486e-03
4.536900201952022144e+03 1.711548507939575137e+00 2.548743065796600822e-03
4.541437102153975502e+03 1.719698389835988106e+00 2.595849458774836162e-03
4.545978539256130716e+03 1.725255022077959666e+00 2.546542234420133208e-03
4.550524517795388419e+03 1.729525408693754374e+00 2.486638293374465129e-03
4.555075042313184895e+03 1.729144929694529376e+00 2.469796114753277858e-03
4.559630117355500261e+03 1.724710302052438582e+00 2.566257134687490501e-03
4.564189747472856652e+03 1.719982424457601411e+00 2.600897101934081419e-03
4.568753937220330954e+03 1.712751424910346598e+00 2.625288359549703739e-03
4.573322691157552981e+03 1.704168642778406628e+00 2.663751453310939793e-03
4.577896013848711846e+03 1.691544205991742711e+00 2.627070314308487236e-03
4.582473909862562323e+03 1.676357581418606912e+00 2.457103483824339078e-03
4.587056383772426670e+03 1.660231178258638085e+00 1.883663969631332738e-03
4.591643440156200086e+03 1.645962960911192097e+00 1.870043134299647627e-03
4.596235083596357981e+03 1.631340874774316108e+00 1.867863481183585370e-03
4.600831318679955984e+03 1.617446218625627541e+00 1.813862297076470047e-03
4.605432149998637215e+03 1.602884795775402216e+00 2.028389361192949047e-03
4.610037582148637739e+03 1.585654887051325623e+00 2.250392249621137059e-03
4.614647619730787483e+03 1.566005539464375262e+00 2.536435935628239893e-03
4.619262267350520233e+03 1.543212946986008305e+00 2.572755929329468335e-03
4.623881529617872729e+03 1.513696839403340988e+00 2.482498240878800930e-03
4.628505411147491941e+03 1.480625056012535579e+00 2.319056162695208763e-03
4.633133916558640522e+03 1.441382468103482584e+00 2.134988697314620099e-03
4.637767050475200449e+03 1.394012549415516222e+00 2.456116080366028444e-03
4.642404817525677572e+03 1.344020133536165895e+00 2.837065186128179435e-03
4.647047222343205249e+03 1.288857135010720523e+00 2.840093305692515703e-03
4.651694269565549803e+03 1.232585925707583074e+00 2.686563917689951259e-03
4.656345963835116891e+03 1.175769355055070742e+00 2.758837161442050361e-03
4.661002309798953320e+03 1.122011119653565148e+00 2.643769168324628781e-03
4.665663312108753416e+03 1.071136003892782629e+00 2.068541521624394416e-03
4.670328975420864481e+03 1.027379417563163200e+00 2.246717721326058417e-03
4.674999304396286789e+03 9.896666729493348580e-01 2.238396929690222945e-03
4.679674303700684504e+03 9.592349272639988378e-01 2.200459336623541637e-03
4.684353978004386590e+03 9.364301549601974362e-01 2.191101572757613025e-03
4.689038331982392265e+03 9.205981103936073939e-01 2.479033582913411395e-03
4.693727370314376458e+03 9.137629087994234567e-01 3.037576726775850170e-03
4.698421097684692540e+03 9.163247882082015128e-01 3.118688642543367574e-03
4.703119518782378691e+03 9.303294375813531136e-01 3.179522168903833792e-03
4.707822638301162442e+03 9.566793428560096402e-01 2.795272823480310538e-03
4.712530460939465229e+03 9.968371003344169701e-01 2.910569522765978079e-03
4.717242991400406027e+03 1.048048499737094241e+00 3.462989367970083741e-03
4.721960234391808626e+03 1.107935876330582436e+00 4.293539362279445888e-03
4.726682194626201635e+03 1.177396759988454722e+00 4.199520672300276203e-03
4.731408876820829391e+03 1.244692054075221987e+00 3.902798698624104171e-03
4.736140285697651962e+03 1.310754456305633253e+00 3.468011517379512507e-03
4.740876425983350600e+03 1.371854800493478965e+00 2.831577595822331195e-03
4.745617302409335934e+03 1.424439957622443576e+00 1.746813791034378463e-03
4.750362919711747054e+03 1.462964842239271146e+00 2.543676299185562532e-03
4.755113282631459697e+03 1.488793483678005902e+00 3.572727558140922736e-03
4.759868395914093526e+03 1.510915965466712363e+00 3.809958715319822914e-03
4.764628264310008490e+03 1.526768607140518652e+00 3.204998336759195317e-03
4.769392892574320285e+03 1.540221551534635136e+00 2.630557545875708732e-03
4.774162285466896719e+03 1.551754089447795248e+00 2.233738675580393147e-03
4.778936447752364984e+03 1.568511220260984551e+00 2.136511779054871621e-03
4.783715384200118933e+03 1.587984463355344378e+00 2.046856646457689572e-03
4.788499099584319993e+03 1.612458945866114046e+00 2.298388772751822334e-03
4.793287598683906253e+03 1.639391491187573546e+00 2.698801833470646904e-03
4.798080886282591564e+03 1.668367390861225985e+00 2.948288031174528534e-03
4.802878967168876443e+03 1.695320410564385760e+00 2.932616225586730154e-03
4.807681846136046261e+03 1.719036656366974114e+00 2.594048852961017629e-03
4.812489527982183972e+03 1.737721322675097158e+00 2.267826446731732899e-03
4.817302017510168298e+03 1.748690207148798859e+00 2.135800908159026477e-03
4.822119319527679181e+03 1.749555681950819563e+00 2.119245707380050005e-03
4.826941438847208701e+03 1.739803544543160108e+00 2.217483830030226970e-03
4.831768380286057436e+03 1.721915619236886741e+00 2.221396091278332163e-03
4.836600148666345376e+03 1.696694136450138224e+00 2.253476244054443238e-03
4.841436748815013743e+03 1.662086665359510329e+00 2.368292486951782856e-03
4.846278185563829538e+03 1.621171620562416260e+00 2.791926321535729595e-03
4.851124463749395545e+03 1.581350636368743734e+00 2.667674509706112473e-03
4.855975588213146693e+03 1.545728177952055971e+00 2.844652879324052839e-03
4.860831563801360971e+03 1.513870015657853063e+00 2.924843449216521507e-03
4.865692395365163975e+03 1.491805970440783780e+00 2.471006532518756071e-03
4.870558087760530725e+03 1.479581139671033885e+00 2.261157320074703471e-03
4.875428645848292945e+03 1.478954671775826180e+00 2.627704813210224657e-03
4.880304074494142696e+03 1.487504656953097415e+00 2.901038332412801592e-03
4.885184378568638749e+03 1.507555976718683688e+00 2.977301684112731214e-03
4.890069562947209306e+03 1.531453444934520514e+00 2.886940915980780540e-03
4.894959632510157462e+03 1.560382551332048617e+00 2.177557226217846208e-03
4.899854592142669389e+03 1.587068568313330319e+00 1.969836373242566611e-03
4.904754446734813428e+03 1.613543447717088908e+00 1.911226770220726852e-03
4.909659201181550088e+03 1.638625668919472034e+00 1.783451651868639713e-03
4.914568860382732964e+03 1.658584404456314942e+00 1.809826758251956288e-03
4.919483429243117826e+03 1.672628280915178234e+00 1.573388172414532521e-03
4.924402912672362618e+03 1.683536786796986595e+00 1.337842248594990624e-03
4.929327315585036558e+03 1.691361497946401338e+00 1.325536946960613428e-03
4.934256642900622865e+03 1.694232704491769104e+00 1.347297801606022133e-03
4.939190899543525120e+03 1.692258503656347335e+00 1.369238438807191807e-03
4.944130090443070912e+03 1.685348118004946105e+00 1.265545443914397076e-03
4.949074220533515472e+03 1.673681058155925605e+00 1.146167055246435701e-03
4.954023294754050767e+03 1.655021917432443423e+00 1.313623575425450435e-03
4.958977318048806410e+03 1.630063508107605363e+00 1.217831085000332676e-03
4.963936295366856939e+03 1.598016467693203824e+00 1.244870530489334453e-03
4.968900231662225451e+03 1.560391259217998261e+00 1.320382448631377643e-03
4.973869131893889062e+03 1.518007044926089399e+00 1.331979099002213391e-03
4.978843001025784361e+03 1.472333175999648525e+00 1.407194991662091702e-03
4.983821844026811959e+03 1.424024291957309174e+00 1.642459862691344552e-03
4.988805665870840130e+03 1.375448251604983740e+00 1.853134441926201133e-03
4.993794471536712990e+03 1.328514959792256755e+00 1.592270199629567231e-03
4.998788266008251412e+03 1.285645440290259955e+00 1.372429194124080622e-03
5.003787054274261209e+03 1.251636777576202730e+00 1.301467909412667512e-03
5.008790841328536771e+03 1.224810109506077049e+00 1.252828853987834759e-03
5.013799632169867436e+03 1.206535662296464473e+00 1.106477884047497992e-03
5.018813431802038394e+03 1.199179130486201617e+00 1.117313821071789105e-03
5.023832245233842514e+03 1.202382129872974881e+00 1.294725036969420840e-03
5.028856077479077612e+03 1.213743688610151583e+00 1.386492010077501570e-03
5.033884933556558281e+03 1.233443118072736544e+00 1.362702785232672862e-03
5.038918818490116792e+03 1.259665475320529637e+00 1.838604081362630151e-03
5.043957737308608557e+03 1.290735362391204566e+00 1.841578032609545237e-03
5.049001695045918495e+03 1.322138000096778843e+00 1.484265967940984763e-03
5.054050696740966487e+03 1.353563409796650463e+00 1.166307264620869378e-03
5.059104747437709193e+03 1.381878069049857105e+00 1.224273881990168081e-03
5.064163852185148244e+03 1.408284144630403523e+00 1.275245965926828260e-03
5.069228016037335692e+03 1.432168419779216828e+00 1.370716534125607147e-03
5.074297244053374015e+03 1.452825954376655959e+00 1.315533518060859643e-03
5.079371541297429758e+03 1.469789204804230032e+00 1.305032136346549526e-03
5.084450912838728073e+03 1.483409309236580542e+00 1.186574671197626477e-03
5.089535363751569093e+03 1.494587674987660320e+00 1.120991823650773671e-03
5.094624899115322478e+03 1.503079405961342152e+00 1.069816579782437247e-03
5.099719524014439230e+03 1.509643698442922677e+00 1.038269211847095289e-03
5.104819243538455339e+03 1.514601885029759565e+00 1.051217964057244532e-03
5.109924062781995417e+03 1.517734565546284164e+00 1.061490908973789470e-03
5.115033986844779065e+03 1.519769873557596407e+00 1.050516157375686738e-03
5.120149020831625421e+03 1.520320450209766472e+00 1.072637746032280856e-03
5.125269169852458617e+03 1.519850232048173932e+00 9.983136484550468419e-04
5.130394439022313236e+03 1.519272230808512925e+00 8.779668001359183403e-04
5.135524833461337039e+03 1.519411010948626961e+00 8.703990995354419537e-04
5.140660358294800062e+03 1.519971894385049094e+00 1.020689610001129441e-03
5.145801018653096435e+03 1.521813996938716329e+00 1.119112189515371293e-03
5.150946819671751655e+03 1.526287094030272629e+00 1.144790076136281221e-03
5.156097766491425318e+03 1.532280446156380815e+00 1.165861844368337426e-03
5.161253864257918394e+03 1.538784598529661984e+00 1.252173856146759261e-03
5.166415118122177773e+03 1.549140633205335904e+00 1.317485671287556758e-03
5.171581533240301724e+03 1.561861174829320298e+00 1.449119079758974396e-03
5.176753114773543530e+03 1.576056180840790022e+00 1.474510314858002141e-03
5.181929867888318768e+03 1.590743955007146049e+00 1.419400480553016132e-03
5.187111797756208944e+03 1.606266141020899152e+00 1.304421619848033414e-03
5.192298909553966951e+03 1.622168927427861229e+00 1.242078470389256818e-03
5.197491208463522526e+03 1.636287818951820849e+00 1.259817082132329031e-03
5.202688699671987706e+03 1.649287826948259816e+00 1.260653439538948458e-03
5.207891388371661378e+03 1.660621856823263576e+00 1.236545893230101348e-03
5.213099279760034733e+03 1.670461544137821441e+00 1.223645265005653257e-03
5.218312379039796724e+03 1.677395103024968082e+00 1.190666345941603218e-03
5.223530691418837705e+03 1.682769802626843392e+00 1.208502074341631129e-03
5.228754222110258524e+03 1.686749935160392955e+00 1.191263282725594803e-03
5.233982976332370527e+03 1.688454748692384655e+00 1.169322235793141722e-03
5.239216959308704645e+03 1.687636394471090817e+00 1.159096619813054264e-03
5.244456176268015042e+03 1.684290509161550986e+00 1.173139598593251481e-03
5.249700632444284565e+03 1.679149705557200223e+00 1.369281216661605944e-03
5.254950333076731113e+03 1.672818838911038553e+00 1.586443427153317156e-03
5.260205283409809454e+03 1.665725930702993240e+00 1.294778978243719438e-03
5.265465488693221232e+03 1.659113001682444022e+00 1.267623005501846215e-03
5.270730954181915877e+03 1.652774146423394486e+00 1.240666999172601072e-03
5.276001685136099695e+03 1.646663092744044432e+00 1.231066871577587507e-03
5.281277686821237694e+03 1.640583900192997380e+00 1.248048141015564109e-03
5.286558964508059944e+03 1.634052868111826928e+00 1.269249341038244374e-03
5.291845523472569766e+03 1.629111229956673679e+00 1.301634558269652809e-03
5.297137368996044643e+03 1.622425906260395623e+00 1.286914090503499340e-03
