# starting wavelength: 4298.120
# ending wavelength: 7689.130
# wav flux eflux
4.298520896507864563e+03 5.514260854344110729e-01 2.058699539749777319e-01
4.302819417404373780e+03 6.797700462208314809e-01 1.514299838662637454e-01
4.307122236821779552e+03 7.847046137041795433e-01 1.161394949039722818e-01
4.311429359058603040e+03 8.597106433194219299e-01 8.908964555942334995e-02
4.315740788417662770e+03 9.087628635685216505e-01 7.220943194005298438e-02
4.320056529206081905e+03 9.273869761640770593e-01 5.751292891153896719e-02
4.324376585735290064e+03 9.228520369157617864e-01 4.604841334375934375e-02
4.328700962321026054e+03 9.025770003720763324e-01 3.812754345664778888e-02
4.333029663283348782e+03 8.708643477950502865e-01 3.191992877822513730e-02
4.337362692946633615e+03 8.379156709368000833e-01 2.777391122974865595e-02
4.341700055639581478e+03 8.119606130907277564e-01 2.717347166491998478e-02
4.346041755695222491e+03 7.896148297972934715e-01 2.583860569603366880e-02
4.350387797450919606e+03 7.754101183359818350e-01 2.601421351459535722e-02
4.354738185248371337e+03 7.647709074080788483e-01 2.580543960695745945e-02
4.359092923433621763e+03 7.664019131007183683e-01 2.668690301459465328e-02
4.363452016357056891e+03 7.628686112802121055e-01 2.677941047595830751e-02
4.367815468373414660e+03 7.585873042823212398e-01 2.639404153117479515e-02
4.372183283841789489e+03 7.537849951819927119e-01 2.581357909069064219e-02
4.376555467125633186e+03 7.517920895902513445e-01 2.582683022872302170e-02
4.380932022592760404e+03 7.536215262007865956e-01 2.563427625701999307e-02
4.385312954615354101e+03 7.576224840176575270e-01 2.553173248374899021e-02
4.389698267569970994e+03 7.793345914560532162e-01 2.336351822459769786e-02
4.394087965837542470e+03 7.925683528584144266e-01 2.340245043617168383e-02
4.398482053803381859e+03 8.187830211446546214e-01 2.251803804494801123e-02
4.402880535857186260e+03 8.366459040108374934e-01 2.256452805390454092e-02
4.407283416393044718e+03 8.522613995094265871e-01 2.261388094451744282e-02
4.411690699809440048e+03 8.587602463254890850e-01 2.188002844994827584e-02
4.416102390509250654e+03 8.644371142035918165e-01 2.063541921867485113e-02
4.420518492899761441e+03 8.721327384777820546e-01 2.019501901923902165e-02
4.424939011392662906e+03 8.749707142272120652e-01 2.026959137741933883e-02
4.429363950404056595e+03 8.822129201022432810e-01 2.071977837894365890e-02
4.433793314354462382e+03 8.943887609271791161e-01 2.184668279640064950e-02
4.438227107668818462e+03 9.025011334432271326e-01 2.213482936620139035e-02
4.442665334776488635e+03 9.060461041579843666e-01 2.199892152868902079e-02
4.447108000111265937e+03 9.093906886939602252e-01 2.162691747357188901e-02
4.451555108111379013e+03 9.109856498208372955e-01 1.823675934960669251e-02
4.456006663219492111e+03 9.014742746149799757e-01 1.698664552572860462e-02
4.460462669882713271e+03 8.893909654092295725e-01 1.574797734066225169e-02
4.464923132552597053e+03 8.602702887860296244e-01 1.627722186262618373e-02
4.469388055685150903e+03 8.175679753719810039e-01 1.745783753481164324e-02
4.473857443740837880e+03 7.669240123083123084e-01 1.504070154764482019e-02
4.478331301184580298e+03 7.146722003432161019e-01 1.299732215090002377e-02
4.482809632485766087e+03 6.642271554963916635e-01 1.241815264934617927e-02
4.487292442118253348e+03 6.200211953722213343e-01 1.138723957232637592e-02
4.491779734560373072e+03 5.820178963559380358e-01 1.290752106873239123e-02
4.496271514294934605e+03 5.514405717110998362e-01 1.418487565953116883e-02
4.500767785809231100e+03 5.308617906082951921e-01 1.273486078998107077e-02
4.505268553595042249e+03 5.092762238692885024e-01 1.302656609314552065e-02
4.509773822148638828e+03 4.879284538730951359e-01 1.707190375692462306e-02
4.514283595970789065e+03 4.733713014033140154e-01 2.055300235498661032e-02
4.518797879566761367e+03 4.724076548752919047e-01 2.143487402331562680e-02
4.523316677446328868e+03 4.881478218094320587e-01 2.170807711557657532e-02
4.527839994123776705e+03 5.202724701673080432e-01 2.325878808597886538e-02
4.532367834117902021e+03 5.821685681962951442e-01 2.346660133398809425e-02
4.536900201952022144e+03 6.636740919897339275e-01 2.301796686125200109e-02
4.541437102153975502e+03 7.744681782854516694e-01 2.727268313869612298e-02
4.545978539256130716e+03 9.003458647508024715e-01 3.451689469228581830e-02
4.550524517795388419e+03 1.057681177737517464e+00 4.413729322126609678e-02
4.555075042313184895e+03 1.185651809757954922e+00 4.527267230211891313e-02
4.559630117355500261e+03 1.314850900225087216e+00 4.162235919885648450e-02
4.564189747472856652e+03 1.409210319469394346e+00 3.913876788837625936e-02
4.568753937220330954e+03 1.481447742427090875e+00 3.794554742877246506e-02
4.573322691157552981e+03 1.534356037460684163e+00 4.045076446021900890e-02
4.577896013848711846e+03 1.558625432264287403e+00 4.329175915819884896e-02
4.582473909862562323e+03 1.548687343772763736e+00 4.677653515573473170e-02
4.587056383772426670e+03 1.519672405806756998e+00 4.443456577864939028e-02
4.591643440156200086e+03 1.464902918870196302e+00 3.396948733662853714e-02
4.596235083596357981e+03 1.425810855639618291e+00 2.975010173814838024e-02
4.600831318679955984e+03 1.397001016014619790e+00 3.146950194489342434e-02
4.605432149998637215e+03 1.384354630681492893e+00 3.175149588658569139e-02
4.610037582148637739e+03 1.384674916672968603e+00 3.062566981619752049e-02
4.614647619730787483e+03 1.408240971026353705e+00 2.791376120126183580e-02
4.619262267350520233e+03 1.430150088931426700e+00 2.597022901834812950e-02
4.623881529617872729e+03 1.464019741921219531e+00 2.361809783316243597e-02
4.628505411147491941e+03 1.469648692835670678e+00 2.411031992998593360e-02
4.633133916558640522e+03 1.460283258185796074e+00 1.550753913485088641e-02
4.637767050475200449e+03 1.471232055190903276e+00 1.466018633417104020e-02
4.642404817525677572e+03 1.485777027274478579e+00 1.436652881721355024e-02
4.647047222343205249e+03 1.514864664731538912e+00 1.672791141015946698e-02
4.651694269565549803e+03 1.550351185272803356e+00 1.702195188417539307e-02
4.656345963835116891e+03 1.573096618993152340e+00 1.382008020084698162e-02
4.661002309798953320e+03 1.584779434052070668e+00 1.284119362169299297e-02
4.665663312108753416e+03 1.580283668381737172e+00 1.448689181750683827e-02
4.670328975420864481e+03 1.565716695156238458e+00 1.508758256970292415e-02
4.674999304396286789e+03 1.545023171034133336e+00 1.441840741323300104e-02
4.679674303700684504e+03 1.515734571269012232e+00 1.163002156570373466e-02
4.684353978004386590e+03 1.505829125639451149e+00 1.187578456746012263e-02
4.689038331982392265e+03 1.494871197000113838e+00 1.296813267749562411e-02
4.693727370314376458e+03 1.494896886026876981e+00 1.729622925569165512e-02
4.698421097684692540e+03 1.483218044027760030e+00 1.691507911484020285e-02
4.703119518782378691e+03 1.458633447843581621e+00 1.725567678155224410e-02
4.707822638301162442e+03 1.430929510978559804e+00 1.736495983719333822e-02
4.712530460939465229e+03 1.409526189761876269e+00 1.878162459556243294e-02
4.717242991400406027e+03 1.381936761158065741e+00 1.983458755884706659e-02
4.721960234391808626e+03 1.355098236607003459e+00 1.870897411411508518e-02
4.726682194626201635e+03 1.331519320602430501e+00 1.752465829065001299e-02
4.731408876820829391e+03 1.314305216753469230e+00 1.880560192582825599e-02
4.736140285697651962e+03 1.301998490212251447e+00 2.007935832519209401e-02
4.740876425983350600e+03 1.289446449986066057e+00 1.861617520479787527e-02
4.745617302409335934e+03 1.275345435518587589e+00 1.819539413225610552e-02
4.750362919711747054e+03 1.254874781841592624e+00 1.687062669260374834e-02
4.755113282631459697e+03 1.222458938590363919e+00 1.725846363845591480e-02
4.759868395914093526e+03 1.188571607315629608e+00 1.822436046583653449e-02
4.764628264310008490e+03 1.142839609126609535e+00 1.826413072041540089e-02
4.769392892574320285e+03 1.100447777430087815e+00 1.660510179119685514e-02
4.774162285466896719e+03 1.051695792098056970e+00 1.953618067535083450e-02
4.778936447752364984e+03 1.009377508301374071e+00 2.173537708482829386e-02
4.783715384200118933e+03 9.635092055784274523e-01 1.840497184004168812e-02
4.788499099584319993e+03 9.132896982360271254e-01 1.733572838668281935e-02
4.793287598683906253e+03 8.342722676858355113e-01 2.828000302228929341e-02
4.798080886282591564e+03 7.842385164693519428e-01 3.318568245806494815e-02
4.802878967168876443e+03 7.462833760019318419e-01 3.309621755352842171e-02
4.807681846136046261e+03 7.370331263971003910e-01 2.934591866770297833e-02
4.812489527982183972e+03 7.847271199367283900e-01 2.471270999868844034e-02
4.817302017510168298e+03 8.775480427369262149e-01 2.435543336303274201e-02
4.822119319527679181e+03 1.040084995325079475e+00 4.087382103720957338e-02
4.826941438847208701e+03 1.203723863440165243e+00 4.549002414569779107e-02
4.831768380286057436e+03 1.368059879028677983e+00 4.654344227609987644e-02
4.836600148666345376e+03 1.553078087260788331e+00 3.549337843609343818e-02
4.841436748815013743e+03 1.662607319844219944e+00 2.646370915693494960e-02
4.846278185563829538e+03 1.711293984462465056e+00 2.059484728140281717e-02
4.851124463749395545e+03 1.680721957844717007e+00 3.012635472515551305e-02
4.855975588213146693e+03 1.594061661492923498e+00 3.482504343586390744e-02
4.860831563801360971e+03 1.474422273507426384e+00 3.858586996051914519e-02
4.865692395365163975e+03 1.308794332757770684e+00 3.601593557726690681e-02
4.870558087760530725e+03 1.196577096098413673e+00 3.045960869761930520e-02
4.875428645848292945e+03 1.121084468557564939e+00 2.193021418361900537e-02
4.880304074494142696e+03 1.100077917971548525e+00 1.752053380583544831e-02
4.885184378568638749e+03 1.147675157442394678e+00 2.192612322642802786e-02
4.890069562947209306e+03 1.276641856459721502e+00 3.163101748492674892e-02
4.894959632510157462e+03 1.422857988725728662e+00 2.976669272804507299e-02
4.899854592142669389e+03 1.584718718993513020e+00 2.824744862482317029e-02
4.904754446734813428e+03 1.760964960356630638e+00 2.103688227408424816e-02
4.909659201181550088e+03 1.909476924973973144e+00 1.761090314849754132e-02
4.914568860382732964e+03 2.037642779142851523e+00 1.368961132223248459e-02
4.919483429243117826e+03 2.121678266922973233e+00 1.335918420519971797e-02
4.924402912672362618e+03 2.153588183716958149e+00 1.256920162178500923e-02
4.929327315585036558e+03 2.144657538834496613e+00 1.519011358444249428e-02
4.934256642900622865e+03 2.079724171997738846e+00 1.572832085258976664e-02
4.939190899543525120e+03 1.957925835397323455e+00 1.621117818106447908e-02
4.944130090443070912e+03 1.790927178359492444e+00 2.203453974434306170e-02
4.949074220533515472e+03 1.595306671283906352e+00 3.076683943787164935e-02
4.954023294754050767e+03 1.374881744391106331e+00 4.055529019414143982e-02
4.958977318048806410e+03 1.192883636274740811e+00 4.104929910662623999e-02
4.963936295366856939e+03 1.022543877425813985e+00 3.582704417996072921e-02
4.968900231662225451e+03 9.165377053350557413e-01 2.808576363362668554e-02
4.973869131893889062e+03 8.688149442291068780e-01 2.248983604726364702e-02
4.978843001025784361e+03 9.236592287003547730e-01 3.062018986913484994e-02
4.983821844026811959e+03 1.030468869298794665e+00 3.525664233569097972e-02
4.988805665870840130e+03 1.199940480271759480e+00 3.373147620195889734e-02
4.993794471536712990e+03 1.393423001708130382e+00 3.042630395048321820e-02
4.998788266008251412e+03 1.571279729260799174e+00 2.437681913528155428e-02
5.003787054274261209e+03 1.739344078893131140e+00 1.286678404734670385e-02
5.008790841328536771e+03 1.856033341084866173e+00 1.228790796509425867e-02
5.013799632169867436e+03 1.926020305539138278e+00 1.311051655930925257e-02
5.018813431802038394e+03 1.947619910396282350e+00 1.317802179635366513e-02
5.023832245233842514e+03 1.940555911931851618e+00 1.406149576295801819e-02
5.028856077479077612e+03 1.891243595846773928e+00 1.334644139160734780e-02
5.033884933556558281e+03 1.840186920818714711e+00 1.363629149242743220e-02
5.038918818490116792e+03 1.773536986168634311e+00 1.266097315293255275e-02
5.043957737308608557e+03 1.700166509643759483e+00 6.707615567270809424e-03
5.049001695045918495e+03 1.638295627433377311e+00 6.066548843904663764e-03
5.054050696740966487e+03 1.590314196300556704e+00 7.650426662350697828e-03
5.059104747437709193e+03 1.540396425008075720e+00 7.308277644734253141e-03
5.064163852185148244e+03 1.501120450715125898e+00 7.797207256145410013e-03
5.069228016037335692e+03 1.464480749656275282e+00 8.810125227475098034e-03
5.074297244053374015e+03 1.425376689312628287e+00 1.099978494161964367e-02
5.079371541297429758e+03 1.387124870790844788e+00 1.195260101117425443e-02
5.084450912838728073e+03 1.323513324155508819e+00 1.118280836774719796e-02
5.089535363751569093e+03 1.242205337267073162e+00 1.134143916005736497e-02
5.094624899115322478e+03 1.153864313893217641e+00 1.317232280466906075e-02
5.099719524014439230e+03 1.050271557793231114e+00 1.587057197461777189e-02
5.104819243538455339e+03 9.493264160588645861e-01 1.576356123101782178e-02
5.109924062781995417e+03 8.635456212483052507e-01 1.565005974020230659e-02
5.115033986844779065e+03 7.965433638808607775e-01 1.448298142748651041e-02
5.120149020831625421e+03 7.482813894592437176e-01 1.251567766737320467e-02
5.125269169852458617e+03 7.317310682410246292e-01 1.091695952034461500e-02
5.130394439022313236e+03 7.474887072847830050e-01 1.053052138835909417e-02
5.135524833461337039e+03 8.058792357618582702e-01 1.174482015363468267e-02
5.140660358294800062e+03 8.993533515477558637e-01 1.320684199253649091e-02
5.145801018653096435e+03 1.027926846011560702e+00 2.115065006437964745e-02
5.150946819671751655e+03 1.142963460995324754e+00 1.969535402107207983e-02
5.156097766491425318e+03 1.248501308789633057e+00 1.941202434083996731e-02
5.161253864257918394e+03 1.325505094524241256e+00 1.796791588738659920e-02
5.166415118122177773e+03 1.379625917122082823e+00 2.012557671845071131e-02
5.171581533240301724e+03 1.400508503359925605e+00 2.563342461269944514e-02
5.176753114773543530e+03 1.419895224231137343e+00 2.749695743259952807e-02
5.181929867888318768e+03 1.417103839703842683e+00 2.658605139140272910e-02
5.187111797756208944e+03 1.422149954157940988e+00 2.527842828133180716e-02
5.192298909553966951e+03 1.422373905446287612e+00 2.599466602060366074e-02
5.197491208463522526e+03 1.413572850618849408e+00 2.646207219138880379e-02
5.202688699671987706e+03 1.405636137154707255e+00 2.659784920458139676e-02
5.207891388371661378e+03 1.393887790850625974e+00 2.583374378702512839e-02
5.213099279760034733e+03 1.383585181650706764e+00 2.511157437334620920e-02
5.218312379039796724e+03 1.374028767912510940e+00 2.636412803061817176e-02
5.223530691418837705e+03 1.368508744339232308e+00 2.679114954230817081e-02
5.228754222110258524e+03 1.360606723267095086e+00 2.562130797228524132e-02
5.233982976332370527e+03 1.349776152815034713e+00 2.474351800072631044e-02
5.239216959308704645e+03 1.339974034953451909e+00 2.542810770912455609e-02
5.244456176268015042e+03 1.333757291666373579e+00 2.585550418159555594e-02
5.249700632444284565e+03 1.337036208499733814e+00 2.388420553129958282e-02
5.254950333076731113e+03 1.328005074155935938e+00 2.195619030799547330e-02
5.260205283409809454e+03 1.310299506371839007e+00 2.293800484815701479e-02
5.265465488693221232e+03 1.296625046969814843e+00 2.585842229599322889e-02
5.270730954181915877e+03 1.277336091135460094e+00 2.568653846783075512e-02
5.276001685136099695e+03 1.261847163663428306e+00 2.055355796164376123e-02
5.281277686821237694e+03 1.273744908605890735e+00 1.758072411093613424e-02
5.286558964508059944e+03 1.298835003706815039e+00 1.936453910132222844e-02
5.291845523472569766e+03 1.349845192256444948e+00 2.062913256159546252e-02
5.297137368996044643e+03 1.413340349566555521e+00 1.939481348793354806e-02
5.302434506365042580e+03 1.474974439577192209e+00 1.570805761110831075e-02
5.307736940871409388e+03 1.532711303700017957e+00 9.830625016000403213e-03
5.313044677812282316e+03 1.563061367707629268e+00 1.230008255858399541e-02
5.318357722490096421e+03 1.585535887104904340e+00 1.279856040938039639e-02
5.323676080212588204e+03 1.591621506871565783e+00 1.225339151492076985e-02
5.328999756292802886e+03 1.597974544595655244e+00 1.153705607986000095e-02
5.334328756049097137e+03 1.593081578302989021e+00 8.817638166212249731e-03
5.339663084805148173e+03 1.598796567196794305e+00 1.304554281513072879e-02
5.345002747889954662e+03 1.592602003901006036e+00 1.348309901340698051e-02
5.350347750637846730e+03 1.578015882494103961e+00 1.195939335092574378e-02
5.355698098388485960e+03 1.562038937017453000e+00 1.157444397963823708e-02
5.361053796486876308e+03 1.533025957650057336e+00 1.318078226071961977e-02
5.366414850283365013e+03 1.503280044314830866e+00 1.382098139841653542e-02
5.371781265133649867e+03 1.477831104146656305e+00 1.380480692408599108e-02
5.377153046398785591e+03 1.453402093179116061e+00 1.241885665747236543e-02
5.382530199445186554e+03 1.444509034033759409e+00 1.175928391486475225e-02
5.387912729644633146e+03 1.446242426410128790e+00 1.223503979013762857e-02
5.393300642374279960e+03 1.456155480306514205e+00 1.372664018977164287e-02
5.398693943016655794e+03 1.484609120660152382e+00 1.361139015747246835e-02
5.404092636959673655e+03 1.505341390602510376e+00 1.194716207680839373e-02
5.409496729596635305e+03 1.524377371449286089e+00 9.048825159977140833e-03
5.414906226326233991e+03 1.529165783821200941e+00 8.294300300175217258e-03
5.420321132552561721e+03 1.522417646801906610e+00 7.919327372249396549e-03
5.425741453685116539e+03 1.496865183534347388e+00 8.325474374902467820e-03
5.431167195138803436e+03 1.460338348995385616e+00 8.274230687042935170e-03
5.436598362333943442e+03 1.421464017182445749e+00 6.750204606426100408e-03
5.442034960696279086e+03 1.387321922486531411e+00 7.182004560799005836e-03
5.447476995656978033e+03 1.346697097020248313e+00 7.752664028402500226e-03
5.452924472652636723e+03 1.300859870359478032e+00 7.892047761401668401e-03
5.458377397125291282e+03 1.256389861659786389e+00 8.374790994723102511e-03
5.463835774522417523e+03 1.209974211348461060e+00 9.986549846120280557e-03
5.469299610296941864e+03 1.175990981168028471e+00 1.093799918961236260e-02
5.474768909907241323e+03 1.151312565639862173e+00 1.133317061686474163e-02
5.480243678817149885e+03 1.135925322354376377e+00 1.024193453084211100e-02
5.485723922495968509e+03 1.139366837606482274e+00 9.661646790289924944e-03
5.491209646418466946e+03 1.160928118405205378e+00 9.860999822913133969e-03
5.496700856064887375e+03 1.196400199366900674e+00 1.156580060239560323e-02
5.502197556920953502e+03 1.243320050196267790e+00 1.238466278057876423e-02
5.507699754477876013e+03 1.294359940735748671e+00 1.154970268527277973e-02
5.513207454232356213e+03 1.344457116209861747e+00 1.074412726081485671e-02
5.518720661686590574e+03 1.387728201140684625e+00 7.804675090850402355e-03
5.524239382348278923e+03 1.409519214277711319e+00 6.996507357216949496e-03
5.529763621730628984e+03 1.414164435288933541e+00 7.374210039540620744e-03
5.535293385352360929e+03 1.398490018105293942e+00 7.308189506517023294e-03
5.540828678737715563e+03 1.372085643511125719e+00 6.545620051314349729e-03
5.546369507416455235e+03 1.340783976597023530e+00 6.121537257946023727e-03
5.551915876923872929e+03 1.307689818546835303e+00 5.313112065008394544e-03
5.557467792800798634e+03 1.277136632863744570e+00 5.126389858299466515e-03
5.563025260593602070e+03 1.248412946909490673e+00 5.886440269019574574e-03
5.568588285854197238e+03 1.219902456419815984e+00 6.905896817437320867e-03
5.574156874140053333e+03 1.198209873891075361e+00 8.792628815792354058e-03
5.579731031014194741e+03 1.166287843605528618e+00 8.038644577664174479e-03
5.585310762045211050e+03 1.133334416694953717e+00 6.824339049151517504e-03
5.590896072807257951e+03 1.090989115016156807e+00 8.369461383588912284e-03
5.596486968880067252e+03 1.052159617975053640e+00 9.710354234007442797e-03
