# starting wavelength: 3490.420
# ending wavelength: 9204.060
# wav flux eflux
3.491651790619498570e+03 -1.340964329900051766e-01 1.741542491553304206e+00
3.495143442410119405e+03 5.853857717480115408e-01 1.254219018174169031e+00
3.498638585852530468e+03 1.132362644451225364e+00 9.275793485101709868e-01
3.502137224438384237e+03 1.591445507754408517e+00 7.150195724941396103e-01
3.505639361662823831e+03 1.868103710141642004e+00 5.547370405521230285e-01
3.509145001024487556e+03 2.078571483305008627e+00 4.392214999474908232e-01
3.512654146025513455e+03 2.225250285459775768e+00 3.529855184384418365e-01
3.516166800171540217e+03 2.319075777015907391e+00 2.896850332896173663e-01
3.519682966971712631e+03 2.341036065934163357e+00 2.449380432248217665e-01
3.523202649938685681e+03 2.322115327756831604e+00 2.078658002924156367e-01
3.526725852588625457e+03 2.269442112165121372e+00 1.813599567901565124e-01
3.530252578441215064e+03 2.191045207899480651e+00 1.614758717252984255e-01
3.533782831019657806e+03 2.100006169696643887e+00 1.460574096568166558e-01
3.537316613850678550e+03 2.029642165016216637e+00 1.354192879396458049e-01
3.540853930464530094e+03 1.971120715391460942e+00 1.278243407190479963e-01
3.544394784394995895e+03 1.900204180793947373e+00 1.218180109948513445e-01
3.547939179179392340e+03 1.830926828232066095e+00 1.163947932663163681e-01
3.551487118358572843e+03 1.768991374745439327e+00 1.121465294825412934e-01
3.555038605476932389e+03 1.707370057137330921e+00 1.096744223694884474e-01
3.558593644082410719e+03 1.645306317801866980e+00 1.075104799782952703e-01
3.562152237726494150e+03 1.617088675032477996e+00 1.069033053259656058e-01
3.565714389964221937e+03 1.640189661753907568e+00 9.812099390229007956e-02
3.569280104354187188e+03 1.590699267384260152e+00 9.743801607398480669e-02
3.572849384458542772e+03 1.524711058240041828e+00 8.375230783892630149e-02
3.576422233843002232e+03 1.499208778197594460e+00 8.118159505193280057e-02
3.579998656076846601e+03 1.461199081593342886e+00 7.813998728628994417e-02
3.583578654732924406e+03 1.484290587706543318e+00 6.825441236997732697e-02
3.587162233387658489e+03 1.481242856896697990e+00 6.796984254830826244e-02
3.590749395621047370e+03 1.463723259481092054e+00 6.720538362662910326e-02
3.594340145016669794e+03 1.440006828566011698e+00 6.647157858192144497e-02
3.597934485161687462e+03 1.441345390791039405e+00 6.288256054759473745e-02
3.601532419646850485e+03 1.434072480409245065e+00 5.524154445146050446e-02
3.605133952066498296e+03 1.396547883539405621e+00 5.006015871450524707e-02
3.608739086018566013e+03 1.396363596260731255e+00 4.935045169842786073e-02
3.612347825104585809e+03 1.377966670919823056e+00 4.893250414102411766e-02
3.615960172929691907e+03 1.388376162643490064e+00 4.601316193561711537e-02
3.619576133102622407e+03 1.379759657772620773e+00 4.427461450904197904e-02
3.623195709235726554e+03 1.373454957081332806e+00 4.388986011945578830e-02
3.626818904944963379e+03 1.364983641149747795e+00 4.338216654781461984e-02
3.630445723849909427e+03 1.335409655098591442e+00 4.277355635260909200e-02
3.634076169573760581e+03 1.338391240012194450e+00 3.493216842787850995e-02
3.637710245743335690e+03 1.334176988717281187e+00 3.390443238499157158e-02
3.641347955989080219e+03 1.326415353166358058e+00 3.123185332474555723e-02
3.644989303945070333e+03 1.286919802089706133e+00 2.988522985568315901e-02
3.648634293249016537e+03 1.243304698895834282e+00 2.969379317467126661e-02
3.652282927542266862e+03 1.213577327357675095e+00 2.904988128420266796e-02
3.655935210469810499e+03 1.154087037518598091e+00 2.768548273202083715e-02
3.659591145680281443e+03 1.111850708036992819e+00 2.546275740812297891e-02
3.663250736825963031e+03 1.093757477957403745e+00 2.534470545121189286e-02
3.666913987562790226e+03 1.080280337673936941e+00 2.505739147373090003e-02
3.670580901550354156e+03 1.062878905184499789e+00 2.302125373088999977e-02
3.674251482451905758e+03 1.053384612516622409e+00 2.212376235018674933e-02
3.677925733934358959e+03 1.060107870972136990e+00 2.198195067483006346e-02
3.681603659668294313e+03 1.080245309276459009e+00 2.311670316207661488e-02
3.685285263327964003e+03 1.101958854322564463e+00 2.306932148869025520e-02
3.688970548591293209e+03 1.142786441728718572e+00 2.267197438793037978e-02
3.692659519139885560e+03 1.185055650327039523e+00 2.158410464337991511e-02
3.696352178659026777e+03 1.241908963755731454e+00 2.033563283333911231e-02
3.700048530837686940e+03 1.306953598837223174e+00 2.064145497238374302e-02
3.703748579368525952e+03 1.354618858285554506e+00 2.051055133412994433e-02
3.707452327947895355e+03 1.405155094096762314e+00 1.945296124537472179e-02
3.711159780275844696e+03 1.468165284345355648e+00 1.744534982649990559e-02
3.714870940056121526e+03 1.510658243289434877e+00 1.709906240868142371e-02
3.718585810996179134e+03 1.549393565546078211e+00 1.681323116746534160e-02
3.722304396807176545e+03 1.591175382362923774e+00 1.676865906244152590e-02
3.726026701203984885e+03 1.608248481703258514e+00 1.752527812604329216e-02
3.729752727905190113e+03 1.631911992385171040e+00 1.760083711914945184e-02
3.733482480633096657e+03 1.651405734048341012e+00 1.756801339092853645e-02
3.737215963113731050e+03 1.666447176091744087e+00 1.750519538361128974e-02
3.740953179076846027e+03 1.678795546768881763e+00 1.761603728446078238e-02
3.744694132255923705e+03 1.678751462288282426e+00 1.719807547167070613e-02
3.748438826388181042e+03 1.686846607618540217e+00 1.727289860498139318e-02
3.752187265214570289e+03 1.684270980839736698e+00 1.660716058826501584e-02
3.755939452479786269e+03 1.692878920424752076e+00 1.671928780701635239e-02
3.759695391932267285e+03 1.693304635056769758e+00 1.673411218873006867e-02
3.763455087324201031e+03 1.686600449923505662e+00 1.667419198677038555e-02
3.767218542411526414e+03 1.670142973365821959e+00 1.653163285305668528e-02
3.770985760953939007e+03 1.649301230134672780e+00 1.648219670554120983e-02
3.774756746714894234e+03 1.637684509273113598e+00 1.615868173921709144e-02
3.778531503461610555e+03 1.615487786213401389e+00 1.578034095636703799e-02
3.782310034965073100e+03 1.588654389512778042e+00 1.602756465245129547e-02
3.786092345000039586e+03 1.550074122602088433e+00 1.561707634372769098e-02
3.789878437345040766e+03 1.504205037102329667e+00 1.566236384838821938e-02
3.793668315782387253e+03 1.445893964825264444e+00 1.549362537043208303e-02
3.797461984098170888e+03 1.374841036312048237e+00 1.467875282473218163e-02
3.801259446082270188e+03 1.295301160860239831e+00 1.517048959273528848e-02
3.805060705528353537e+03 1.212710541003267251e+00 1.449037940718607247e-02
3.808865766233883278e+03 1.127258302213405727e+00 1.463402193088048954e-02
3.812674632000118436e+03 1.044231759860982045e+00 1.482106276465285782e-02
3.816487306632119726e+03 9.529920809339769150e-01 1.318021271151771472e-02
3.820303793938753188e+03 8.741353676214265178e-01 1.281873154068057484e-02
3.824124097732693372e+03 8.035271035507470794e-01 1.266444909640797832e-02
3.827948221830427428e+03 7.452517312539055361e-01 1.211715602645814342e-02
3.831776170052258749e+03 6.924695855836432434e-01 1.193100778317927532e-02
3.835607946222312421e+03 6.436343942465403423e-01 1.108714203629956006e-02
3.839443554168536139e+03 6.143075564121697196e-01 1.090922315241983458e-02
3.843282997722705659e+03 5.864808212710131974e-01 1.093313280533590552e-02
3.847126280720429804e+03 5.677663868504354561e-01 1.095862343331197551e-02
3.850973407001151372e+03 5.612853868622007525e-01 1.095111628094783997e-02
3.854824380408153957e+03 5.655534450536989777e-01 1.070803743065719578e-02
3.858679204788563311e+03 5.721281589055248196e-01 9.964962918604533537e-03
3.862537883993353262e+03 5.850554603459772185e-01 1.041855371299103307e-02
3.866400421877347981e+03 6.019341733265274330e-01 1.075513418085570320e-02
3.870266822299226533e+03 6.283407966352385632e-01 1.040060756668303131e-02
3.874137089121526969e+03 6.616764799037987421e-01 1.021107074861150876e-02
3.878011226210649966e+03 7.086299015183142869e-01 9.939940068214705993e-03
3.881889237436861549e+03 7.637520084437008361e-01 9.727916301506413232e-03
3.885771126674299921e+03 8.318938231443225861e-01 9.692008833564025316e-03
3.889656897800975457e+03 9.067448843222051247e-01 9.630128215369911093e-03
3.893546554698777527e+03 9.936716971298397150e-01 9.307389280706334159e-03
3.897440101253477678e+03 1.081364528587859475e+00 1.030408369593533054e-02
3.901337541354732366e+03 1.174359180240416523e+00 1.038852139494147835e-02
3.905238878896088409e+03 1.259539031584405500e+00 9.696478961221095469e-03
3.909144117774985716e+03 1.346009843472955048e+00 9.116364844605116813e-03
3.913053261892762293e+03 1.416851813670078730e+00 8.746820512924654775e-03
3.916966315154656058e+03 1.473743566325517618e+00 8.726823696979845238e-03
3.920883281469812118e+03 1.521742849923476415e+00 8.594343658949385456e-03
3.924804164751283224e+03 1.553891845169590225e+00 8.833217156108947796e-03
3.928728968916035683e+03 1.565859087242384984e+00 8.816387339920678592e-03
3.932657697884953450e+03 1.570851571688338000e+00 8.748838561695750776e-03
3.936590355582839493e+03 1.565692699106262520e+00 8.966401287915577376e-03
3.940526945938423523e+03 1.556361549427221824e+00 8.445313787711591566e-03
3.944467472884363360e+03 1.546687841227927684e+00 8.163070637877746852e-03
3.948411940357249023e+03 1.541881767264839054e+00 8.350557553526075441e-03
3.952360352297607733e+03 1.533194950846676896e+00 8.342038798396483879e-03
3.956312712649906643e+03 1.523517538246931480e+00 7.922871371580288841e-03
3.960269025362557841e+03 1.512781488629971527e+00 7.857002289272633708e-03
3.964229294387921527e+03 1.505706700593558933e+00 7.557392195134970264e-03
3.968193523682310570e+03 1.500486960538605974e+00 7.784065198138163597e-03
3.972161717205994591e+03 1.493553882891344609e+00 7.572064976461036039e-03
3.976133878923201792e+03 1.484236071948068947e+00 7.668585250169723810e-03
3.980110012802126221e+03 1.471749482940002407e+00 7.633609381771725745e-03
3.984090122814929600e+03 1.457312997882386663e+00 7.526157675843880325e-03
3.988074212937745870e+03 1.442833512050684108e+00 7.113127756031648215e-03
3.992062287150684824e+03 1.422608292352822268e+00 7.111826376523740917e-03
3.996054349437837118e+03 1.394630986173907683e+00 7.334774160039423188e-03
4.000050403787276082e+03 1.379026977127160825e+00 7.122362754636619823e-03
4.004050454191064546e+03 1.352884798945792610e+00 7.151850187926280834e-03
4.008054504645257111e+03 1.329702414633291196e+00 7.995599992788525803e-03
4.012062559149903791e+03 1.319357284855006140e+00 8.062974161592581859e-03
4.016074621709055009e+03 1.316224854156375690e+00 7.890954893615714782e-03
4.020090696330765240e+03 1.320027159519949089e+00 7.861098734948604103e-03
4.024110787027097558e+03 1.329969727454155093e+00 7.603705664179344001e-03
4.028134897814125907e+03 1.349516270072599777e+00 8.030999199954308790e-03
4.032163032711941469e+03 1.379888620337943239e+00 8.095355970595376899e-03
4.036195195744654484e+03 1.410609448069886085e+00 7.902624640548866139e-03
4.040231390940400615e+03 1.435320606287122658e+00 7.333430286585419615e-03
4.044271622331342314e+03 1.449318171632541841e+00 7.317751149592426063e-03
4.048315893953675186e+03 1.456908460140476258e+00 7.401153984681795896e-03
4.052364209847629809e+03 1.455851079019648386e+00 7.328126111084260624e-03
4.056416574057479011e+03 1.444839529980614490e+00 7.044928398145707156e-03
4.060472990631537868e+03 1.422993796303660963e+00 6.659579697109525159e-03
4.064533463622170530e+03 1.391943280825042706e+00 6.810598144157825606e-03
4.068597997085794304e+03 1.356422990401605411e+00 6.944893185728131385e-03
4.072666595082881486e+03 1.320539452278441050e+00 6.991329410973821934e-03
4.076739261677965715e+03 1.286215958000828996e+00 6.835520289428262050e-03
4.080816000939644709e+03 1.258869804311379514e+00 6.659441017724808051e-03
4.084896816940585722e+03 1.237451421661590611e+00 5.933498593390317509e-03
4.088981713757527814e+03 1.218373838778448404e+00 5.540166436384942085e-03
4.093070695471286854e+03 1.208176919475303590e+00 5.516152107913343053e-03
4.097163766166759160e+03 1.204040558417976525e+00 5.427049678345306771e-03
4.101260929932927866e+03 1.207899602252915816e+00 5.759983216008728903e-03
4.105362190862862008e+03 1.214052480193484218e+00 5.881734169191705358e-03
4.109467553053726078e+03 1.223590896375939652e+00 5.622432543856325550e-03
4.113577020606780934e+03 1.238839803583742905e+00 5.565887065934305156e-03
4.117690597627389252e+03 1.249626519147695625e+00 5.194540408761848249e-03
4.121808288225018259e+03 1.249941269151913614e+00 5.364841472150743383e-03
4.125930096513244280e+03 1.244559416099490168e+00 5.460352097046808004e-03
4.130056026609759101e+03 1.231876402705078366e+00 5.349726256247460711e-03
4.134186082636369974e+03 1.219344391027557872e+00 5.336506802167403224e-03
4.138320268719007800e+03 1.205174783840687880e+00 5.334921642420933571e-03
4.142458588987728035e+03 1.184132435456554777e+00 5.139164884131562118e-03
4.146601047576717065e+03 1.163750149217516405e+00 4.824947519816743906e-03
4.150747648624294925e+03 1.145504630798581891e+00 5.011744361245453090e-03
4.154898396272920763e+03 1.126807606748225110e+00 4.946825318479721074e-03
4.159053294669195566e+03 1.105500307713286112e+00 4.933070843495547184e-03
4.163212347963865795e+03 1.084413255844040691e+00 4.845140419404694518e-03
4.167375560311830668e+03 1.060409615050867060e+00 4.605473778567467126e-03
4.171542935872143971e+03 1.032995347563563593e+00 4.576654344695338557e-03
4.175714478808017702e+03 1.003298120585648601e+00 4.566019221137518173e-03
4.179890193286827525e+03 9.719420001194891690e-01 4.538640007091932979e-03
4.184070083480115500e+03 9.386220999021531730e-01 4.484048024188938206e-03
4.188254153563597356e+03 8.999366405413973258e-01 4.264722716995209169e-03
4.192442407717161586e+03 8.621551793878757808e-01 3.830393274656657739e-03
4.196634850124880359e+03 8.235689062506078573e-01 3.928570535030183504e-03
4.200831484975006788e+03 7.896736398192006900e-01 3.824995885628760302e-03
4.205032316459983122e+03 7.556526701930796897e-01 3.839090385468618694e-03
4.209237348776444378e+03 7.239584247993330335e-01 3.576839357049019317e-03
4.213446586125221984e+03 7.009614237036690954e-01 3.423746779302488941e-03
4.217660032711349231e+03 6.801552138844179085e-01 3.389986161274558592e-03
4.221877692744061278e+03 6.625285431297674998e-01 3.368572076285448677e-03
4.226099570436806971e+03 6.491114038617152859e-01 3.336016010958956206e-03
4.230325670007245208e+03 6.464168196050360526e-01 3.226904129705781762e-03
4.234555995677254032e+03 6.462042062159618627e-01 3.674837856919808791e-03
4.238790551672932452e+03 6.544149272610757517e-01 3.968446085748949213e-03
4.243029342224606808e+03 6.726270445793534059e-01 3.890364227448912023e-03
4.247272371566832589e+03 6.977638130594706611e-01 3.865578330363651956e-03
4.251519643938400804e+03 7.280178896686848589e-01 3.883073663069587858e-03
4.255771163582340705e+03 7.647993536057972053e-01 4.146947271389725583e-03
4.260026934745924336e+03 8.047513520429974143e-01 4.426841302319001366e-03
4.264286961680671993e+03 8.489369307474584625e-01 3.984882848328596093e-03
4.268551248642354039e+03 8.877065851748890957e-01 3.737215944291243618e-03
4.272819799890998183e+03 9.228447825208782040e-01 3.540708510100768099e-03
4.277092619690890388e+03 9.484253808378264594e-01 3.556121932943831759e-03
4.281369712310583054e+03 9.668774378628627320e-01 3.581115418958414134e-03
4.285651082022895025e+03 9.739907394358346959e-01 3.838464590906107230e-03
4.289936733104918858e+03 9.724393074638950640e-01 3.987773288089232170e-03
4.294226669838025373e+03 9.666190275975344859e-01 3.884355017321059877e-03
4.298520896507864563e+03 9.616423845665833525e-01 3.677145118115754310e-03
4.302819417404373780e+03 9.557503924583456989e-01 3.767851694603220874e-03
4.307122236821779552e+03 9.569308618194097837e-01 3.895373288365702562e-03
4.311429359058603040e+03 9.622656403088473143e-01 4.171685540660568896e-03
4.315740788417662770e+03 9.665989653240669721e-01 4.524358576002278885e-03
4.320056529206081905e+03 9.704931527726636808e-01 4.636981862728214478e-03
4.324376585735290064e+03 9.757458387224905438e-01 4.323198397298847785e-03
4.328700962321026054e+03 9.763035187681990967e-01 4.234470850770461620e-03
4.333029663283348782e+03 9.731373642841495419e-01 4.395861606368862279e-03
4.337362692946633615e+03 9.689575415643179035e-01 4.619492544525739819e-03
4.341700055639581478e+03 9.636962902253296548e-01 4.615005967549139047e-03
4.346041755695222491e+03 9.547401426258375068e-01 4.448576474880142247e-03
4.350387797450919606e+03 9.461233171205507553e-01 4.017966615297903325e-03
4.354738185248371337e+03 9.413795822201678209e-01 3.975025959298435912e-03
4.359092923433621763e+03 9.376990105340609061e-01 3.999421181508668738e-03
4.363452016357056891e+03 9.363991315376795077e-01 3.741895241965992672e-03
4.367815468373414660e+03 9.342614665185143830e-01 3.723119879647113391e-03
4.372183283841789489e+03 9.365550306870200625e-01 3.656628576417641791e-03
4.376555467125633186e+03 9.356970734497358499e-01 3.688973303520250938e-03
4.380932022592760404e+03 9.287867928882550528e-01 3.952707830946450285e-03
4.385312954615354101e+03 9.209634532729299439e-01 3.994006047629838040e-03
4.389698267569970994e+03 9.137235559944044683e-01 3.665009319599253201e-03
4.394087965837542470e+03 9.075709153494764259e-01 3.925987550736790080e-03
4.398482053803381859e+03 8.985511208555094775e-01 3.983872805613701031e-03
4.402880535857186260e+03 8.892913246092281065e-01 3.904455696789638827e-03
4.407283416393044718e+03 8.765634443155485567e-01 3.876538193060870361e-03
4.411690699809440048e+03 8.622047514629215259e-01 3.876348191998669080e-03
4.416102390509250654e+03 8.452750073428170197e-01 3.704588976737984742e-03
4.420518492899761441e+03 8.298477289627458342e-01 3.731525712170701177e-03
4.424939011392662906e+03 8.117153349094794468e-01 3.678320808521728415e-03
4.429363950404056595e+03 7.959268893829645197e-01 3.619856568736284485e-03
4.433793314354462382e+03 7.822707038405138924e-01 3.730034633248467679e-03
4.438227107668818462e+03 7.669225536896326911e-01 3.740736202975697595e-03
4.442665334776488635e+03 7.556166007267270945e-01 3.973628767613330420e-03
4.447108000111265937e+03 7.427403587561705045e-01 3.967633289502745485e-03
4.451555108111379013e+03 7.319405359809486589e-01 3.948003089356389751e-03
4.456006663219492111e+03 7.260071467107144239e-01 3.693513774135117819e-03
4.460462669882713271e+03 7.226041475239501910e-01 3.985382285988148948e-03
4.464923132552597053e+03 7.187409226204255486e-01 3.833373878226400185e-03
4.469388055685150903e+03 7.200123837990599629e-01 3.702554138175436198e-03
4.473857443740837880e+03 7.240253116975710057e-01 3.455598033963053987e-03
4.478331301184580298e+03 7.384942111019161537e-01 3.313957103922836236e-03
4.482809632485766087e+03 7.575131526749903088e-01 3.267370053107971056e-03
4.487292442118253348e+03 7.831731239188313154e-01 3.411067627906289295e-03
4.491779734560373072e+03 8.137050577625860592e-01 3.352600641823124446e-03
4.496271514294934605e+03 8.508601771323777152e-01 3.992100090327110537e-03
4.500767785809231100e+03 8.886578801493668633e-01 3.939100488351916264e-03
4.505268553595042249e+03 9.268254260587821536e-01 3.813348700261931165e-03
4.509773822148638828e+03 9.617838516893364442e-01 3.785982165481752669e-03
4.514283595970789065e+03 9.956001218536976172e-01 3.746456984780270356e-03
4.518797879566761367e+03 1.028805619905147406e+00 3.639703975335650561e-03
4.523316677446328868e+03 1.056010899391045532e+00 3.636306182659562562e-03
4.527839994123776705e+03 1.078823605056673074e+00 3.770717204316201363e-03
4.532367834117902021e+03 1.099986398187727143e+00 3.651309951771386682e-03
4.536900201952022144e+03 1.114946835363228139e+00 3.712726119553716279e-03
4.541437102153975502e+03 1.128162104566992063e+00 4.110859242327604725e-03
4.545978539256130716e+03 1.145863273336049870e+00 4.123635773271378847e-03
