# starting wavelength: 4298.120
# ending wavelength: 7663.890
# wav flux eflux
4.298520896507864563e+03 5.613249673774440840e-01 2.991522578528322263e-01
4.302819417404373780e+03 7.105798208613198774e-01 2.382718742390811661e-01
4.307122236821779552e+03 8.501971684386313566e-01 1.880372449255911516e-01
4.311429359058603040e+03 9.420814737751441736e-01 1.443006620575684185e-01
4.315740788417662770e+03 9.884391939215301237e-01 1.120426400184448418e-01
4.320056529206081905e+03 9.984786564563693512e-01 8.951919736702185215e-02
4.324376585735290064e+03 9.768695558479156826e-01 7.315705444357881171e-02
4.328700962321026054e+03 9.317239810057824645e-01 5.970652308768535643e-02
4.333029663283348782e+03 8.785667823365489459e-01 5.078253632723303546e-02
4.337362692946633615e+03 8.279551527625865770e-01 4.505587157049767422e-02
4.341700055639581478e+03 7.860619450202905867e-01 4.194443723876669500e-02
4.346041755695222491e+03 7.522782156352412208e-01 3.935680366420683807e-02
4.350387797450919606e+03 7.290294762473459311e-01 3.798170768789712465e-02
4.354738185248371337e+03 7.190690933655288219e-01 3.855323669341403914e-02
4.359092923433621763e+03 7.151462017225054257e-01 3.880739270660661655e-02
4.363452016357056891e+03 7.379834123643498334e-01 4.306557395635775276e-02
4.367815468373414660e+03 7.399862450213794407e-01 4.303856586141228263e-02
4.372183283841789489e+03 7.373287283137658354e-01 4.207533963090787782e-02
4.376555467125633186e+03 7.377060698925458349e-01 4.203466911446489263e-02
4.380932022592760404e+03 7.409443548515874944e-01 4.193683904543815677e-02
4.385312954615354101e+03 7.643671394685653819e-01 4.072357866850227770e-02
4.389698267569970994e+03 7.861346653592968803e-01 3.921805912686578133e-02
4.394087965837542470e+03 8.162610128696229372e-01 3.709761917138246906e-02
4.398482053803381859e+03 8.567754041951707311e-01 3.555710969290105938e-02
4.402880535857186260e+03 8.801060057070931864e-01 3.577551238866007177e-02
4.407283416393044718e+03 8.969718080538621185e-01 3.596828730621631082e-02
4.411690699809440048e+03 8.969980763384811651e-01 3.493692490471725365e-02
4.416102390509250654e+03 8.983784936753897998e-01 3.229861303600094213e-02
4.420518492899761441e+03 8.941023462738106886e-01 2.905297976004143912e-02
4.424939011392662906e+03 8.905844846480058807e-01 2.840705756985303226e-02
4.429363950404056595e+03 8.983809321933233782e-01 2.860578485558498002e-02
4.433793314354462382e+03 9.077876755988548707e-01 3.030673590372538057e-02
4.438227107668818462e+03 9.221480840074104401e-01 3.130325069510737218e-02
4.442665334776488635e+03 9.388176280176598887e-01 3.145462449170564889e-02
4.447108000111265937e+03 9.634431896810651264e-01 2.983092148893225215e-02
4.451555108111379013e+03 9.711492877181210348e-01 2.779548100788566817e-02
4.456006663219492111e+03 9.719611169311005439e-01 2.680206777285093489e-02
4.460462669882713271e+03 9.785497961906682862e-01 2.472210446897291775e-02
4.464923132552597053e+03 9.613734337092914028e-01 2.472272310249814045e-02
4.469388055685150903e+03 9.131685336043589007e-01 2.448511363675280259e-02
4.473857443740837880e+03 8.676735199137856069e-01 2.419606073000967264e-02
4.478331301184580298e+03 8.199063872470950809e-01 2.391828326354827547e-02
4.482809632485766087e+03 7.577807897274718707e-01 2.226869584997275692e-02
4.487292442118253348e+03 7.004637437124022759e-01 2.063154031207920999e-02
4.491779734560373072e+03 6.508207958041262176e-01 2.108139422173077940e-02
4.496271514294934605e+03 6.080768205055915310e-01 2.089891328491931891e-02
4.500767785809231100e+03 5.750107926461790475e-01 1.987835657504271811e-02
4.505268553595042249e+03 5.576814847745529269e-01 1.834898252801290056e-02
4.509773822148638828e+03 5.382224070709007435e-01 1.873276028575606225e-02
4.514283595970789065e+03 5.101609387418599706e-01 1.696328371965846391e-02
4.518797879566761367e+03 4.933801809446501374e-01 1.626774203545546318e-02
4.523316677446328868e+03 4.886497172643396447e-01 1.966176356336482231e-02
4.527839994123776705e+03 5.021653333401250308e-01 2.577662926836809740e-02
4.532367834117902021e+03 5.439466250253492952e-01 2.734130087952084745e-02
4.536900201952022144e+03 6.072907533102370747e-01 2.887466460093194784e-02
4.541437102153975502e+03 6.998367360645980639e-01 2.806341709699742420e-02
4.545978539256130716e+03 8.170807662204930821e-01 2.866460532108445688e-02
4.550524517795388419e+03 9.533135155739983491e-01 3.546946595575681260e-02
4.555075042313184895e+03 1.127861104698378636e+00 4.852189134064210929e-02
4.559630117355500261e+03 1.295298176615606645e+00 5.080831360756927345e-02
4.564189747472856652e+03 1.433702142216267683e+00 4.923012667591215169e-02
4.568753937220330954e+03 1.557060326645668624e+00 4.756472519996676751e-02
4.573322691157552981e+03 1.642908800834872673e+00 4.495201675061930024e-02
4.577896013848711846e+03 1.699749349966946932e+00 4.460195785644969352e-02
4.582473909862562323e+03 1.720823302014315548e+00 5.188258300400545170e-02
4.587056383772426670e+03 1.706286647491046971e+00 5.630086332783779818e-02
4.591643440156200086e+03 1.667055317042021256e+00 5.744886049551633372e-02
4.596235083596357981e+03 1.620895575880969330e+00 5.281790976121931297e-02
4.600831318679955984e+03 1.562987602672811560e+00 4.841755772779672562e-02
4.605432149998637215e+03 1.515549810609977621e+00 4.555365678655518002e-02
4.610037582148637739e+03 1.474621322123489398e+00 4.520497950155827338e-02
4.614647619730787483e+03 1.481690973866834238e+00 4.294132460557084641e-02
4.619262267350520233e+03 1.491321635927135958e+00 3.922197180221945884e-02
4.623881529617872729e+03 1.530528946476732655e+00 3.176351350608378615e-02
4.628505411147491941e+03 1.548656387366200482e+00 3.332184358574853678e-02
4.633133916558640522e+03 1.560604262272529796e+00 3.491120954759718148e-02
4.637767050475200449e+03 1.568378388935767420e+00 3.005223582498065676e-02
4.642404817525677572e+03 1.583477442147602776e+00 2.856521454385324219e-02
4.647047222343205249e+03 1.595136423434535544e+00 2.960981037092954085e-02
4.651694269565549803e+03 1.625198614008112941e+00 2.960599004688765912e-02
4.656345963835116891e+03 1.651727564460855779e+00 2.882557116459768046e-02
4.661002309798953320e+03 1.676979595088199826e+00 2.600947974768999527e-02
4.665663312108753416e+03 1.695842625302343976e+00 2.263247087767425447e-02
4.670328975420864481e+03 1.693860564913937994e+00 2.380687260934304453e-02
4.674999304396286789e+03 1.676829200123232555e+00 2.389361873392397556e-02
4.679674303700684504e+03 1.640362331477329905e+00 2.159824039576163993e-02
4.684353978004386590e+03 1.595077638850759927e+00 1.647573266487650442e-02
4.689038331982392265e+03 1.565248407225298122e+00 1.304767272647738841e-02
4.693727370314376458e+03 1.550839332076502375e+00 1.501069383546065408e-02
4.698421097684692540e+03 1.565557312923312905e+00 1.716087553464648932e-02
4.703119518782378691e+03 1.559648786432597856e+00 1.518303740729404563e-02
4.707822638301162442e+03 1.547656078253815792e+00 1.309936828431460670e-02
4.712530460939465229e+03 1.517080153311308299e+00 1.530272955908881273e-02
4.717242991400406027e+03 1.488272082943292274e+00 1.568477270423442038e-02
4.721960234391808626e+03 1.455311579802221811e+00 1.625116973790318581e-02
4.726682194626201635e+03 1.417254052655988028e+00 1.529798948038021619e-02
4.731408876820829391e+03 1.391278800571645657e+00 1.591612881297292323e-02
4.736140285697651962e+03 1.363766306468557676e+00 1.386530050101870103e-02
4.740876425983350600e+03 1.343228935972098581e+00 1.319177778013326530e-02
4.745617302409335934e+03 1.329134396765963677e+00 1.402131932827620567e-02
4.750362919711747054e+03 1.320555933647331148e+00 1.377525068251723647e-02
4.755113282631459697e+03 1.319142538455683411e+00 1.324889349098806735e-02
4.759868395914093526e+03 1.321480175947749691e+00 1.299764382839080183e-02
4.764628264310008490e+03 1.310060624754610936e+00 1.033682142998323603e-02
4.769392892574320285e+03 1.274875131494379366e+00 1.092661042696963132e-02
4.774162285466896719e+03 1.233669230030518760e+00 1.084209492988343244e-02
4.778936447752364984e+03 1.178300267461641848e+00 1.078029273077005246e-02
4.783715384200118933e+03 1.119276636937900138e+00 1.132194888357488695e-02
4.788499099584319993e+03 1.048068234737136839e+00 1.168397832329908133e-02
4.793287598683906253e+03 9.727253668149133947e-01 1.468794174562711684e-02
4.798080886282591564e+03 8.893629357911521094e-01 2.125094301671602570e-02
4.802878967168876443e+03 8.300009522952915830e-01 2.449632861321190264e-02
4.807681846136046261e+03 7.900046593230374281e-01 2.294886833236450471e-02
4.812489527982183972e+03 7.970901732175590393e-01 1.900025078518690486e-02
4.817302017510168298e+03 8.471047397517645905e-01 1.692488575216022709e-02
4.822119319527679181e+03 9.401659910923103602e-01 2.093763906974046782e-02
4.826941438847208701e+03 1.083824514498626046e+00 2.800304045099641023e-02
4.831768380286057436e+03 1.228948497645446114e+00 2.941248634591401082e-02
4.836600148666345376e+03 1.396611024929898637e+00 2.825598947387475759e-02
4.841436748815013743e+03 1.529185343749577708e+00 2.716202488637753376e-02
4.846278185563829538e+03 1.631729422143935126e+00 2.493647225567158926e-02
4.851124463749395545e+03 1.700301450871838149e+00 1.079130864966957801e-02
4.855975588213146693e+03 1.685262258201868812e+00 1.498423349193582846e-02
4.860831563801360971e+03 1.612463597509697477e+00 2.074694017313662500e-02
4.865692395365163975e+03 1.471951333524899930e+00 3.185567745333327955e-02
4.870558087760530725e+03 1.339326454181638315e+00 3.696236781389977688e-02
4.875428645848292945e+03 1.218963487523541112e+00 3.966982324582182806e-02
4.880304074494142696e+03 1.107925027307797849e+00 3.157926668973588119e-02
4.885184378568638749e+03 1.082960036011287874e+00 2.796838174604108357e-02
4.890069562947209306e+03 1.124518816576620228e+00 2.815520932738327375e-02
4.894959632510157462e+03 1.214448313071359475e+00 3.251701483770864237e-02
4.899854592142669389e+03 1.365587591426048908e+00 3.668014517454958046e-02
4.904754446734813428e+03 1.568288861565460657e+00 3.951996209596931459e-02
4.909659201181550088e+03 1.786497115805005809e+00 3.249447139994247891e-02
4.914568860382732964e+03 1.987406694835971432e+00 2.422820881526861758e-02
4.919483429243117826e+03 2.167938992325948000e+00 1.713183187241435618e-02
4.924402912672362618e+03 2.293098643115166979e+00 1.180677890423216352e-02
4.929327315585036558e+03 2.340454247907465479e+00 1.160990550717094089e-02
4.934256642900622865e+03 2.315165705609434355e+00 1.205924164495634360e-02
4.939190899543525120e+03 2.221886849322222357e+00 1.241896927613451995e-02
4.944130090443070912e+03 2.054504391670427754e+00 1.879710525939910434e-02
4.949074220533515472e+03 1.841631577888434679e+00 2.558828736342620355e-02
4.954023294754050767e+03 1.607571018909807581e+00 3.142137477782162153e-02
4.958977318048806410e+03 1.352814605332153697e+00 4.142320694926725222e-02
4.963936295366856939e+03 1.114874124758825413e+00 3.642375628706535917e-02
4.968900231662225451e+03 9.449727457195482572e-01 2.808658815799376304e-02
4.973869131893889062e+03 8.497708614251371362e-01 2.186808846685715790e-02
4.978843001025784361e+03 8.287595204707324248e-01 2.107725242816368277e-02
4.983821844026811959e+03 9.137161718262186705e-01 3.110059430731909255e-02
4.988805665870840130e+03 1.061762562749463790e+00 3.287878634954555929e-02
4.993794471536712990e+03 1.269603919384408197e+00 3.278031252894714198e-02
4.998788266008251412e+03 1.489573142208687084e+00 3.012815054671322268e-02
5.003787054274261209e+03 1.721235887721813906e+00 2.098975435830810476e-02
5.008790841328536771e+03 1.906455446892156180e+00 1.638911469429042353e-02
5.013799632169867436e+03 2.042912644353630292e+00 1.092176267077799370e-02
5.018813431802038394e+03 2.116267734212868401e+00 1.299660198102622552e-02
5.023832245233842514e+03 2.130608321118018011e+00 1.644728898624083294e-02
5.028856077479077612e+03 2.086750443074379735e+00 1.879243254556981282e-02
5.033884933556558281e+03 1.999455786152911196e+00 2.183139601448196368e-02
5.038918818490116792e+03 1.894976209347787988e+00 2.402533591667399895e-02
5.043957737308608557e+03 1.766373742603123631e+00 2.064633315529086979e-02
5.049001695045918495e+03 1.666116456454858730e+00 1.810216440623475462e-02
5.054050696740966487e+03 1.584643550002335699e+00 1.818838751874547396e-02
5.059104747437709193e+03 1.510526544214330302e+00 2.031357884941173766e-02
5.064163852185148244e+03 1.457609760128352860e+00 2.000940279039975164e-02
5.069228016037335692e+03 1.427703406776768436e+00 1.775530258358105212e-02
5.074297244053374015e+03 1.404287928422290666e+00 1.686593434543616488e-02
5.079371541297429758e+03 1.394164425168602950e+00 1.688640011907157831e-02
5.084450912838728073e+03 1.373539332672063296e+00 1.661490415207780499e-02
5.089535363751569093e+03 1.326819641552611673e+00 1.688387433890079989e-02
5.094624899115322478e+03 1.263317742737627203e+00 1.590291554760472209e-02
5.099719524014439230e+03 1.175470620430645541e+00 1.709609670025191014e-02
5.104819243538455339e+03 1.063477785351807370e+00 2.153728523186714330e-02
5.109924062781995417e+03 9.529614505159231808e-01 2.326678628511959224e-02
5.115033986844779065e+03 8.517178277472531311e-01 2.441768455916975764e-02
5.120149020831625421e+03 7.741246241662231853e-01 2.319748420037920020e-02
5.125269169852458617e+03 7.288873548703467264e-01 2.145342905323086372e-02
5.130394439022313236e+03 7.184963102396584311e-01 2.071766278433757186e-02
5.135524833461337039e+03 7.321090284658982039e-01 1.821068989418534248e-02
5.140660358294800062e+03 7.965372952103733084e-01 1.849663548296836060e-02
5.145801018653096435e+03 9.048583941097829708e-01 1.992832362805976518e-02
5.150946819671751655e+03 1.051487902258526175e+00 2.365947840235425870e-02
5.156097766491425318e+03 1.209264406321500340e+00 1.716147640372209585e-02
5.161253864257918394e+03 1.337765388544068346e+00 1.665851884388104900e-02
5.166415118122177773e+03 1.428527354518024595e+00 1.605051536660783221e-02
5.171581533240301724e+03 1.482675431658734944e+00 1.953535698545683444e-02
5.176753114773543530e+03 1.513221587177247640e+00 2.268948631503017732e-02
5.181929867888318768e+03 1.520233317148988572e+00 2.574439218692395337e-02
5.187111797756208944e+03 1.504895556532163781e+00 2.637233868192207648e-02
5.192298909553966951e+03 1.489859251323723877e+00 2.514370292588594472e-02
5.197491208463522526e+03 1.465912077490696630e+00 2.274603277363637308e-02
5.202688699671987706e+03 1.444538313616845038e+00 2.297539172092092144e-02
5.207891388371661378e+03 1.424510820486913909e+00 2.404855747966054905e-02
5.213099279760034733e+03 1.400928856268567335e+00 2.408460145922566506e-02
5.218312379039796724e+03 1.391202947120895317e+00 2.323635432295873687e-02
5.223530691418837705e+03 1.389973924733668875e+00 2.394210750030438886e-02
5.228754222110258524e+03 1.400659312086281805e+00 2.429283029840035787e-02
5.233982976332370527e+03 1.418330775594072390e+00 2.423823963369545198e-02
5.239216959308704645e+03 1.436769561727347044e+00 2.573261877254450977e-02
5.244456176268015042e+03 1.455879814012899454e+00 3.079175219779831801e-02
5.249700632444284565e+03 1.458925671548810143e+00 3.188145328720209254e-02
5.254950333076731113e+03 1.462428278750664390e+00 2.895603163081183345e-02
5.260205283409809454e+03 1.446164365118861372e+00 2.788180177446628050e-02
5.265465488693221232e+03 1.412227591931353832e+00 3.235821663057440734e-02
5.270730954181915877e+03 1.380983556955239777e+00 3.492573652612085411e-02
5.276001685136099695e+03 1.341763296733561095e+00 3.628750364816964169e-02
5.281277686821237694e+03 1.309640945999544615e+00 3.234121335240693063e-02
5.286558964508059944e+03 1.316067809007842815e+00 2.845574784142523850e-02
5.291845523472569766e+03 1.331201213341967726e+00 2.817485812724354957e-02
5.297137368996044643e+03 1.394139761311741665e+00 3.392727847660576002e-02
5.302434506365042580e+03 1.473061915695245805e+00 3.143882094660940818e-02
5.307736940871409388e+03 1.552218447743987539e+00 2.505362821261104128e-02
5.313044677812282316e+03 1.627082234660958582e+00 1.631510572358843905e-02
5.318357722490096421e+03 1.663174713627814549e+00 1.806001102579448195e-02
5.323676080212588204e+03 1.679825110519102882e+00 1.956763090964265886e-02
5.328999756292802886e+03 1.673693673057059073e+00 1.916528849815399976e-02
5.334328756049097137e+03 1.655888845554048805e+00 1.286017196443971396e-02
5.339663084805148173e+03 1.650924194286862878e+00 1.204067746172424874e-02
5.345002747889954662e+03 1.641807174571214167e+00 1.359650399600923626e-02
5.350347750637846730e+03 1.632805872258038749e+00 1.501760740484595937e-02
5.355698098388485960e+03 1.617031644357065368e+00 1.487160766068892567e-02
5.361053796486876308e+03 1.605189314370120579e+00 1.178126630845645513e-02
5.366414850283365013e+03 1.582173031051474110e+00 1.162757969836305562e-02
5.371781265133649867e+03 1.553057450799265382e+00 1.406535224313284517e-02
5.377153046398785591e+03 1.523359117554786257e+00 1.578273291634925066e-02
5.382530199445186554e+03 1.486701259502816175e+00 1.358625045046996105e-02
5.387912729644633146e+03 1.475897450063141658e+00 1.173739390548250543e-02
5.393300642374279960e+03 1.479055080979930992e+00 1.066425283875787298e-02
5.398693943016655794e+03 1.499850371355602396e+00 1.292178659718373410e-02
5.404092636959673655e+03 1.540815041990393652e+00 1.702086613621012212e-02
5.409496729596635305e+03 1.577662255564210136e+00 1.668740957925978624e-02
5.414906226326233991e+03 1.623750331494023369e+00 1.351904909394239553e-02
5.420321132552561721e+03 1.642712295973578263e+00 1.096395932605880551e-02
5.425741453685116539e+03 1.642930512953012068e+00 1.009065860204334808e-02
5.431167195138803436e+03 1.620135000044287343e+00 1.262836190603513174e-02
5.436598362333943442e+03 1.570296677298235188e+00 1.511555809113335723e-02
5.442034960696279086e+03 1.524352828750046296e+00 1.450274262117689714e-02
5.447476995656978033e+03 1.472448619311986784e+00 1.275946486780849161e-02
5.452924472652636723e+03 1.419538725037168270e+00 1.258904856393704835e-02
5.458377397125291282e+03 1.368584184839482187e+00 1.360129922397309253e-02
5.463835774522417523e+03 1.315906008866410737e+00 1.301144537962927762e-02
5.469299610296941864e+03 1.275836312144682072e+00 1.247193135914750201e-02
5.474768909907241323e+03 1.230293821215140637e+00 1.597397715576732297e-02
5.480243678817149885e+03 1.204303780336646312e+00 1.787214390852009949e-02
5.485723922495968509e+03 1.192239724813632051e+00 1.796972440536825227e-02
5.491209646418466946e+03 1.202528384054222910e+00 1.695375429040430620e-02
5.496700856064887375e+03 1.241774675058197497e+00 1.609813465256929380e-02
5.502197556920953502e+03 1.296272699059898725e+00 1.846636620438172477e-02
5.507699754477876013e+03 1.378220036797163761e+00 2.414873139181282838e-02
5.513207454232356213e+03 1.460168543016449938e+00 2.539398773318726765e-02
5.518720661686590574e+03 1.538108587082131606e+00 2.288601931101630349e-02
5.524239382348278923e+03 1.604111765625910957e+00 1.541518567895879335e-02
5.529763621730628984e+03 1.628570448520377356e+00 1.387164647530433198e-02
5.535293385352360929e+03 1.619047988018445405e+00 1.776871505006082791e-02
5.540828678737715563e+03 1.586494280044151051e+00 1.906915212088403783e-02
5.546369507416455235e+03 1.520103054507714768e+00 1.652129778648738639e-02
5.551915876923872929e+03 1.459553287376259334e+00 1.414425875845792477e-02
5.557467792800798634e+03 1.388837342674813957e+00 9.643128602830607424e-03
5.563025260593602070e+03 1.329896331216259497e+00 8.363710071277242683e-03
5.568588285854197238e+03 1.283970916481871338e+00 1.059018068128594545e-02
5.574156874140053333e+03 1.249310031332669046e+00 1.217276040939984337e-02
5.579731031014194741e+03 1.228297017476924990e+00 1.221366958453667072e-02
5.585310762045211050e+03 1.201289975792215081e+00 8.962249058524515352e-03
5.590896072807257951e+03 1.161372526406337036e+00 7.849917068688594401e-03
5.596486968880067252e+03 1.112652551976404336e+00 1.052444955401454774e-02
