# starting wavelength: 3488.830
# ending wavelength: 9195.510
# wav flux eflux
3.491651790619498570e+03 9.203660498875576579e-02 1.002061847689701191e+00
3.495143442410119405e+03 6.179279095254297527e-01 7.371137917816533713e-01
3.498638585852530468e+03 9.815128039224574330e-01 5.512146118849844401e-01
3.502137224438384237e+03 1.211101807072530789e+00 4.235551217362764631e-01
3.505639361662823831e+03 1.374378941560926659e+00 3.305128172870136494e-01
3.509145001024487556e+03 1.475026775461535600e+00 2.645788397356867439e-01
3.512654146025513455e+03 1.545049091964058041e+00 2.151910481947713893e-01
3.516166800171540217e+03 1.584828949498506390e+00 1.774046182410391748e-01
3.519682966971712631e+03 1.603848037163382090e+00 1.508360009972722626e-01
3.523202649938685681e+03 1.615167527094021338e+00 1.310319293205157720e-01
3.526725852588625457e+03 1.617013485853219246e+00 1.153873295275459065e-01
3.530252578441215064e+03 1.600690717834893029e+00 1.043422258751054710e-01
3.533782831019657806e+03 1.588134434605397827e+00 9.587267677201691263e-02
3.537316613850678550e+03 1.582506646250094740e+00 9.040625625541065524e-02
3.540853930464530094e+03 1.563293474288147022e+00 8.533069423874289905e-02
3.544394784394995895e+03 1.528955547657801839e+00 8.107408825235304373e-02
3.547939179179392340e+03 1.484564473757473912e+00 7.810808864186626066e-02
3.551487118358572843e+03 1.450708490649644133e+00 7.542845405105885748e-02
3.555038605476932389e+03 1.413922834033030762e+00 7.331990040720862134e-02
3.558593644082410719e+03 1.377536631887278151e+00 7.305501438523735735e-02
3.562152237726494150e+03 1.362899218529040724e+00 6.999024794861988252e-02
3.565714389964221937e+03 1.340114874244986432e+00 5.812430084902853872e-02
3.569280104354187188e+03 1.286975814532739459e+00 5.565445151021063130e-02
3.572849384458542772e+03 1.243171028782267262e+00 5.453115767884887666e-02
3.576422233843002232e+03 1.161977066574529704e+00 5.120193776144279368e-02
3.579998656076846601e+03 1.113941793399080282e+00 4.947179290565274778e-02
3.583578654732924406e+03 1.061543254587843821e+00 4.855583125807733796e-02
3.587162233387658489e+03 1.041240525111639892e+00 4.556146851232460021e-02
3.590749395621047370e+03 9.977354971784136994e-01 4.306390962414249207e-02
3.594340145016669794e+03 9.590253134585611239e-01 3.771191707060346510e-02
3.597934485161687462e+03 9.300237253773793178e-01 3.775381649689105168e-02
3.601532419646850485e+03 9.192186570462707040e-01 3.768136281431946899e-02
3.605133952066498296e+03 9.094397297788238133e-01 3.656367216127429792e-02
3.608739086018566013e+03 9.265819546013593921e-01 3.227472951001360280e-02
3.612347825104585809e+03 8.985601664818290146e-01 2.771468932077491079e-02
3.615960172929691907e+03 9.047437492650686197e-01 2.678717336062816715e-02
3.619576133102622407e+03 9.038737727317921467e-01 2.613261856277602352e-02
3.623195709235726554e+03 9.095200733934104553e-01 2.492080061276770106e-02
3.626818904944963379e+03 8.946553423852021680e-01 2.463203962241392389e-02
3.630445723849909427e+03 8.947116743817123963e-01 2.251797768052483939e-02
3.634076169573760581e+03 8.811479878446187852e-01 2.221508777851873007e-02
3.637710245743335690e+03 8.652202550588417029e-01 2.226066430494888157e-02
3.641347955989080219e+03 8.366151505788128606e-01 2.189497325998973620e-02
3.644989303945070333e+03 7.964125081766381120e-01 2.089402758760959891e-02
3.648634293249016537e+03 7.700618773857367261e-01 1.995335789931133863e-02
3.652282927542266862e+03 7.379405635727709356e-01 1.993749031421325826e-02
3.655935210469810499e+03 6.964848079535869152e-01 1.926781475326737672e-02
3.659591145680281443e+03 6.464737372907973789e-01 1.672939421281711275e-02
3.663250736825963031e+03 6.268223626309710195e-01 1.522985213831005991e-02
3.666913987562790226e+03 5.910911391382104307e-01 1.402592627163807421e-02
3.670580901550354156e+03 5.590676325816517078e-01 1.280019399500555675e-02
3.674251482451905758e+03 5.380214149437193560e-01 1.140372071993692865e-02
3.677925733934358959e+03 5.394307384218947066e-01 1.103383414654841681e-02
3.681603659668294313e+03 5.418431029769193996e-01 1.061316008057498414e-02
3.685285263327964003e+03 5.582008411198209341e-01 1.044410190847312389e-02
3.688970548591293209e+03 5.781221821168431863e-01 1.005945492490252155e-02
3.692659519139885560e+03 6.167356944244183348e-01 9.820834856975841493e-03
3.696352178659026777e+03 6.579283074014827815e-01 1.024535315607848392e-02
3.700048530837686940e+03 7.005774450194564018e-01 1.039250827581137716e-02
3.703748579368525952e+03 7.535639641158661250e-01 1.091396624442823697e-02
3.707452327947895355e+03 8.084883188320186598e-01 1.079112400446258918e-02
3.711159780275844696e+03 8.653811452150038663e-01 1.092882706846264908e-02
3.714870940056121526e+03 9.178270398307554201e-01 1.043522797224179406e-02
3.718585810996179134e+03 9.659973851019003632e-01 1.003262816572153895e-02
3.722304396807176545e+03 1.009181267205394805e+00 8.213418291185351980e-03
3.726026701203984885e+03 1.035436912915892016e+00 8.483436241567773178e-03
3.729752727905190113e+03 1.053355345085687622e+00 8.968440601179973257e-03
3.733482480633096657e+03 1.071915372689408841e+00 8.851877342782234204e-03
3.737215963113731050e+03 1.079141620244381983e+00 9.849680274697968779e-03
3.740953179076846027e+03 1.076269733625630831e+00 1.074909777863089673e-02
3.744694132255923705e+03 1.065412052422281652e+00 1.063826482721061222e-02
3.748438826388181042e+03 1.052931319721450487e+00 1.032659841010988809e-02
3.752187265214570289e+03 1.040674435859641367e+00 9.000377047465420860e-03
3.755939452479786269e+03 1.032558933031898274e+00 7.951602543205064585e-03
3.759695391932267285e+03 1.028454444490521702e+00 7.668173143610962882e-03
3.763455087324201031e+03 1.025810940934600790e+00 7.372013758385794445e-03
3.767218542411526414e+03 1.030393341702837695e+00 8.180978052457720667e-03
3.770985760953939007e+03 1.037883547221109426e+00 8.619915338050659209e-03
3.774756746714894234e+03 1.044226883777713111e+00 9.585529338679838265e-03
3.778531503461610555e+03 1.054008572743026173e+00 1.004789774706474001e-02
3.782310034965073100e+03 1.054884344428464571e+00 9.978795222038989998e-03
3.786092345000039586e+03 1.051194369274174534e+00 8.907087720553137286e-03
3.789878437345040766e+03 1.036902257664630955e+00 7.953040029824305981e-03
3.793668315782387253e+03 1.014846115531516046e+00 6.773296014739005853e-03
3.797461984098170888e+03 9.782899300100397211e-01 7.094161224486246302e-03
3.801259446082270188e+03 9.300762532519839532e-01 7.796358503195225699e-03
3.805060705528353537e+03 8.727654101297459555e-01 8.354432924660563572e-03
3.808865766233883278e+03 8.063668154451706371e-01 8.844435801838697320e-03
3.812674632000118436e+03 7.347569388894169551e-01 8.321704001016488189e-03
3.816487306632119726e+03 6.565269729663677500e-01 7.136173684190318979e-03
3.820303793938753188e+03 5.838264276501587968e-01 6.580660747461069930e-03
3.824124097732693372e+03 5.178460342697330798e-01 6.233198097062546059e-03
3.827948221830427428e+03 4.564469466122458297e-01 5.374505070350811889e-03
3.831776170052258749e+03 4.048798067168334347e-01 5.211845203264625290e-03
3.835607946222312421e+03 3.614149516329767664e-01 5.287405634251201268e-03
3.839443554168536139e+03 3.304859530411049517e-01 5.216025651254591056e-03
3.843282997722705659e+03 3.101814992535300575e-01 5.180505454628723735e-03
3.847126280720429804e+03 2.965522813642117450e-01 5.513797994556812743e-03
3.850973407001151372e+03 2.907968631786663760e-01 5.211928134218559230e-03
3.854824380408153957e+03 2.917600443829239665e-01 4.673871304411726310e-03
3.858679204788563311e+03 2.946704289974679813e-01 4.106875684901767527e-03
3.862537883993353262e+03 3.019673162793635735e-01 3.397250937101167160e-03
3.866400421877347981e+03 3.063155330743008165e-01 3.847132634663347119e-03
3.870266822299226533e+03 3.138073002453168892e-01 4.715588382879485653e-03
3.874137089121526969e+03 3.228317490160423908e-01 5.037509999194351301e-03
3.878011226210649966e+03 3.380229615362632667e-01 5.755603293425354955e-03
3.881889237436861549e+03 3.626794823589615246e-01 5.943754331925646568e-03
3.885771126674299921e+03 3.934944154181585496e-01 5.626225718021464657e-03
3.889656897800975457e+03 4.351829250665132376e-01 5.332170702460158410e-03
3.893546554698777527e+03 4.864145826286996321e-01 5.765592215379234352e-03
3.897440101253477678e+03 5.423501674352767532e-01 5.950262048314561986e-03
3.901337541354732366e+03 6.051367783575171133e-01 6.927470818822214702e-03
3.905238878896088409e+03 6.744407330782750121e-01 7.335517172107631698e-03
3.909144117774985716e+03 7.431336443304291661e-01 7.151904621262486494e-03
3.913053261892762293e+03 8.093912685145259189e-01 6.476727637145032745e-03
3.916966315154656058e+03 8.677332854408237317e-01 5.824548179914818859e-03
3.920883281469812118e+03 9.172893971398445867e-01 5.542555979920778426e-03
3.924804164751283224e+03 9.590931396064583669e-01 5.398030387248085871e-03
3.928728968916035683e+03 9.907233103431395405e-01 5.563467143397825623e-03
3.932657697884953450e+03 1.009878342844908516e+00 6.026846024285612349e-03
3.936590355582839493e+03 1.018136340572612042e+00 5.642895648431300176e-03
3.940526945938423523e+03 1.020259214851040319e+00 5.408445127216780085e-03
3.944467472884363360e+03 1.019622010200863738e+00 4.528710873390360062e-03
3.948411940357249023e+03 1.020028315268230124e+00 3.962087740765399962e-03
3.952360352297607733e+03 1.022717037480859847e+00 4.073595312281055349e-03
3.956312712649906643e+03 1.025094876296070323e+00 4.123490891925052533e-03
3.960269025362557841e+03 1.029934536838988057e+00 3.962901426789584153e-03
3.964229294387921527e+03 1.036956453943587819e+00 3.946406592023138371e-03
3.968193523682310570e+03 1.040824891693957976e+00 3.811710327962792612e-03
3.972161717205994591e+03 1.045566067212054584e+00 3.863393206932735826e-03
3.976133878923201792e+03 1.047087233906713433e+00 3.815247178149750937e-03
3.980110012802126221e+03 1.047538740203002527e+00 3.648793880975249784e-03
3.984090122814929600e+03 1.046041694354082896e+00 3.683974183560838854e-03
3.988074212937745870e+03 1.041106962361874722e+00 3.384696094876563175e-03
3.992062287150684824e+03 1.039191742324633960e+00 3.469383017811041199e-03
3.996054349437837118e+03 1.035619399240881089e+00 3.586888672228391323e-03
4.000050403787276082e+03 1.031147458892822444e+00 3.752474300874130732e-03
4.004050454191064546e+03 1.024724054544632335e+00 3.716817394301684917e-03
4.008054504645257111e+03 1.013829845583118283e+00 3.829643021847815420e-03
4.012062559149903791e+03 1.001875396336797452e+00 4.200835595952685624e-03
4.016074621709055009e+03 9.946055699785083526e-01 4.149280692734494749e-03
4.020090696330765240e+03 9.859853038183412632e-01 4.627009509520097624e-03
4.024110787027097558e+03 9.802049786750637317e-01 4.607756582161006212e-03
4.028134897814125907e+03 9.808958559206772954e-01 4.023258208856385354e-03
4.032163032711941469e+03 9.878270368439647786e-01 3.864698247786100410e-03
4.036195195744654484e+03 1.005232387247929848e+00 4.405024075510839340e-03
4.040231390940400615e+03 1.025238466323427744e+00 4.753698414463131128e-03
4.044271622331342314e+03 1.048549541386559536e+00 5.102470098178521311e-03
4.048315893953675186e+03 1.074617201547177769e+00 4.700982417822090545e-03
4.052364209847629809e+03 1.100297335341427152e+00 4.586443995899152151e-03
4.056416574057479011e+03 1.122018432338895977e+00 3.126624520270492643e-03
4.060472990631537868e+03 1.133685721159469972e+00 2.685557958951146663e-03
4.064533463622170530e+03 1.131583011008648665e+00 2.558600938614541843e-03
4.068597997085794304e+03 1.118296109865520860e+00 2.647132577397197286e-03
4.072666595082881486e+03 1.095286486635637546e+00 2.452981306091585583e-03
4.076739261677965715e+03 1.063528506942306828e+00 2.534961760885180021e-03
4.080816000939644709e+03 1.024819795142149381e+00 3.029124658210727468e-03
4.084896816940585722e+03 9.829997525015804483e-01 3.812524000291223937e-03
4.088981713757527814e+03 9.428181780728164263e-01 3.783646656832213937e-03
4.093070695471286854e+03 9.062285146647615086e-01 3.585302963502712357e-03
4.097163766166759160e+03 8.807067100835297424e-01 3.520808563173279549e-03
4.101260929932927866e+03 8.633009910440307966e-01 3.222299323420621531e-03
4.105362190862862008e+03 8.561881168307671208e-01 3.235220104276811601e-03
4.109467553053726078e+03 8.629590777703558535e-01 4.022893277517129544e-03
4.113577020606780934e+03 8.761119757259865359e-01 4.521957811061744735e-03
4.117690597627389252e+03 8.965331153970356182e-01 3.967934962974402693e-03
4.121808288225018259e+03 9.173598284656931945e-01 3.984114335419217112e-03
4.125930096513244280e+03 9.340548666967823932e-01 3.280393331201277712e-03
4.130056026609759101e+03 9.421515691437174489e-01 3.015854577435986717e-03
4.134186082636369974e+03 9.428296639333194618e-01 2.880043301376983365e-03
4.138320268719007800e+03 9.343940521810450983e-01 2.943783592722552626e-03
4.142458588987728035e+03 9.140350103501921897e-01 3.361905637932159022e-03
4.146601047576717065e+03 8.880989840816817527e-01 3.245167461795329597e-03
4.150747648624294925e+03 8.590041402125072612e-01 3.480941169271610167e-03
4.154898396272920763e+03 8.278336231653015131e-01 3.399954716894957631e-03
4.159053294669195566e+03 7.979286504424805138e-01 3.058891467484479293e-03
4.163212347963865795e+03 7.731895997702756818e-01 2.621666218009959838e-03
4.167375560311830668e+03 7.557428320606045524e-01 3.014721196084642601e-03
4.171542935872143971e+03 7.404334003302832645e-01 3.285291640388516600e-03
4.175714478808017702e+03 7.308679967980716841e-01 3.339686759636864392e-03
4.179890193286827525e+03 7.178516323670168786e-01 3.241904188071382132e-03
4.184070083480115500e+03 7.028777480522102605e-01 3.181876406611921365e-03
4.188254153563597356e+03 6.868648292367564023e-01 2.467457008853983676e-03
4.192442407717161586e+03 6.635353988925483115e-01 2.534942966825120061e-03
4.196634850124880359e+03 6.359083445318454153e-01 2.662509317297038439e-03
4.200831484975006788e+03 6.043802079556126472e-01 2.877814071147280148e-03
4.205032316459983122e+03 5.692182679833053260e-01 2.739383619645765003e-03
4.209237348776444378e+03 5.327422777642506491e-01 2.319726314208936033e-03
4.213446586125221984e+03 4.980788055025173744e-01 1.810717485643832756e-03
4.217660032711349231e+03 4.687134330380280933e-01 1.813568882383251746e-03
4.221877692744061278e+03 4.453717814784416973e-01 1.861826629972896784e-03
4.226099570436806971e+03 4.279205167679570043e-01 1.895431824199074163e-03
4.230325670007245208e+03 4.169308901028136449e-01 1.833625506112558732e-03
4.234555995677254032e+03 4.091639502274641016e-01 1.729242098837773661e-03
4.238790551672932452e+03 4.046188354134484522e-01 1.719754375309887106e-03
4.243029342224606808e+03 4.053778029773068003e-01 1.763882600396901286e-03
4.247272371566832589e+03 4.103456129700289723e-01 2.054415887999874995e-03
4.251519643938400804e+03 4.203745930589393720e-01 2.310158467938641484e-03
4.255771163582340705e+03 4.368690959952336583e-01 2.396079811879472683e-03
4.260026934745924336e+03 4.608342244989934167e-01 2.355100083776868417e-03
4.264286961680671993e+03 4.900994449829015331e-01 2.471271799611159548e-03
4.268551248642354039e+03 5.249293515567133861e-01 3.030792791857125478e-03
4.272819799890998183e+03 5.608301721578871080e-01 3.495388389129619033e-03
4.277092619690890388e+03 5.957849706900348874e-01 3.602976073752634997e-03
4.281369712310583054e+03 6.254408448730621739e-01 3.121910117419945171e-03
4.285651082022895025e+03 6.488331231600437121e-01 2.555972894069991758e-03
4.289936733104918858e+03 6.634075333458400170e-01 2.270793519808253415e-03
4.294226669838025373e+03 6.680135744199738879e-01 2.523595292421530138e-03
4.298520896507864563e+03 6.611011095112497848e-01 3.316975692189041112e-03
4.302819417404373780e+03 6.513893427116026480e-01 2.987464068167595705e-03
4.307122236821779552e+03 6.370594043520302341e-01 2.486987829949040881e-03
4.311429359058603040e+03 6.234505657024870251e-01 2.185203422993130251e-03
4.315740788417662770e+03 6.122673811431507129e-01 1.951085668291177794e-03
4.320056529206081905e+03 6.051059083928309601e-01 1.855792551304958488e-03
4.324376585735290064e+03 6.037060613287973387e-01 1.921778908856624363e-03
4.328700962321026054e+03 6.068748776063755956e-01 2.249287697629862720e-03
4.333029663283348782e+03 6.118413321716570374e-01 2.131286106708886116e-03
4.337362692946633615e+03 6.185304556666503251e-01 2.231506254998895985e-03
4.341700055639581478e+03 6.264292403552057520e-01 1.878990952999022015e-03
4.346041755695222491e+03 6.308042707622665279e-01 1.843302069481764748e-03
4.350387797450919606e+03 6.347201305387220049e-01 1.808914189770880442e-03
4.354738185248371337e+03 6.369958266655160184e-01 1.795527561138294788e-03
4.359092923433621763e+03 6.372591753762327782e-01 1.777786237161786036e-03
4.363452016357056891e+03 6.326134826815718037e-01 2.241976813373303297e-03
4.367815468373414660e+03 6.299170006534785538e-01 2.333224112381692555e-03
4.372183283841789489e+03 6.278801152327684321e-01 2.161502819128037142e-03
4.376555467125633186e+03 6.282500064013885055e-01 2.179166795586987958e-03
4.380932022592760404e+03 6.287861866500316088e-01 2.016816431495495852e-03
4.385312954615354101e+03 6.328657574246925321e-01 1.923412004750187651e-03
4.389698267569970994e+03 6.376222827512340041e-01 1.925785098245531238e-03
4.394087965837542470e+03 6.411438338671360260e-01 1.901818426774745750e-03
4.398482053803381859e+03 6.431526800294933288e-01 1.900304457378425510e-03
4.402880535857186260e+03 6.430082551295953630e-01 1.788417315372665527e-03
4.407283416393044718e+03 6.397120145713135475e-01 1.793545284499701046e-03
4.411690699809440048e+03 6.337744698926475184e-01 1.953902959557469055e-03
4.416102390509250654e+03 6.250934477210183804e-01 1.916253652934820934e-03
4.420518492899761441e+03 6.163024413788260603e-01 1.895674860328697142e-03
4.424939011392662906e+03 6.062779590220760406e-01 1.930929460030770921e-03
4.429363950404056595e+03 5.940342868490622319e-01 1.926610273236446964e-03
4.433793314354462382e+03 5.801227421113281935e-01 1.825374611654630858e-03
4.438227107668818462e+03 5.680968945538342751e-01 1.672696583023793081e-03
4.442665334776488635e+03 5.563158977005333572e-01 1.534610013918626722e-03
4.447108000111265937e+03 5.418142443180848922e-01 1.563555868250689554e-03
4.451555108111379013e+03 5.271021293756871229e-01 1.531231913613818147e-03
4.456006663219492111e+03 5.148256618627566894e-01 1.498968057852869892e-03
4.460462669882713271e+03 5.025580008850673019e-01 1.575864982706445469e-03
4.464923132552597053e+03 4.930913298053707927e-01 1.429006842777079704e-03
4.469388055685150903e+03 4.863806262622256682e-01 1.411139867649625164e-03
4.473857443740837880e+03 4.851133924544756004e-01 1.481852799167389682e-03
4.478331301184580298e+03 4.884781290876181181e-01 1.575199182593315468e-03
4.482809632485766087e+03 4.956853561565497945e-01 1.657734033211341563e-03
4.487292442118253348e+03 5.065639860497703761e-01 1.944483665282674325e-03
4.491779734560373072e+03 5.249204320676345015e-01 1.986560871131662961e-03
4.496271514294934605e+03 5.486372777872288165e-01 1.880780206429523947e-03
4.500767785809231100e+03 5.778808889314726027e-01 1.833113060117018498e-03
4.505268553595042249e+03 6.134144043928068113e-01 1.852558166510140771e-03
4.509773822148638828e+03 6.561883915718083049e-01 2.268831010807802803e-03
4.514283595970789065e+03 7.006851491215179140e-01 2.347913094717627921e-03
4.518797879566761367e+03 7.465827057420225676e-01 2.592162408014848755e-03
4.523316677446328868e+03 7.922351501303255272e-01 2.631341688910898528e-03
4.527839994123776705e+03 8.334118938140573363e-01 2.299327556044302931e-03
4.532367834117902021e+03 8.696212049510966269e-01 2.141932977348872443e-03
4.536900201952022144e+03 8.983331016736002539e-01 2.421134829507762525e-03
4.541437102153975502e+03 9.215526986197640769e-01 2.693671352367151862e-03
4.545978539256130716e+03 9.378512652146882012e-01 2.742770556168137863e-03
