# starting wavelength: 4018.640
# ending wavelength: 6397.020
# wav flux eflux
4.020090696330765240e+03 1.063540781206123498e+00 5.578955702067649458e-01
4.024110787027097558e+03 1.081310124219241997e+00 4.111921569792908460e-01
4.028134897814125907e+03 1.063984566217158312e+00 3.049489093994663391e-01
4.032163032711941469e+03 1.035181270838811285e+00 2.339667572938069762e-01
4.036195195744654484e+03 1.002711156676298065e+00 1.801298833347630135e-01
4.040231390940400615e+03 9.687039796802574543e-01 1.415319688130956821e-01
4.044271622331342314e+03 9.358138317136984741e-01 1.162967840353930499e-01
4.048315893953675186e+03 8.978394728858568596e-01 1.016094314760004197e-01
4.052364209847629809e+03 8.829569515865289819e-01 8.583105395751230993e-02
4.056416574057479011e+03 8.703764369352102737e-01 7.484608006582829653e-02
4.060472990631537868e+03 8.858708379040172165e-01 6.682200753081378453e-02
4.064533463622170530e+03 9.141381751732893246e-01 6.101735389994802916e-02
4.068597997085794304e+03 9.462520560254702451e-01 5.611524398105681433e-02
4.072666595082881486e+03 9.934081286885806383e-01 5.301082552538362302e-02
4.076739261677965715e+03 1.061322059048916522e+00 5.339822018020323746e-02
4.080816000939644709e+03 1.109849514964150963e+00 5.244837226894204230e-02
4.084896816940585722e+03 1.153034077320072015e+00 5.131762868354854124e-02
4.088981713757527814e+03 1.174706537691765362e+00 5.043089705917707527e-02
4.093070695471286854e+03 1.204026198052673191e+00 4.960173644497538337e-02
4.097163766166759160e+03 1.215328316959283006e+00 5.072523722034386756e-02
4.101260929932927866e+03 1.239099130602303145e+00 5.146487380856142740e-02
4.105362190862862008e+03 1.231748373013886511e+00 5.350887294395147847e-02
4.109467553053726078e+03 1.207568294368414508e+00 5.483642396397199470e-02
4.113577020606780934e+03 1.190255492530147174e+00 5.416611077174435240e-02
4.117690597627389252e+03 1.187668352065541333e+00 5.442588911181775457e-02
4.121808288225018259e+03 1.164629784832325043e+00 5.538420364955810166e-02
4.125930096513244280e+03 1.138844815813647937e+00 5.198769762112482457e-02
4.130056026609759101e+03 1.107454393349664779e+00 5.091250104031937174e-02
4.134186082636369974e+03 1.073096522086207205e+00 4.728423399131312377e-02
4.138320268719007800e+03 1.062931701226748071e+00 4.678792539869509187e-02
4.142458588987728035e+03 1.092331093650855678e+00 4.681244919435054858e-02
4.146601047576717065e+03 1.103914931671053701e+00 4.777073486825716281e-02
4.150747648624294925e+03 1.135778514755793278e+00 4.665523381411132431e-02
4.154898396272920763e+03 1.149404977598786237e+00 4.610035006450011186e-02
4.159053294669195566e+03 1.160070608246777324e+00 4.360272051997406834e-02
4.163212347963865795e+03 1.165114786579946937e+00 4.230671704193093852e-02
4.167375560311830668e+03 1.154243309409969109e+00 4.229608555555908200e-02
4.171542935872143971e+03 1.124916582837965251e+00 4.304001163946212516e-02
4.175714478808017702e+03 1.094153135368861829e+00 4.381180282748672883e-02
4.179890193286827525e+03 1.050414983258206369e+00 4.278689006040806847e-02
4.184070083480115500e+03 9.755369497510810728e-01 3.572242226156809031e-02
4.188254153563597356e+03 9.446822018305329749e-01 3.492524732114862807e-02
4.192442407717161586e+03 9.204427693320530457e-01 3.352835871689197750e-02
4.196634850124880359e+03 9.281913004519198873e-01 3.439828642328979225e-02
4.200831484975006788e+03 9.310865327131451208e-01 3.626846388653492265e-02
4.205032316459983122e+03 9.298707852348359060e-01 3.532478770098650134e-02
4.209237348776444378e+03 9.324723560517910181e-01 3.354098496666332169e-02
4.213446586125221984e+03 9.357968527062223707e-01 3.398074009351314401e-02
4.217660032711349231e+03 9.364437923010640041e-01 3.218836358892772365e-02
4.221877692744061278e+03 9.206034313904758459e-01 3.076116771264375549e-02
4.226099570436806971e+03 8.889256561294289760e-01 3.055059461550568845e-02
4.230325670007245208e+03 8.313953524283526075e-01 3.146906945000795680e-02
4.234555995677254032e+03 7.654081976131975606e-01 3.080722668984260323e-02
4.238790551672932452e+03 6.675040230970257227e-01 2.512339912723904334e-02
4.243029342224606808e+03 6.032547779349826111e-01 2.533178704129075004e-02
4.247272371566832589e+03 5.447910180059690743e-01 2.559839247762105488e-02
4.251519643938400804e+03 4.969836181685343135e-01 2.617474894790918286e-02
4.255771163582340705e+03 4.660644892517283866e-01 2.570514971185678885e-02
4.260026934745924336e+03 4.392479041173369958e-01 2.560540842847480389e-02
4.264286961680671993e+03 4.305744993040793722e-01 2.416323545779381840e-02
4.268551248642354039e+03 4.413627380053636307e-01 2.400418339022919109e-02
4.272819799890998183e+03 4.485777005459909428e-01 2.219335669900237423e-02
4.277092619690890388e+03 4.833730316542812488e-01 2.243012026126625647e-02
4.281369712310583054e+03 5.342765193427101433e-01 2.226443280831950922e-02
4.285651082022895025e+03 6.061935706849486127e-01 2.189069296183955918e-02
4.289936733104918858e+03 6.912878994145622569e-01 2.108597767024356778e-02
4.294226669838025373e+03 7.763078537345586838e-01 2.119730138420917315e-02
4.298520896507864563e+03 8.554993012873727265e-01 2.202443299238715860e-02
4.302819417404373780e+03 9.366186379738277168e-01 2.023705483230262697e-02
4.307122236821779552e+03 1.005553125532247627e+00 1.806773498005875486e-02
4.311429359058603040e+03 1.057233985582074709e+00 1.679856649870138663e-02
4.315740788417662770e+03 1.064359568730048444e+00 1.824184614429981421e-02
4.320056529206081905e+03 1.049148545488619577e+00 2.105616686957180114e-02
4.324376585735290064e+03 1.019984280918054820e+00 2.186052856979212727e-02
4.328700962321026054e+03 9.933186709401996550e-01 2.200055485522302637e-02
4.333029663283348782e+03 9.679098081921111429e-01 1.964975919851326067e-02
4.337362692946633615e+03 9.481370411466853998e-01 1.891697362776736252e-02
4.341700055639581478e+03 9.313296800812271847e-01 1.911224078906316806e-02
4.346041755695222491e+03 9.550320610573650448e-01 2.187659475514782889e-02
4.350387797450919606e+03 9.859074861930473554e-01 2.312738046899735778e-02
4.354738185248371337e+03 1.016569953067301801e+00 2.260916635369724162e-02
4.359092923433621763e+03 1.040568788891847340e+00 2.130987509728756238e-02
4.363452016357056891e+03 1.061191119322097531e+00 1.945273565000861168e-02
4.367815468373414660e+03 1.064408679839620397e+00 1.906153183439801210e-02
4.372183283841789489e+03 1.056829561035805831e+00 1.900108946767349941e-02
4.376555467125633186e+03 1.040585115894218093e+00 1.901190342561415517e-02
4.380932022592760404e+03 1.015830718636436814e+00 1.922217220240376306e-02
4.385312954615354101e+03 9.836540308186563220e-01 1.847468958732346317e-02
4.389698267569970994e+03 9.718059418928153281e-01 1.799077340576988107e-02
4.394087965837542470e+03 9.738083757373429128e-01 1.670139482772822412e-02
4.398482053803381859e+03 9.684356187892010359e-01 1.623358655758968747e-02
4.402880535857186260e+03 9.724790066715022219e-01 1.571274927904665192e-02
4.407283416393044718e+03 9.871840313016151391e-01 1.632790519157531137e-02
4.411690699809440048e+03 1.001787008622808228e+00 1.585108088633414500e-02
4.416102390509250654e+03 1.018182222555854999e+00 1.493230734639076386e-02
4.420518492899761441e+03 1.023555047970864162e+00 1.410064379007726527e-02
4.424939011392662906e+03 1.003082984670752964e+00 1.336157130606035505e-02
4.429363950404056595e+03 9.869454964409534181e-01 1.218787994270284503e-02
4.433793314354462382e+03 9.657905896761591613e-01 1.186674983899373322e-02
4.438227107668818462e+03 9.299048838957789664e-01 1.155345242181158097e-02
4.442665334776488635e+03 8.924539496981939157e-01 1.148418438970597727e-02
4.447108000111265937e+03 8.540713858251862689e-01 1.112056141832409341e-02
4.451555108111379013e+03 8.279443207624097578e-01 1.150588026936415730e-02
4.456006663219492111e+03 8.041063210461538713e-01 1.194306370256722691e-02
4.460462669882713271e+03 7.803074671009140317e-01 1.153200866411797400e-02
4.464923132552597053e+03 7.614350771148344910e-01 1.161072326383310455e-02
4.469388055685150903e+03 7.366029752043986578e-01 1.145800842924497680e-02
4.473857443740837880e+03 7.242560939821143240e-01 9.733299983563648006e-03
4.478331301184580298e+03 7.099415458330045059e-01 1.001775461658380509e-02
4.482809632485766087e+03 7.032345862927577018e-01 1.052177885084320391e-02
4.487292442118253348e+03 6.949459443413759097e-01 1.053443555919559606e-02
4.491779734560373072e+03 6.944846773386545991e-01 1.085882382689028029e-02
4.496271514294934605e+03 6.947475195995970187e-01 1.064543356797762949e-02
4.500767785809231100e+03 7.010663257099755130e-01 1.068710343611511092e-02
4.505268553595042249e+03 7.094301669642456565e-01 1.126088590256472260e-02
4.509773822148638828e+03 7.277315029192263918e-01 1.284550907711305527e-02
4.514283595970789065e+03 7.697291041601792561e-01 1.284355266061458674e-02
4.518797879566761367e+03 8.243026303545876177e-01 1.266827454191283078e-02
4.523316677446328868e+03 8.875466427968590200e-01 1.427825835209396016e-02
4.527839994123776705e+03 9.568516915298318493e-01 1.450382628041986185e-02
4.532367834117902021e+03 1.019435035397054268e+00 1.463978456341998545e-02
4.536900201952022144e+03 1.095973556918539371e+00 1.475944344180353703e-02
4.541437102153975502e+03 1.158653736621834796e+00 1.392993593698606605e-02
4.545978539256130716e+03 1.191389080546547463e+00 1.502103641014946277e-02
4.550524517795388419e+03 1.225507706915847761e+00 1.510570507659925177e-02
4.555075042313184895e+03 1.237187102773111169e+00 1.544691311596893026e-02
4.559630117355500261e+03 1.233737801440246917e+00 1.612008277597928516e-02
4.564189747472856652e+03 1.220708423215661975e+00 1.495361512876773949e-02
4.568753937220330954e+03 1.219969341291170295e+00 1.470958066239638935e-02
4.573322691157552981e+03 1.212957116521071965e+00 1.383518278177661882e-02
4.577896013848711846e+03 1.222382714761907740e+00 1.519056745739012955e-02
4.582473909862562323e+03 1.230916563816241815e+00 1.446334514744829908e-02
4.587056383772426670e+03 1.237725526549078969e+00 1.432964378777935519e-02
4.591643440156200086e+03 1.247169786846298978e+00 1.351061280994765926e-02
4.596235083596357981e+03 1.249831043763299343e+00 1.327670207951301209e-02
4.600831318679955984e+03 1.243284286144514583e+00 1.273114322087600878e-02
4.605432149998637215e+03 1.238886841604248001e+00 1.269661084756963654e-02
4.610037582148637739e+03 1.237485562959084184e+00 1.265815306793061264e-02
4.614647619730787483e+03 1.235019812289201546e+00 1.204715048112169583e-02
4.619262267350520233e+03 1.229542135809682524e+00 1.181947015370252499e-02
4.623881529617872729e+03 1.233291622207818738e+00 1.131243887793269981e-02
4.628505411147491941e+03 1.235112681326672179e+00 1.108560260426770354e-02
4.633133916558640522e+03 1.238579426853557264e+00 1.093598773754494990e-02
4.637767050475200449e+03 1.243237890791203171e+00 1.008291514360009668e-02
4.642404817525677572e+03 1.241873642768880570e+00 8.698118454381814635e-03
4.647047222343205249e+03 1.230682126753823269e+00 8.758240578933733020e-03
4.651694269565549803e+03 1.215866276206503782e+00 8.951439517220169742e-03
4.656345963835116891e+03 1.198358164597380870e+00 9.136049041559365577e-03
4.661002309798953320e+03 1.189665203868103927e+00 9.166384341752806253e-03
4.665663312108753416e+03 1.181870730741345410e+00 8.617458962999683184e-03
4.670328975420864481e+03 1.168050894329929479e+00 8.363021956781690330e-03
4.674999304396286789e+03 1.157421169265182792e+00 8.275971776172071082e-03
4.679674303700684504e+03 1.142460811891173877e+00 8.156617515444736927e-03
4.684353978004386590e+03 1.122276694251753026e+00 8.104762674330747221e-03
4.689038331982392265e+03 1.095499412865664102e+00 8.641987930503684801e-03
4.693727370314376458e+03 1.070672430302704203e+00 8.713035900098494921e-03
4.698421097684692540e+03 1.047341415413720611e+00 8.733264388315878715e-03
4.703119518782378691e+03 1.020251472052797759e+00 8.825000839057749874e-03
4.707822638301162442e+03 9.919731986173865312e-01 8.416052251282347615e-03
4.712530460939465229e+03 9.600364511310216509e-01 8.071571957403662900e-03
4.717242991400406027e+03 9.351929131699291409e-01 8.406945662340481809e-03
4.721960234391808626e+03 9.105528636366509998e-01 8.323727256895742041e-03
4.726682194626201635e+03 8.886850681363279714e-01 8.208939109973199116e-03
4.731408876820829391e+03 8.572685077569388579e-01 8.111048215595148547e-03
4.736140285697651962e+03 8.240082980129334045e-01 7.792539183644083683e-03
4.740876425983350600e+03 7.741835619856559658e-01 8.067728989843366699e-03
4.745617302409335934e+03 7.228107845687139488e-01 8.099380177077116633e-03
4.750362919711747054e+03 6.703616831416128186e-01 7.753923844331783548e-03
4.755113282631459697e+03 6.105177329969818656e-01 7.603091994233739798e-03
4.759868395914093526e+03 5.512167675407956269e-01 7.480688118931344902e-03
4.764628264310008490e+03 4.879396121287044030e-01 1.137588824310723119e-02
4.769392892574320285e+03 4.434738730141010721e-01 1.243904146130841645e-02
4.774162285466896719e+03 4.212822559325582472e-01 1.290411785889574413e-02
4.778936447752364984e+03 4.257637671219267061e-01 1.089386962140373449e-02
4.783715384200118933e+03 4.694799602232262448e-01 1.017674260237044076e-02
4.788499099584319993e+03 5.481715587221778208e-01 1.057009559113593344e-02
4.793287598683906253e+03 6.626991613900348188e-01 1.187591648689182398e-02
4.798080886282591564e+03 7.963975331968405902e-01 1.337068839494641274e-02
4.802878967168876443e+03 9.473761857216521642e-01 1.362958340666431054e-02
4.807681846136046261e+03 1.103019915905985249e+00 1.212842957118467381e-02
4.812489527982183972e+03 1.248301192667591764e+00 1.140407794747307080e-02
4.817302017510168298e+03 1.375830721491014152e+00 1.057684899793997872e-02
4.822119319527679181e+03 1.470767785445107112e+00 8.174823220482223957e-03
4.826941438847208701e+03 1.518099806443578448e+00 8.669918458303380038e-03
4.831768380286057436e+03 1.516336392642490205e+00 1.313799087967209255e-02
4.836600148666345376e+03 1.487646603223529373e+00 1.415635648007326081e-02
4.841436748815013743e+03 1.447205385142650291e+00 1.431203520052469653e-02
4.846278185563829538e+03 1.396792633921756233e+00 1.343503670146550984e-02
4.851124463749395545e+03 1.347616871295708840e+00 1.303893921746595609e-02
4.855975588213146693e+03 1.311321018602464639e+00 1.125448060574532096e-02
4.860831563801360971e+03 1.292341884579709665e+00 1.085396179067670518e-02
4.865692395365163975e+03 1.293157273795436213e+00 1.211915986277158422e-02
4.870558087760530725e+03 1.309152375740471497e+00 1.309126551040236570e-02
4.875428645848292945e+03 1.335899425600400203e+00 1.181436414133203022e-02
4.880304074494142696e+03 1.368047112321023384e+00 1.074154107252142318e-02
4.885184378568638749e+03 1.400040323464919911e+00 9.450320961067640302e-03
4.890069562947209306e+03 1.429247272652680367e+00 8.789376132931518010e-03
4.894959632510157462e+03 1.446043501104833151e+00 8.657446458196016784e-03
4.899854592142669389e+03 1.447269538639620823e+00 8.649855509697610204e-03
4.904754446734813428e+03 1.438173021772870097e+00 9.144651934848214633e-03
4.909659201181550088e+03 1.415917149752758508e+00 8.959868574931176624e-03
4.914568860382732964e+03 1.375790709518643018e+00 8.013327381508840788e-03
4.919483429243117826e+03 1.313745146904186534e+00 8.830523495457112682e-03
4.924402912672362618e+03 1.232133361485722167e+00 1.022761577573955832e-02
4.929327315585036558e+03 1.143763088610769696e+00 1.285664637588052918e-02
4.934256642900622865e+03 1.060818634178034126e+00 1.344198726646047941e-02
4.939190899543525120e+03 9.942204151179814264e-01 1.266989071288481157e-02
4.944130090443070912e+03 9.396614542375966161e-01 1.066509520984045174e-02
4.949074220533515472e+03 9.059997109394489767e-01 9.085601059318328468e-03
4.954023294754050767e+03 9.068855950362124663e-01 9.920478277405483936e-03
4.958977318048806410e+03 9.362453410936087961e-01 1.073545595183226023e-02
4.963936295366856939e+03 9.922539720749098402e-01 1.045123781153322468e-02
4.968900231662225451e+03 1.050533801016399149e+00 1.041995490051639793e-02
4.973869131893889062e+03 1.116789152675105923e+00 8.117738390661493816e-03
4.978843001025784361e+03 1.174402430311894507e+00 6.961910751906576905e-03
4.983821844026811959e+03 1.215434470629938701e+00 8.303166356320937011e-03
4.988805665870840130e+03 1.250192460312167242e+00 8.667218020934985487e-03
4.993794471536712990e+03 1.271760453314158212e+00 8.284158694006931584e-03
4.998788266008251412e+03 1.284353294185673677e+00 7.862391432587691187e-03
5.003787054274261209e+03 1.291483685374612778e+00 7.619816941049922625e-03
5.008790841328536771e+03 1.288547429597861393e+00 7.647804560998907285e-03
5.013799632169867436e+03 1.280681563350258401e+00 7.662133335167207147e-03
5.018813431802038394e+03 1.271203772382141217e+00 7.634736516811016331e-03
5.023832245233842514e+03 1.258190456299173254e+00 7.329839180423073502e-03
5.028856077479077612e+03 1.241277256006472429e+00 7.273014949999920264e-03
5.033884933556558281e+03 1.228594019887935485e+00 6.931761981642880523e-03
5.038918818490116792e+03 1.213739090364044815e+00 6.589946820887392087e-03
5.043957737308608557e+03 1.191164731734356774e+00 6.415722579059993970e-03
5.049001695045918495e+03 1.168189972593688175e+00 6.880857024098239669e-03
5.054050696740966487e+03 1.138824059509789377e+00 7.479778486481649530e-03
5.059104747437709193e+03 1.104782213105630406e+00 7.443764620576784688e-03
5.064163852185148244e+03 1.060108295993484440e+00 6.563767331871790331e-03
5.069228016037335692e+03 1.001551555143688210e+00 7.422248899624762052e-03
5.074297244053374015e+03 9.423292905169016187e-01 8.553056213618745809e-03
5.079371541297429758e+03 8.752071030033634624e-01 9.193643398931441307e-03
5.084450912838728073e+03 8.162462854751204588e-01 7.798832789019813361e-03
5.089535363751569093e+03 7.739812356092843348e-01 6.874410422285292740e-03
5.094624899115322478e+03 7.486356169698460405e-01 6.651662474043436475e-03
5.099719524014439230e+03 7.380127158431623036e-01 6.486603402254103798e-03
5.104819243538455339e+03 7.486214895891973864e-01 6.375604759377466284e-03
5.109924062781995417e+03 7.794219959282212562e-01 6.485663680328116777e-03
5.115033986844779065e+03 8.325041045333132494e-01 7.890216237217959061e-03
5.120149020831625421e+03 9.006648052850254604e-01 7.992894572628373925e-03
5.125269169852458617e+03 9.668717886350136625e-01 7.106235098018682389e-03
5.130394439022313236e+03 1.032507453146492171e+00 6.240422184249134856e-03
5.135524833461337039e+03 1.086537570418751875e+00 6.322000386411375482e-03
5.140660358294800062e+03 1.126172552273652316e+00 6.694057648272783330e-03
5.145801018653096435e+03 1.157440304779896900e+00 7.119978324534168533e-03
5.150946819671751655e+03 1.177257571659778401e+00 7.865889614404555918e-03
5.156097766491425318e+03 1.195768563344729474e+00 8.042262601122963581e-03
5.161253864257918394e+03 1.209762267920681422e+00 7.855032036268250195e-03
5.166415118122177773e+03 1.219276074254760811e+00 7.783969328917298737e-03
5.171581533240301724e+03 1.224113303295296884e+00 7.852497779540662873e-03
5.176753114773543530e+03 1.225881447008200231e+00 8.023012407884362943e-03
5.181929867888318768e+03 1.220470922984749018e+00 7.849458082163638870e-03
5.187111797756208944e+03 1.217665387277230504e+00 7.502747928026019461e-03
5.192298909553966951e+03 1.211928463154737567e+00 7.327287048513014822e-03
5.197491208463522526e+03 1.201521402575654873e+00 7.057226952212034693e-03
5.202688699671987706e+03 1.189218964686694413e+00 6.868278889869169901e-03
5.207891388371661378e+03 1.178264685326122496e+00 7.113743442088833052e-03
5.213099279760034733e+03 1.162796527160292692e+00 7.128904796060748714e-03
5.218312379039796724e+03 1.146555846824886205e+00 7.096030143144816012e-03
5.223530691418837705e+03 1.128340271148551732e+00 7.100129424507574220e-03
5.228754222110258524e+03 1.115365808940145920e+00 7.080827404582649108e-03
5.233982976332370527e+03 1.107519372043039185e+00 6.956600086094727985e-03
