# starting wavelength: 3421.120
# ending wavelength: 9941.080
# wav flux eflux
3.422546655310141887e+03 3.123184980410831812e+00 6.944509946021578672e-01
3.425969201965453522e+03 3.055468363570819967e+00 5.250567037650988311e-01
3.429395171167419903e+03 3.053966992722617402e+00 3.986398000727756630e-01
3.432824566338588284e+03 3.128843331562719765e+00 3.262647029453983327e-01
3.436257390904928343e+03 3.193546903133711368e+00 2.580873447653208586e-01
3.439693648295834464e+03 3.240705627943445855e+00 2.028835145451994004e-01
3.443133341944131189e+03 3.286792493796732550e+00 1.652526238269298731e-01
3.446576475286076402e+03 3.318395246102981755e+00 1.381252908955626912e-01
3.450023051761363604e+03 3.334591079145015513e+00 1.176741118419832172e-01
3.453473074813126004e+03 3.342111267218434545e+00 9.956407704652286972e-02
3.456926547887940615e+03 3.316361700480838337e+00 9.401479509598803519e-02
3.460383474435829612e+03 3.284598592482577573e+00 8.615112999335589050e-02
3.463843857910266706e+03 3.260499495649218371e+00 7.848109662001996611e-02
3.467307701768178049e+03 3.231274465726198919e+00 7.246013722850271066e-02
3.470775009469947236e+03 3.206163394249510912e+00 6.767344504223818391e-02
3.474245784479418489e+03 3.173996391905097969e+00 6.526052279185144689e-02
3.477720030263898934e+03 3.143682686099928958e+00 6.190539043365129307e-02
3.481197750294164052e+03 3.100159470234467030e+00 5.953906285372098650e-02
3.484678948044459503e+03 3.067032235453854838e+00 5.933137170589702913e-02
3.488163626992504760e+03 3.019914080634469311e+00 5.829998831755579813e-02
3.491651790619498570e+03 2.990028350397718082e+00 5.587547083590404390e-02
3.495143442410119405e+03 2.961363458967922302e+00 5.545360685195102612e-02
3.498638585852530468e+03 2.923027768840842811e+00 5.581500234415287531e-02
3.502137224438384237e+03 2.890561787008820716e+00 5.294016720319808661e-02
3.505639361662823831e+03 2.870218336616693566e+00 5.072820425704620273e-02
3.509145001024487556e+03 2.863377090679581016e+00 5.206212290731968700e-02
3.512654146025513455e+03 2.885517057788177020e+00 4.174021125352288253e-02
3.516166800171540217e+03 2.913079267367931990e+00 3.794868312289832735e-02
3.519682966971712631e+03 2.919469255587113121e+00 3.803337634264114531e-02
3.523202649938685681e+03 2.940585814953284416e+00 3.687983532410356313e-02
3.526725852588625457e+03 2.945569533122897266e+00 3.669906700615934575e-02
3.530252578441215064e+03 2.933947629294471948e+00 3.500515638505604515e-02
3.533782831019657806e+03 2.938399546761516046e+00 3.502770153769069195e-02
3.537316613850678550e+03 2.924500469639409239e+00 3.092400249939727258e-02
3.540853930464530094e+03 2.930654325106295310e+00 3.074929624524855992e-02
3.544394784394995895e+03 2.945909144529347046e+00 3.008611446370757989e-02
3.547939179179392340e+03 2.965353372996843095e+00 2.873536900409961320e-02
3.551487118358572843e+03 2.975358164636200620e+00 2.759880002514614530e-02
3.555038605476932389e+03 2.970662845925112094e+00 2.720808477856503579e-02
3.558593644082410719e+03 2.969771983690669526e+00 2.777083334752036836e-02
3.562152237726494150e+03 2.973228913504383897e+00 2.756487430815549033e-02
3.565714389964221937e+03 2.979442237182652775e+00 2.660986147194017645e-02
3.569280104354187188e+03 2.985884478937444797e+00 2.716893940201644750e-02
3.572849384458542772e+03 2.991972663934214793e+00 2.686952831476333362e-02
3.576422233843002232e+03 2.986606020143148577e+00 2.710154642484345622e-02
3.579998656076846601e+03 2.981746962545353430e+00 2.602889814763141227e-02
3.583578654732924406e+03 2.964568945656107513e+00 2.302856688018173337e-02
3.587162233387658489e+03 2.955302270835777012e+00 2.266826660859169729e-02
3.590749395621047370e+03 2.950856263767784426e+00 2.216464722859862874e-02
3.594340145016669794e+03 2.951264238359718739e+00 2.218877872528036976e-02
3.597934485161687462e+03 2.945522460037893087e+00 2.130682284064373475e-02
3.601532419646850485e+03 2.942864507006314856e+00 2.116501427694406426e-02
3.605133952066498296e+03 2.932070268827056569e+00 1.992996334659255520e-02
3.608739086018566013e+03 2.927237989177171595e+00 2.068834085573219989e-02
3.612347825104585809e+03 2.923300906523703890e+00 1.983550029038791754e-02
3.615960172929691907e+03 2.927848515098513626e+00 2.015731491845478354e-02
3.619576133102622407e+03 2.930296948728568385e+00 2.080863485768037410e-02
3.623195709235726554e+03 2.930829697961944813e+00 2.075761143054710017e-02
3.626818904944963379e+03 2.923065762994388361e+00 1.835680119536375887e-02
3.630445723849909427e+03 2.924113430900078914e+00 1.770382891608501472e-02
3.634076169573760581e+03 2.923169761159451596e+00 1.848079876719913722e-02
3.637710245743335690e+03 2.933444420181051893e+00 1.439556560371433799e-02
3.641347955989080219e+03 2.940157044023662181e+00 1.329906174566731179e-02
3.644989303945070333e+03 2.944464770409667143e+00 1.275050668400405651e-02
3.648634293249016537e+03 2.949913028688015526e+00 1.331240686778878586e-02
3.652282927542266862e+03 2.951807593595818791e+00 1.240936073221864978e-02
3.655935210469810499e+03 2.952431304308081650e+00 1.228521649385997012e-02
3.659591145680281443e+03 2.956279377093337768e+00 1.282748753807929666e-02
3.663250736825963031e+03 2.958659121699634742e+00 1.246925873067749636e-02
3.666913987562790226e+03 2.965938332792153354e+00 1.211842233272563546e-02
3.670580901550354156e+03 2.973756810636092318e+00 1.233499208601350310e-02
3.674251482451905758e+03 2.972427012788188438e+00 1.045708949955547439e-02
3.677925733934358959e+03 2.980705281762759729e+00 1.198428556756609732e-02
3.681603659668294313e+03 2.985860860272291362e+00 1.174295469261390015e-02
3.685285263327964003e+03 2.993521614181524182e+00 1.012838568933810933e-02
3.688970548591293209e+03 2.999451201993599270e+00 9.851466896365674089e-03
3.692659519139885560e+03 2.996988621305917366e+00 1.083721631467925509e-02
3.696352178659026777e+03 2.999743585207308882e+00 1.068311031136996540e-02
3.700048530837686940e+03 3.000379801461089180e+00 1.025085996872297095e-02
3.703748579368525952e+03 3.002403032670049932e+00 1.070013954152218214e-02
3.707452327947895355e+03 3.000452010699038663e+00 1.048329274240091674e-02
3.711159780275844696e+03 2.998586494673439073e+00 1.046447182860787278e-02
3.714870940056121526e+03 2.996247300271400960e+00 1.079697359404524666e-02
3.718585810996179134e+03 2.992361305325881737e+00 1.075140176803931862e-02
3.722304396807176545e+03 2.986931242128682218e+00 9.541983809658564561e-03
3.726026701203984885e+03 2.989417093808614645e+00 1.188170032956512370e-02
3.729752727905190113e+03 2.989752989013674700e+00 1.168323296361426129e-02
3.733482480633096657e+03 2.995208977850927212e+00 1.347402816335672125e-02
3.737215963113731050e+03 2.990796313409042728e+00 1.296368384126641779e-02
3.740953179076846027e+03 2.982934439901923529e+00 1.279611316247237542e-02
3.744694132255923705e+03 2.976626353784844969e+00 1.289355771759180362e-02
3.748438826388181042e+03 2.963180609703373491e+00 1.315697343666601300e-02
3.752187265214570289e+03 2.950297068217754060e+00 1.316748533446288928e-02
3.755939452479786269e+03 2.930643619743931616e+00 1.436118287967947695e-02
3.759695391932267285e+03 2.918917583841850405e+00 1.505230337041652162e-02
3.763455087324201031e+03 2.900478070233138972e+00 1.675552500787302196e-02
3.767218542411526414e+03 2.883078294755391013e+00 1.508605794337316078e-02
3.770985760953939007e+03 2.871304239129214508e+00 1.413207829749147174e-02
3.774756746714894234e+03 2.856378898557656587e+00 1.401540920863147445e-02
3.778531503461610555e+03 2.850989268129750176e+00 1.407443034813299007e-02
3.782310034965073100e+03 2.846062365994094012e+00 1.408528334016356451e-02
3.786092345000039586e+03 2.844999456157609963e+00 1.376703997102202148e-02
3.789878437345040766e+03 2.844016955081006159e+00 1.429613342428979854e-02
3.793668315782387253e+03 2.845476780988891008e+00 1.407252361104094872e-02
3.797461984098170888e+03 2.845939866225337234e+00 1.334771267142200249e-02
3.801259446082270188e+03 2.847520394200478311e+00 1.331580908221379964e-02
3.805060705528353537e+03 2.854950757133461803e+00 1.325438520250559089e-02
3.808865766233883278e+03 2.862241520407812878e+00 1.286348742586472353e-02
3.812674632000118436e+03 2.867452832678458297e+00 1.273134924040267638e-02
3.816487306632119726e+03 2.867296303065188567e+00 1.255480666915466566e-02
3.820303793938753188e+03 2.869524252243007112e+00 1.255557651342224280e-02
3.824124097732693372e+03 2.866583384455539729e+00 1.120188974855478546e-02
3.827948221830427428e+03 2.865908681522685075e+00 1.184255837253639365e-02
3.831776170052258749e+03 2.864427979442577321e+00 1.107303435805807174e-02
3.835607946222312421e+03 2.864797995639570605e+00 1.089602524085390642e-02
3.839443554168536139e+03 2.857508274507991164e+00 1.245733556740132898e-02
3.843282997722705659e+03 2.854408419867625391e+00 1.191098638405687325e-02
3.847126280720429804e+03 2.851876795575220225e+00 1.187260338433234440e-02
3.850973407001151372e+03 2.852800202310350475e+00 1.246257329507344074e-02
3.854824380408153957e+03 2.851521962741397687e+00 1.273621578552863731e-02
3.858679204788563311e+03 2.847241380265406629e+00 1.044354610646843103e-02
3.862537883993353262e+03 2.844513383099336767e+00 8.235722511985321334e-03
3.866400421877347981e+03 2.850685069338553479e+00 8.320732314097885676e-03
3.870266822299226533e+03 2.856252245221804209e+00 8.778084537571057347e-03
3.874137089121526969e+03 2.870675484597985161e+00 8.939267755785641409e-03
3.878011226210649966e+03 2.884760146773609257e+00 9.304495109613048973e-03
3.881889237436861549e+03 2.898223660858630257e+00 9.264216007687843882e-03
3.885771126674299921e+03 2.909207827191509832e+00 8.488600666783698359e-03
3.889656897800975457e+03 2.914622413387611743e+00 8.016573302462810802e-03
3.893546554698777527e+03 2.919129706883006659e+00 7.554754985121535024e-03
3.897440101253477678e+03 2.918613624116022986e+00 7.978751739935396881e-03
3.901337541354732366e+03 2.916147867182626641e+00 8.280999648435398083e-03
3.905238878896088409e+03 2.908257802349472954e+00 9.181532180610903898e-03
3.909144117774985716e+03 2.896622128766381365e+00 8.975743435140945414e-03
3.913053261892762293e+03 2.886446269289156596e+00 7.005773203069565365e-03
3.916966315154656058e+03 2.886390553905235024e+00 6.911445302194451322e-03
3.920883281469812118e+03 2.886907546044098272e+00 7.308271330415215886e-03
3.924804164751283224e+03 2.892508172105923592e+00 7.696967996485643004e-03
3.928728968916035683e+03 2.895111499516454412e+00 7.396879448999090813e-03
3.932657697884953450e+03 2.900289433970310249e+00 7.760148224669155374e-03
3.936590355582839493e+03 2.908035845294255850e+00 7.045896049569998557e-03
3.940526945938423523e+03 2.921799023212544810e+00 7.612401097350017347e-03
3.944467472884363360e+03 2.926413899639812577e+00 7.951030595454957467e-03
3.948411940357249023e+03 2.927054546596548068e+00 6.649312418154276934e-03
3.952360352297607733e+03 2.921293829317978652e+00 6.423985750242971159e-03
3.956312712649906643e+03 2.911342915138441789e+00 6.787481370889774344e-03
3.960269025362557841e+03 2.893631753517847294e+00 7.400308852010975200e-03
3.964229294387921527e+03 2.869349589358930697e+00 8.766834659123211998e-03
3.968193523682310570e+03 2.845852406794391776e+00 8.017343673476680366e-03
3.972161717205994591e+03 2.828340036454324302e+00 8.026326997491950443e-03
3.976133878923201792e+03 2.809210282545935744e+00 7.075937212336316090e-03
3.980110012802126221e+03 2.793319418195581161e+00 6.578663473682451121e-03
3.984090122814929600e+03 2.781844271140002878e+00 6.632078695982963554e-03
3.988074212937745870e+03 2.776628623993667055e+00 6.625806086822201048e-03
3.992062287150684824e+03 2.773055279259846184e+00 6.829334717075579743e-03
3.996054349437837118e+03 2.773525067315905535e+00 6.878510734539913275e-03
4.000050403787276082e+03 2.775280952917493327e+00 6.981261388286322256e-03
4.004050454191064546e+03 2.778639955301756448e+00 6.609152999537746924e-03
4.008054504645257111e+03 2.780993459410403101e+00 5.543813673862011196e-03
4.012062559149903791e+03 2.783448736299205084e+00 5.750790615028130402e-03
4.016074621709055009e+03 2.779875040589131263e+00 5.226272324129485961e-03
4.020090696330765240e+03 2.775984318997213762e+00 4.001273061180972250e-03
4.024110787027097558e+03 2.774652154343570931e+00 4.844377375650183240e-03
4.028134897814125907e+03 2.779239937038703978e+00 5.007436528288039708e-03
4.032163032711941469e+03 2.784702206663780100e+00 5.000773499799789253e-03
4.036195195744654484e+03 2.792232517823233451e+00 5.302650454558714352e-03
4.040231390940400615e+03 2.800630816192011707e+00 5.269409153166797026e-03
4.044271622331342314e+03 2.811560550728289698e+00 5.028971483959101228e-03
4.048315893953675186e+03 2.821566755615496191e+00 5.184720473943553974e-03
4.052364209847629809e+03 2.834904012331564971e+00 5.154576150942935357e-03
4.056416574057479011e+03 2.847051545218150181e+00 5.335193548220547310e-03
4.060472990631537868e+03 2.873092378010231762e+00 1.507516520977585442e-02
4.064533463622170530e+03 2.909694712850282805e+00 3.330371507246865370e-02
4.068597997085794304e+03 2.897366702607738986e+00 3.338842284923160958e-02
4.072666595082881486e+03 2.859869331559572458e+00 5.398362170579791564e-02
4.076739261677965715e+03 2.841676260795084286e+00 5.632189351727404786e-02
4.080816000939644709e+03 2.833307717703481110e+00 5.741127109677844620e-02
4.084896816940585722e+03 2.821053304440399589e+00 6.511554886666041930e-02
4.088981713757527814e+03 2.887836512490371987e+00 6.613681586574741977e-02
4.093070695471286854e+03 3.008813187372848308e+00 8.656343723256164358e-02
4.097163766166759160e+03 3.078593324203971360e+00 8.638616515305407029e-02
4.101260929932927866e+03 3.188571744155666021e+00 9.563446659629089297e-02
4.105362190862862008e+03 3.264745464648109774e+00 9.203946472319214644e-02
4.109467553053726078e+03 3.299020134691490025e+00 8.314677295300558491e-02
4.113577020606780934e+03 3.273740921486604893e+00 8.174575539174283589e-02
4.117690597627389252e+03 3.167602928667054840e+00 1.006686169143998222e-01
4.121808288225018259e+03 3.055357115921212063e+00 1.045458792263860570e-01
4.125930096513244280e+03 2.944554976849775851e+00 1.055067496962926316e-01
4.130056026609759101e+03 2.803837589532445662e+00 8.941310059860181625e-02
4.134186082636369974e+03 2.688537121727783585e+00 7.358630051781407666e-02
4.138320268719007800e+03 2.634778639480429785e+00 7.970982911593563203e-02
4.142458588987728035e+03 2.640847895938209788e+00 7.160325413046894627e-02
4.146601047576717065e+03 2.633576706937950984e+00 7.133883151003207745e-02
4.150747648624294925e+03 2.616762141404453956e+00 6.625818220142386250e-02
4.154898396272920763e+03 2.635685304572511267e+00 4.694472096722780013e-02
4.159053294669195566e+03 2.643708576268932742e+00 4.509183252205448827e-02
4.163212347963865795e+03 2.578259550621730956e+00 3.337741170223089415e-02
4.167375560311830668e+03 2.525871122811988556e+00 2.949283509925024541e-02
4.171542935872143971e+03 2.478407706287716117e+00 2.726690318674866720e-02
4.175714478808017702e+03 2.435609566024094619e+00 2.520999748710120100e-02
4.179890193286827525e+03 2.407040325814485460e+00 2.401904745645999650e-02
4.184070083480115500e+03 2.384389206127531580e+00 2.453194011502162625e-02
4.188254153563597356e+03 2.379392763738094718e+00 2.004175851992870058e-02
4.192442407717161586e+03 2.387714813507312073e+00 1.206500918816569116e-02
4.196634850124880359e+03 2.376458918036646217e+00 1.020423559015786255e-02
4.200831484975006788e+03 2.370146836062890561e+00 3.655889543556358184e-03
4.205032316459983122e+03 2.377412419039577784e+00 4.711733535849451683e-03
4.209237348776444378e+03 2.385390418352470565e+00 4.385413568000185412e-03
4.213446586125221984e+03 2.398914384289366986e+00 3.961869873696938389e-03
4.217660032711349231e+03 2.414387496256175769e+00 4.032938196204234951e-03
4.221877692744061278e+03 2.435055314791402470e+00 4.009564749455157839e-03
4.226099570436806971e+03 2.459379705453012654e+00 4.249001850150779282e-03
4.230325670007245208e+03 2.485685947374085991e+00 4.233147266810670384e-03
4.234555995677254032e+03 2.513843773617284505e+00 4.613092449934433521e-03
4.238790551672932452e+03 2.542521988555048296e+00 5.331554072186031959e-03
4.243029342224606808e+03 2.568057952549154255e+00 5.084140939207844323e-03
4.247272371566832589e+03 2.591258419974094895e+00 4.915519188043727429e-03
4.251519643938400804e+03 2.610851719734688547e+00 5.307404938413059874e-03
4.255771163582340705e+03 2.629276350948409391e+00 5.349684660212284532e-03
4.260026934745924336e+03 2.646076803069901562e+00 5.327419248700037899e-03
4.264286961680671993e+03 2.660100403306182582e+00 5.680632942500451511e-03
4.268551248642354039e+03 2.669697114267408189e+00 5.187681229157327205e-03
4.272819799890998183e+03 2.677028354813686395e+00 4.865561593591408683e-03
4.277092619690890388e+03 2.679273273732240224e+00 4.351211004280909622e-03
4.281369712310583054e+03 2.682687386049167788e+00 4.282102076997439111e-03
4.285651082022895025e+03 2.684387886682315205e+00 4.027481580622464460e-03
4.289936733104918858e+03 2.683525058173956701e+00 4.409617443517206692e-03
4.294226669838025373e+03 2.684142838601226266e+00 4.571782987323203158e-03
4.298520896507864563e+03 2.682403058155230724e+00 4.621940090240614189e-03
4.302819417404373780e+03 2.676516606779933305e+00 4.610798967738150185e-03
4.307122236821779552e+03 2.670394578897504090e+00 4.643661883635999757e-03
4.311429359058603040e+03 2.664977273521192735e+00 4.344475971118843746e-03
4.315740788417662770e+03 2.661455331273093972e+00 5.212612422206479995e-03
4.320056529206081905e+03 2.657520952042814244e+00 4.762189871845662510e-03
4.324376585735290064e+03 2.649399251106213882e+00 4.436916169217106423e-03
4.328700962321026054e+03 2.638063345175490237e+00 4.883185752520440015e-03
4.333029663283348782e+03 2.624265297164277921e+00 5.128141188542837715e-03
4.337362692946633615e+03 2.611958785240690251e+00 4.745503881250102279e-03
4.341700055639581478e+03 2.602105450208052506e+00 4.676498988672921596e-03
4.346041755695222491e+03 2.594443336826344204e+00 4.860559834262315887e-03
4.350387797450919606e+03 2.586838904734254818e+00 4.585789175264234387e-03
4.354738185248371337e+03 2.579797683618132442e+00 4.888076986774667933e-03
4.359092923433621763e+03 2.574480643005999880e+00 4.784891803473310772e-03
4.363452016357056891e+03 2.569527290169320910e+00 4.931309521139775470e-03
4.367815468373414660e+03 2.564697147752858619e+00 4.947041915194276378e-03
4.372183283841789489e+03 2.562436059619632278e+00 4.851413449201590587e-03
4.376555467125633186e+03 2.563693909904950274e+00 4.680387544567297768e-03
4.380932022592760404e+03 2.564868261400035099e+00 4.852848431655040588e-03
4.385312954615354101e+03 2.562417591401898065e+00 4.575131611061005257e-03
4.389698267569970994e+03 2.558649431041484235e+00 4.506128179574036934e-03
4.394087965837542470e+03 2.554970009978922540e+00 4.198415050136817921e-03
4.398482053803381859e+03 2.552081541177031898e+00 3.695224233098881768e-03
4.402880535857186260e+03 2.548463670087560473e+00 3.371198940749785093e-03
4.407283416393044718e+03 2.542987504948578614e+00 3.594585747754033139e-03
4.411690699809440048e+03 2.535939556598165279e+00 3.545000551722520942e-03
4.416102390509250654e+03 2.525790853020794646e+00 2.979717831422710409e-03
4.420518492899761441e+03 2.514604046131615700e+00 2.937863375574405102e-03
4.424939011392662906e+03 2.505160043601114328e+00 3.118705773366900295e-03
4.429363950404056595e+03 2.499703137326679148e+00 3.345594641001296658e-03
4.433793314354462382e+03 2.496701909568095790e+00 3.824282012972565325e-03
4.438227107668818462e+03 2.493588600551248646e+00 3.757483001897829380e-03
4.442665334776488635e+03 2.487260326622092954e+00 3.507417680639203072e-03
4.447108000111265937e+03 2.478987157366991934e+00 3.593473574052929564e-03
4.451555108111379013e+03 2.469874134924969322e+00 3.610037807236763947e-03
4.456006663219492111e+03 2.460590006335412916e+00 3.588690481663313683e-03
