# starting wavelength: 3460.580
# ending wavelength: 7367.620
# wav flux eflux
3.463843857910266706e+03 2.153569167800190698e+00 1.712596552840295050e-01
3.467307701768178049e+03 2.238945103303914941e+00 1.272935859735139785e-01
3.470775009469947236e+03 2.312841769865438657e+00 9.684573492530494654e-02
3.474245784479418489e+03 2.369053253989922947e+00 7.777383694920324275e-02
3.477720030263898934e+03 2.397914860352666100e+00 6.060163290970684014e-02
3.481197750294164052e+03 2.401293847709431883e+00 4.884151159501237682e-02
3.484678948044459503e+03 2.393112433990794763e+00 4.099237426190097122e-02
3.488163626992504760e+03 2.380383827077460435e+00 3.454104355509026586e-02
3.491651790619498570e+03 2.363913527609704524e+00 2.851168116858570148e-02
3.495143442410119405e+03 2.347683114316624131e+00 2.556037481969207839e-02
3.498638585852530468e+03 2.334126065807622386e+00 2.391511546412681405e-02
3.502137224438384237e+03 2.322256652277699729e+00 2.254710615779862912e-02
3.505639361662823831e+03 2.310444676903755212e+00 2.118931082019193113e-02
3.509145001024487556e+03 2.296592355701292831e+00 1.982512024671379686e-02
3.512654146025513455e+03 2.283412741928281253e+00 1.877329591683163032e-02
3.516166800171540217e+03 2.272733466040618211e+00 1.820683353211492023e-02
3.519682966971712631e+03 2.262519409101976020e+00 1.778471256454455113e-02
3.523202649938685681e+03 2.250597838209549728e+00 1.726831842757598975e-02
3.526725852588625457e+03 2.235665175333677368e+00 1.693706613321979693e-02
3.530252578441215064e+03 2.222187667260004051e+00 1.685590620181783711e-02
3.533782831019657806e+03 2.213977892992726737e+00 1.691791255656633144e-02
3.537316613850678550e+03 2.206489394145418448e+00 1.640311948348403132e-02
3.540853930464530094e+03 2.203473626667252105e+00 1.547222622568262922e-02
3.544394784394995895e+03 2.204015477919746946e+00 1.448768381579521557e-02
3.547939179179392340e+03 2.202497479360506993e+00 1.434145865178909629e-02
3.551487118358572843e+03 2.196890439648528925e+00 1.398317723009421913e-02
3.555038605476932389e+03 2.190129750978532464e+00 1.378392880413729059e-02
3.558593644082410719e+03 2.181203085556897125e+00 1.368234914922149791e-02
3.562152237726494150e+03 2.170143506630745289e+00 1.358120806744051584e-02
3.565714389964221937e+03 2.155957894286155696e+00 1.336093962823766898e-02
3.569280104354187188e+03 2.141500422683721538e+00 1.334101037279439121e-02
3.572849384458542772e+03 2.129163896983379711e+00 1.372626793306948659e-02
3.576422233843002232e+03 2.120998340899720169e+00 1.276221530070850881e-02
3.579998656076846601e+03 2.110292762439584191e+00 1.236185988744420601e-02
3.583578654732924406e+03 2.096822095268300323e+00 1.232361890631629778e-02
3.587162233387658489e+03 2.087878062571755677e+00 1.182643512133451161e-02
3.590749395621047370e+03 2.073709918363535909e+00 1.177904320743755444e-02
3.594340145016669794e+03 2.055826368246516100e+00 1.161861486800762344e-02
3.597934485161687462e+03 2.033667794341854851e+00 1.061597795570606156e-02
3.601532419646850485e+03 2.010895659485318010e+00 1.023120041049978279e-02
3.605133952066498296e+03 1.989818640859166932e+00 1.020769419897595530e-02
3.608739086018566013e+03 1.968307753235211344e+00 1.027666749748106303e-02
3.612347825104585809e+03 1.942803829983277053e+00 1.037845220273164205e-02
3.615960172929691907e+03 1.919632578316826210e+00 1.038829883401221760e-02
3.619576133102622407e+03 1.895907124308360503e+00 1.036351071289783043e-02
3.623195709235726554e+03 1.873710804154663290e+00 1.031198060227460009e-02
3.626818904944963379e+03 1.850579191409991608e+00 1.064050865833345363e-02
3.630445723849909427e+03 1.828753157206256086e+00 1.066253687406550944e-02
3.634076169573760581e+03 1.810949451678582678e+00 1.013863548684491508e-02
3.637710245743335690e+03 1.794524833047229206e+00 9.907507975703971903e-03
3.641347955989080219e+03 1.778401133705706849e+00 9.871057302292955346e-03
3.644989303945070333e+03 1.761969274463467849e+00 9.597612873346223622e-03
3.648634293249016537e+03 1.744087773399967567e+00 8.860588467786307057e-03
3.652282927542266862e+03 1.723620621234147388e+00 7.780514403410042877e-03
3.655935210469810499e+03 1.709301323721080568e+00 8.181859110813335598e-03
3.659591145680281443e+03 1.695743224649171266e+00 8.157044177810587882e-03
3.663250736825963031e+03 1.687506384464307896e+00 7.411677696279951426e-03
3.666913987562790226e+03 1.679735043742863532e+00 6.649867943621180603e-03
3.670580901550354156e+03 1.673093533175445069e+00 6.350422340627817283e-03
3.674251482451905758e+03 1.667093334079295053e+00 6.319437456533245900e-03
3.677925733934358959e+03 1.661342141223469238e+00 6.264559247927676926e-03
3.681603659668294313e+03 1.656379801484541892e+00 6.194542278300677572e-03
3.685285263327964003e+03 1.652973587102700481e+00 6.174343105654601059e-03
3.688970548591293209e+03 1.648427413372914208e+00 6.164602531594205216e-03
3.692659519139885560e+03 1.645486099394794399e+00 5.923934432201130411e-03
3.696352178659026777e+03 1.643645430841845112e+00 6.220303438494789033e-03
3.700048530837686940e+03 1.644777101104480943e+00 6.136939572667369364e-03
3.703748579368525952e+03 1.648048954448403380e+00 5.894221564778895361e-03
3.707452327947895355e+03 1.656921970463520966e+00 6.078172678419058519e-03
3.711159780275844696e+03 1.671909486858686567e+00 6.836247475642008575e-03
3.714870940056121526e+03 1.689390692286892648e+00 6.712973036613944199e-03
3.718585810996179134e+03 1.704851651171775506e+00 6.634400356728048509e-03
3.722304396807176545e+03 1.718755909145706529e+00 6.447199613469668973e-03
3.726026701203984885e+03 1.731549084340114009e+00 6.230102461362472914e-03
3.729752727905190113e+03 1.743849603104550949e+00 6.500446982269102864e-03
3.733482480633096657e+03 1.750945293460236973e+00 7.163647649789603618e-03
3.737215963113731050e+03 1.758984621163226514e+00 7.649978317751058958e-03
3.740953179076846027e+03 1.767114946556905153e+00 8.311781754355861487e-03
3.744694132255923705e+03 1.780272090526564099e+00 8.286599343277115462e-03
3.748438826388181042e+03 1.794982783882321353e+00 8.234239522185687887e-03
3.752187265214570289e+03 1.811282280051469407e+00 8.582572361383766779e-03
3.755939452479786269e+03 1.825142710311512984e+00 8.971256172068049414e-03
3.759695391932267285e+03 1.837991414935880030e+00 9.948455946007095721e-03
3.763455087324201031e+03 1.850194193104541363e+00 1.201962346201423601e-02
3.767218542411526414e+03 1.858576826757187828e+00 1.332858576532583786e-02
3.770985760953939007e+03 1.856117395706031514e+00 1.264386062076785534e-02
3.774756746714894234e+03 1.851253956655848576e+00 1.112379243891147874e-02
3.778531503461610555e+03 1.838149922939879666e+00 6.772827214809617503e-03
3.782310034965073100e+03 1.804142130547701894e+00 8.938160198802556564e-03
3.786092345000039586e+03 1.756284427343557386e+00 1.256297133086177985e-02
3.789878437345040766e+03 1.700966952732525073e+00 1.506180568520978577e-02
3.793668315782387253e+03 1.642856724039205352e+00 1.586522314865877401e-02
3.797461984098170888e+03 1.591787023302748683e+00 1.377885304370655463e-02
3.801259446082270188e+03 1.555471116746043769e+00 1.105265629181829794e-02
3.805060705528353537e+03 1.536347388299430072e+00 1.059313451660428597e-02
3.808865766233883278e+03 1.525969888146974762e+00 1.060692206065978922e-02
3.812674632000118436e+03 1.537547782613707614e+00 1.395696037182796514e-02
3.816487306632119726e+03 1.561071840959359136e+00 1.657042868004335659e-02
3.820303793938753188e+03 1.596082091890630883e+00 1.479832830181638560e-02
3.824124097732693372e+03 1.626446931832953302e+00 1.354353213153452855e-02
3.827948221830427428e+03 1.659054789623122916e+00 1.256256472658442112e-02
3.831776170052258749e+03 1.696241281434237358e+00 1.290143959557204893e-02
3.835607946222312421e+03 1.727401244569857885e+00 1.514565352187266858e-02
3.839443554168536139e+03 1.744861079945558391e+00 1.777513541061159427e-02
3.843282997722705659e+03 1.741520912009622668e+00 1.828820950114542002e-02
3.847126280720429804e+03 1.721185264850371155e+00 1.913235301768474381e-02
3.850973407001151372e+03 1.687602693611814031e+00 1.927066435575376310e-02
3.854824380408153957e+03 1.640546124568896813e+00 2.587843495148028222e-02
3.858679204788563311e+03 1.591289687073864423e+00 3.582306504087384019e-02
3.862537883993353262e+03 1.556404986689376990e+00 4.502711288370387505e-02
3.866400421877347981e+03 1.556771535753565416e+00 4.425948029502526498e-02
3.870266822299226533e+03 1.601490249584583525e+00 4.022052736143163360e-02
3.874137089121526969e+03 1.684929899482903615e+00 4.424655944815172881e-02
3.878011226210649966e+03 1.798646108296148460e+00 5.574797377739480753e-02
3.881889237436861549e+03 1.926439465122033567e+00 6.431803093272807359e-02
3.885771126674299921e+03 2.048589709168913142e+00 6.294687583184463420e-02
3.889656897800975457e+03 2.143448091275856449e+00 5.159558369464837396e-02
3.893546554698777527e+03 2.192206828688453513e+00 3.916370839013842697e-02
3.897440101253477678e+03 2.178243159669162488e+00 4.464079374601761380e-02
3.901337541354732366e+03 2.107703563497451249e+00 5.582023325231028066e-02
3.905238878896088409e+03 2.001308414670212255e+00 5.650054344153512820e-02
3.909144117774985716e+03 1.889820163724315716e+00 4.830617294399461303e-02
3.913053261892762293e+03 1.796159047386409524e+00 3.237546161677808815e-02
3.916966315154656058e+03 1.740932474059775803e+00 2.784906799335605879e-02
3.920883281469812118e+03 1.727554866987351057e+00 3.800629791854943929e-02
3.924804164751283224e+03 1.748194258467447471e+00 4.347338754325720533e-02
3.928728968916035683e+03 1.777353881564029514e+00 3.682288744463117769e-02
3.932657697884953450e+03 1.800017987189840740e+00 2.503658193475702745e-02
3.936590355582839493e+03 1.798907406968218492e+00 2.336028742163981028e-02
3.940526945938423523e+03 1.780790391286387608e+00 3.012130850668226154e-02
3.944467472884363360e+03 1.754349038660861559e+00 3.676298030845731590e-02
3.948411940357249023e+03 1.728945225085780635e+00 3.632531142819946796e-02
3.952360352297607733e+03 1.718147472694986133e+00 2.958783959939937508e-02
3.956312712649906643e+03 1.727796655246297552e+00 2.592462642182153179e-02
3.960269025362557841e+03 1.758687090912271600e+00 3.049072793191325015e-02
3.964229294387921527e+03 1.805516530602264469e+00 3.512559634818825799e-02
3.968193523682310570e+03 1.857535008174269420e+00 3.348137423328585022e-02
3.972161717205994591e+03 1.901689761314409921e+00 2.713756079070766061e-02
3.976133878923201792e+03 1.927379648251100086e+00 2.027275052168665825e-02
3.980110012802126221e+03 1.926349063650046212e+00 1.934820498472692232e-02
3.984090122814929600e+03 1.895112474506449596e+00 2.189527731934023599e-02
3.988074212937745870e+03 1.842033035976940791e+00 2.085466782592919344e-02
3.992062287150684824e+03 1.774747818394642129e+00 1.643176354661311095e-02
3.996054349437837118e+03 1.704583771496768430e+00 1.111055120336261123e-02
4.000050403787276082e+03 1.642553526970840005e+00 8.478469002323296699e-03
4.004050454191064546e+03 1.592235277290566575e+00 7.169880569593064558e-03
4.008054504645257111e+03 1.561464162877711281e+00 6.845799459272422678e-03
4.012062559149903791e+03 1.546841250338739204e+00 5.922103936859134284e-03
4.016074621709055009e+03 1.543207496520350608e+00 5.611472493397740360e-03
4.020090696330765240e+03 1.547668724802480966e+00 6.732531832347375851e-03
4.024110787027097558e+03 1.559488976487360734e+00 9.967301370008252795e-03
4.028134897814125907e+03 1.574976441223990831e+00 1.187127343756427637e-02
4.032163032711941469e+03 1.589824808459932015e+00 1.215921733194042301e-02
4.036195195744654484e+03 1.597778599754502205e+00 9.909894180447126680e-03
4.040231390940400615e+03 1.593976927036565572e+00 7.346699606882389766e-03
4.044271622331342314e+03 1.576700600646659067e+00 7.912738471265503074e-03
4.048315893953675186e+03 1.546413144744916535e+00 1.197978776125444879e-02
4.052364209847629809e+03 1.507827019142533587e+00 1.585675085027912420e-02
4.056416574057479011e+03 1.469572227805411080e+00 1.513043711773546032e-02
4.060472990631537868e+03 1.441566066444917027e+00 1.147158885523356757e-02
4.064533463622170530e+03 1.430706012967736473e+00 9.673976574277346960e-03
4.068597997085794304e+03 1.434929508013742083e+00 1.206025071688763238e-02
4.072666595082881486e+03 1.451416921086367662e+00 1.548544743336375401e-02
4.076739261677965715e+03 1.474381464457200419e+00 1.654062602677527569e-02
4.080816000939644709e+03 1.498534634588961856e+00 1.544256208695994961e-02
4.084896816940585722e+03 1.515810165465910853e+00 1.189712838438644095e-02
4.088981713757527814e+03 1.521959987808910952e+00 9.869094261886762406e-03
4.093070695471286854e+03 1.514716659967335621e+00 1.164967591057777807e-02
4.097163766166759160e+03 1.497365689387869958e+00 1.314721119699466950e-02
4.101260929932927866e+03 1.475504536987749749e+00 1.241756355011599394e-02
4.105362190862862008e+03 1.448427066319399437e+00 9.904267109966679444e-03
4.109467553053726078e+03 1.424249071473713713e+00 7.392490203931510392e-03
4.113577020606780934e+03 1.406541059926448956e+00 5.957969747106906314e-03
4.117690597627389252e+03 1.398469478782587094e+00 5.916878501350131096e-03
4.121808288225018259e+03 1.402010664840925624e+00 4.928222697810709721e-03
4.125930096513244280e+03 1.413231107777806583e+00 4.126249610644078941e-03
4.130056026609759101e+03 1.430856235894574002e+00 4.111269618495678145e-03
4.134186082636369974e+03 1.453783486843484685e+00 4.566100685328181377e-03
4.138320268719007800e+03 1.479944408170266401e+00 5.631969979462496910e-03
4.142458588987728035e+03 1.507491639223801805e+00 6.015133414590036545e-03
4.146601047576717065e+03 1.534253737337444967e+00 6.337747481986057314e-03
4.150747648624294925e+03 1.558039940102013299e+00 6.005520892005348360e-03
4.154898396272920763e+03 1.577239654218939746e+00 5.728504310134050967e-03
4.159053294669195566e+03 1.592781748824495303e+00 5.983893645273173981e-03
4.163212347963865795e+03 1.602750289574230491e+00 6.606228556226240861e-03
4.167375560311830668e+03 1.608019386109279747e+00 6.225415860377596193e-03
4.171542935872143971e+03 1.609407906707439384e+00 5.219828961142929276e-03
4.175714478808017702e+03 1.607485196786525572e+00 4.557320737544974867e-03
4.179890193286827525e+03 1.606225245903260879e+00 5.302735890568292983e-03
4.184070083480115500e+03 1.601340968285536404e+00 5.634578145722349447e-03
4.188254153563597356e+03 1.592817092206925578e+00 5.539787324874398226e-03
4.192442407717161586e+03 1.582719593121760804e+00 6.358670751357065401e-03
4.196634850124880359e+03 1.571481725237161342e+00 7.772689899086488580e-03
4.200831484975006788e+03 1.562076451988360093e+00 7.693061750897634173e-03
4.205032316459983122e+03 1.553978176375010900e+00 6.798053751819001234e-03
4.209237348776444378e+03 1.550265532570880289e+00 6.712205699672818549e-03
4.213446586125221984e+03 1.548948335012106048e+00 7.195054192971193051e-03
4.217660032711349231e+03 1.551068157549224003e+00 8.353534495440382429e-03
4.221877692744061278e+03 1.552929194108224387e+00 8.550500905942490237e-03
4.226099570436806971e+03 1.553251773485794685e+00 7.198794879819760996e-03
4.230325670007245208e+03 1.551322731682203804e+00 6.033140953875928102e-03
4.234555995677254032e+03 1.544524221082696380e+00 5.948700861473541282e-03
4.238790551672932452e+03 1.532663520000196344e+00 5.921030727840873378e-03
4.243029342224606808e+03 1.515030222310522312e+00 6.071290731647559398e-03
4.247272371566832589e+03 1.496152588256707050e+00 5.347650991586549649e-03
4.251519643938400804e+03 1.476270499079774812e+00 4.620451571745200041e-03
4.255771163582340705e+03 1.456792361158112392e+00 3.996568259699605392e-03
4.260026934745924336e+03 1.441891379432509668e+00 3.919247579812003800e-03
4.264286961680671993e+03 1.430627483635973141e+00 3.754333509015293346e-03
4.268551248642354039e+03 1.421592275417346896e+00 3.824655510157950328e-03
4.272819799890998183e+03 1.416476646898314540e+00 3.897481021459304768e-03
4.277092619690890388e+03 1.413312948534630964e+00 4.050418463056081400e-03
4.281369712310583054e+03 1.413552015622369984e+00 4.691997410424272527e-03
4.285651082022895025e+03 1.414647524108656684e+00 5.505855226249749441e-03
4.289936733104918858e+03 1.415719417215531850e+00 5.159244061322820415e-03
4.294226669838025373e+03 1.415983338889782450e+00 5.040719866310688045e-03
4.298520896507864563e+03 1.417239532776480404e+00 5.174601203794039830e-03
4.302819417404373780e+03 1.418073944724209445e+00 6.065252934410942862e-03
4.307122236821779552e+03 1.418715528866415942e+00 5.773165603818703612e-03
4.311429359058603040e+03 1.422880912298126965e+00 5.167317642719406606e-03
4.315740788417662770e+03 1.430773290761959249e+00 4.847637683152301348e-03
4.320056529206081905e+03 1.441563598670003721e+00 4.828658062710695573e-03
4.324376585735290064e+03 1.453595064863504538e+00 4.613925499388590867e-03
4.328700962321026054e+03 1.470152327510070522e+00 4.350799392658397796e-03
4.333029663283348782e+03 1.488835045193421802e+00 4.018021579493619849e-03
4.337362692946633615e+03 1.506535528960668779e+00 3.325565594534442022e-03
4.341700055639581478e+03 1.521514024199089876e+00 3.708916139096117906e-03
4.346041755695222491e+03 1.529330716152766945e+00 4.146708345128460350e-03
4.350387797450919606e+03 1.528588382726444816e+00 4.083121291765155758e-03
4.354738185248371337e+03 1.519129492906608592e+00 4.263338524591259518e-03
4.359092923433621763e+03 1.501312649634720442e+00 5.471569681234893928e-03
4.363452016357056891e+03 1.479948491863597004e+00 6.202117181827115043e-03
4.367815468373414660e+03 1.456293034014845000e+00 7.020846619817088137e-03
4.372183283841789489e+03 1.432111766305782963e+00 6.620343289670985870e-03
4.376555467125633186e+03 1.408134815085875680e+00 6.220194734210987217e-03
4.380932022592760404e+03 1.385210924648836661e+00 5.948060550840444244e-03
4.385312954615354101e+03 1.364267564312097392e+00 6.159527169124805884e-03
4.389698267569970994e+03 1.345681664342964323e+00 6.260381864963272640e-03
4.394087965837542470e+03 1.330955030133527117e+00 5.967973311398897668e-03
4.398482053803381859e+03 1.319247225460647321e+00 4.825913651155987021e-03
4.402880535857186260e+03 1.308043072731090106e+00 4.616197202550289744e-03
4.407283416393044718e+03 1.296471513724202662e+00 5.659766185083818166e-03
4.411690699809440048e+03 1.286963109164323438e+00 5.247224054011775940e-03
4.416102390509250654e+03 1.281059593871712865e+00 5.381907078678540256e-03
4.420518492899761441e+03 1.277202046829342574e+00 7.136736198761094684e-03
4.424939011392662906e+03 1.275710675441189323e+00 8.345463295473073972e-03
4.429363950404056595e+03 1.272835229597076179e+00 7.600856618494135700e-03
4.433793314354462382e+03 1.268622418976344424e+00 6.924080981350526007e-03
4.438227107668818462e+03 1.262444183530949227e+00 9.203131620660916570e-03
4.442665334776488635e+03 1.256764788108993613e+00 1.247576247422454293e-02
4.447108000111265937e+03 1.257173552707388620e+00 1.417604852168646845e-02
4.451555108111379013e+03 1.268660475891692174e+00 1.225775556999322662e-02
4.456006663219492111e+03 1.296476455371505132e+00 1.185911836022327144e-02
4.460462669882713271e+03 1.335366687653614104e+00 1.418219764407927137e-02
4.464923132552597053e+03 1.382656095700083965e+00 1.709629597598442963e-02
4.469388055685150903e+03 1.432536722226445569e+00 1.775076718629805053e-02
4.473857443740837880e+03 1.479040338244782316e+00 1.619460673869068182e-02
4.478331301184580298e+03 1.518599586773537569e+00 1.308729718328182669e-02
4.482809632485766087e+03 1.546052015145811698e+00 1.182584284492124195e-02
4.487292442118253348e+03 1.559469887695101864e+00 1.314198669937703852e-02
4.491779734560373072e+03 1.558234998093891210e+00 1.328553309573578083e-02
4.496271514294934605e+03 1.548263770362721337e+00 1.143022726254673549e-02
4.500767785809231100e+03 1.533731219749130847e+00 8.616136247760383324e-03
4.505268553595042249e+03 1.519563814146348557e+00 6.961939997543481300e-03
4.509773822148638828e+03 1.508375035905818562e+00 6.736459369268465829e-03
