# starting wavelength: 3460.580
# ending wavelength: 7367.620
# wav flux eflux
3.463843857910266706e+03 2.501965947246527211e+00 1.138903543101830312e-01
3.467307701768178049e+03 2.482548532597443458e+00 1.007398380168886415e-01
3.470775009469947236e+03 2.494168255444657589e+00 8.653653949776426990e-02
3.474245784479418489e+03 2.514135275430351868e+00 7.379538365428195412e-02
3.477720030263898934e+03 2.528400582579442446e+00 6.069254763690844212e-02
3.481197750294164052e+03 2.535380615455518072e+00 5.037857501624490308e-02
3.484678948044459503e+03 2.534815130850425646e+00 4.221559262027343995e-02
3.488163626992504760e+03 2.528653667818231643e+00 3.481541647973681458e-02
3.491651790619498570e+03 2.516292187310906758e+00 3.091831200240301517e-02
3.495143442410119405e+03 2.501085739881578007e+00 2.747852657895389142e-02
3.498638585852530468e+03 2.485840778190226530e+00 2.474593391864376296e-02
3.502137224438384237e+03 2.471321221667346357e+00 2.267582335764747881e-02
3.505639361662823831e+03 2.456753560909199052e+00 2.113219221842995571e-02
3.509145001024487556e+03 2.444147609408512611e+00 1.994416085101731809e-02
3.512654146025513455e+03 2.434631055010419765e+00 1.897438998662973400e-02
3.516166800171540217e+03 2.428105668576971077e+00 1.820787555339773572e-02
3.519682966971712631e+03 2.423397480831130046e+00 1.762944359095163296e-02
3.523202649938685681e+03 2.420247563355350184e+00 1.604942801295992927e-02
3.526725852588625457e+03 2.421297325853372762e+00 1.476763264660405257e-02
3.530252578441215064e+03 2.421672584208447443e+00 1.430801748829026165e-02
3.533782831019657806e+03 2.433495559740390668e+00 1.620612145944830967e-02
3.537316613850678550e+03 2.452792609660092271e+00 2.010395114894330745e-02
3.540853930464530094e+03 2.475601537105021066e+00 2.090935687780345886e-02
3.544394784394995895e+03 2.505563347632528970e+00 1.865585991478870692e-02
3.547939179179392340e+03 2.525603279578985116e+00 1.468851237886509113e-02
3.551487118358572843e+03 2.537399929505380847e+00 1.148538540833026096e-02
3.555038605476932389e+03 2.535603835903331493e+00 1.256232939065975336e-02
3.558593644082410719e+03 2.526894032688639324e+00 1.409960909015065336e-02
3.562152237726494150e+03 2.513040139724316280e+00 1.548062392472857214e-02
3.565714389964221937e+03 2.496259911310064972e+00 1.546813263561658443e-02
3.569280104354187188e+03 2.478204805285788570e+00 1.560107344427400823e-02
3.572849384458542772e+03 2.453978649431846293e+00 1.537092169414761879e-02
3.576422233843002232e+03 2.428158468017107108e+00 1.497006210581239283e-02
3.579998656076846601e+03 2.404960943834238751e+00 1.500783753132413183e-02
3.583578654732924406e+03 2.376893269799500441e+00 1.537723445626867393e-02
3.587162233387658489e+03 2.343988663168969921e+00 1.479631306136586916e-02
3.590749395621047370e+03 2.309711680509846765e+00 1.465982377901293120e-02
3.594340145016669794e+03 2.272624544993295359e+00 1.472284009619793423e-02
3.597934485161687462e+03 2.238018611384732459e+00 1.454984542638170474e-02
3.601532419646850485e+03 2.206275479110539450e+00 1.473370400772042697e-02
3.605133952066498296e+03 2.175600905445430389e+00 1.544981819267886129e-02
3.608739086018566013e+03 2.154492999379412410e+00 1.586138332737794740e-02
3.612347825104585809e+03 2.136136507687990793e+00 1.578294157861539690e-02
3.615960172929691907e+03 2.126935925177658504e+00 1.573695903755721257e-02
3.619576133102622407e+03 2.124748470817094947e+00 1.561875825260724930e-02
3.623195709235726554e+03 2.129878018155536346e+00 1.633948511732271486e-02
3.626818904944963379e+03 2.137944061625649539e+00 1.692396873535493770e-02
3.630445723849909427e+03 2.148798276554615860e+00 1.808063373214246344e-02
3.634076169573760581e+03 2.159896151075375137e+00 2.004147321371935533e-02
3.637710245743335690e+03 2.164690320351494002e+00 2.069518966847641930e-02
3.641347955989080219e+03 2.167548773682541174e+00 2.125664087605609598e-02
3.644989303945070333e+03 2.171455722048281523e+00 2.194295964971865187e-02
3.648634293249016537e+03 2.169302684094839506e+00 2.098057297573282035e-02
3.652282927542266862e+03 2.167876902040933196e+00 1.774213441974659133e-02
3.655935210469810499e+03 2.155249854685123978e+00 1.580317430801886011e-02
3.659591145680281443e+03 2.134707317430442952e+00 1.537979634496023339e-02
3.663250736825963031e+03 2.103757424026410305e+00 1.808932664502979626e-02
3.666913987562790226e+03 2.057778864130265006e+00 2.014320595374807440e-02
3.670580901550354156e+03 2.008575596194656754e+00 2.066096189222321050e-02
3.674251482451905758e+03 1.958728425804737494e+00 1.932081332962983997e-02
3.677925733934358959e+03 1.914882113079344084e+00 1.683923036562433653e-02
3.681603659668294313e+03 1.882530813129566383e+00 1.252575873535986470e-02
3.685285263327964003e+03 1.863212043375511939e+00 1.141728810156330924e-02
3.688970548591293209e+03 1.849546674254269218e+00 1.138027492483957570e-02
3.692659519139885560e+03 1.854628564547661007e+00 1.518285319185911156e-02
3.696352178659026777e+03 1.869302797051657805e+00 1.829815201610543451e-02
3.700048530837686940e+03 1.897581734192108405e+00 1.956460090899736493e-02
3.703748579368525952e+03 1.923549949570438455e+00 1.711842073610975526e-02
3.707452327947895355e+03 1.948378029758230934e+00 1.496541696331137733e-02
3.711159780275844696e+03 1.969403370590501412e+00 1.355004358144729255e-02
3.714870940056121526e+03 1.981845891497312051e+00 1.297368669539048121e-02
3.718585810996179134e+03 1.987265210389772774e+00 1.465031937575917223e-02
3.722304396807176545e+03 1.988561235730677224e+00 1.567906475414528045e-02
3.726026701203984885e+03 1.990802751144695293e+00 1.622842282580206144e-02
3.729752727905190113e+03 1.981116343148280112e+00 1.709000645519590314e-02
3.733482480633096657e+03 1.971266363799645926e+00 1.691659658670884372e-02
3.737215963113731050e+03 1.952854419049038226e+00 1.163562092175509689e-02
3.740953179076846027e+03 1.950358503424105550e+00 8.777190184385481528e-03
3.744694132255923705e+03 1.960566030649237401e+00 1.055683823569752468e-02
3.748438826388181042e+03 1.976067493453871116e+00 1.263773875968690619e-02
3.752187265214570289e+03 1.996021553349594413e+00 1.381704831264226989e-02
3.755939452479786269e+03 2.021491230347652657e+00 1.420081758251349850e-02
3.759695391932267285e+03 2.047788734349253126e+00 1.287684654397644630e-02
3.763455087324201031e+03 2.065926556392308377e+00 1.018702714831137487e-02
3.767218542411526414e+03 2.074575740641558586e+00 7.812361076175491567e-03
3.770985760953939007e+03 2.070909067865603692e+00 7.139339914950608088e-03
3.774756746714894234e+03 2.052566518718298649e+00 9.331567081518927706e-03
3.778531503461610555e+03 2.026049647466797499e+00 1.098829519317331450e-02
3.782310034965073100e+03 1.991619647251931857e+00 1.207257588871453458e-02
3.786092345000039586e+03 1.952074330377254308e+00 1.218929303021747471e-02
3.789878437345040766e+03 1.913370836085044546e+00 1.100728622754243262e-02
3.793668315782387253e+03 1.875167202631969676e+00 8.341997043955957231e-03
3.797461984098170888e+03 1.846008946900124403e+00 7.638214420582403047e-03
3.801259446082270188e+03 1.827677135320764590e+00 8.258763503729430258e-03
3.805060705528353537e+03 1.810497383516840753e+00 7.843762008128257399e-03
3.808865766233883278e+03 1.807968794691633185e+00 7.954772600619884268e-03
3.812674632000118436e+03 1.815554659219552169e+00 6.260915588744106128e-03
3.816487306632119726e+03 1.831284223492552377e+00 5.689540532132703228e-03
3.820303793938753188e+03 1.845790581735186509e+00 6.092229493872219383e-03
3.824124097732693372e+03 1.865680338305473196e+00 6.167449955276538623e-03
3.827948221830427428e+03 1.887073805432991858e+00 6.530151828890095114e-03
3.831776170052258749e+03 1.916356093361875512e+00 1.063764695773240440e-02
3.835607946222312421e+03 1.946123058581224141e+00 1.861115109502003290e-02
3.839443554168536139e+03 1.971588872554020710e+00 2.445459549688764472e-02
3.843282997722705659e+03 1.977992763489516248e+00 2.292459993061850623e-02
3.847126280720429804e+03 1.962785651367846773e+00 2.116089545532423566e-02
3.850973407001151372e+03 1.927491337641124236e+00 2.056402948297680888e-02
3.854824380408153957e+03 1.869825955607914203e+00 2.988307573496309932e-02
3.858679204788563311e+03 1.804594716871741999e+00 4.595447755808001328e-02
3.862537883993353262e+03 1.753077258425165708e+00 5.413227856000933647e-02
3.866400421877347981e+03 1.738899282098412824e+00 5.079637926132501979e-02
3.870266822299226533e+03 1.779046576452884221e+00 4.428148328315198445e-02
3.874137089121526969e+03 1.870206713400806908e+00 5.007124641975963658e-02
3.878011226210649966e+03 2.000773794135780825e+00 6.454283364636234643e-02
3.881889237436861549e+03 2.153340322288641140e+00 7.519714744489479352e-02
3.885771126674299921e+03 2.292213703922562296e+00 7.279474277682992933e-02
3.889656897800975457e+03 2.396634501576948573e+00 6.065803137585915744e-02
3.893546554698777527e+03 2.450231207499643737e+00 4.806838820080226726e-02
3.897440101253477678e+03 2.434176480576927037e+00 5.437426014209695291e-02
3.901337541354732366e+03 2.357296445001722862e+00 6.623841907988851918e-02
3.905238878896088409e+03 2.235306544860812483e+00 6.604772830794264360e-02
3.909144117774985716e+03 2.109659248326993808e+00 5.396157401037324913e-02
3.913053261892762293e+03 2.004389453380801100e+00 3.621453186917255457e-02
3.916966315154656058e+03 1.941505307238170497e+00 3.489236069580113619e-02
3.920883281469812118e+03 1.920133054156212271e+00 4.437058276267030754e-02
3.924804164751283224e+03 1.932595645102955118e+00 4.618637238191510008e-02
3.928728968916035683e+03 1.961268774576671481e+00 3.631507746507614542e-02
3.932657697884953450e+03 1.977771375840650325e+00 2.511079366672421681e-02
3.936590355582839493e+03 1.975691498589861261e+00 2.596532465023597760e-02
3.940526945938423523e+03 1.958470971067983735e+00 3.424436569493714139e-02
3.944467472884363360e+03 1.940955856619576592e+00 3.668948277970352639e-02
3.948411940357249023e+03 1.929777462206125671e+00 3.256926980392074039e-02
3.952360352297607733e+03 1.934445813355793353e+00 2.576845803580935304e-02
3.956312712649906643e+03 1.961678341184833974e+00 2.668378834346183531e-02
3.960269025362557841e+03 2.003593647338747452e+00 3.144806767897626726e-02
3.964229294387921527e+03 2.058671255544413548e+00 3.482616481611653519e-02
3.968193523682310570e+03 2.111471060979839276e+00 3.045265706917113166e-02
3.972161717205994591e+03 2.148504918406556108e+00 2.271540282347152967e-02
3.976133878923201792e+03 2.160846843800384054e+00 1.827478158786056614e-02
3.980110012802126221e+03 2.143034485093265218e+00 2.033647784424495730e-02
3.984090122814929600e+03 2.098162438109914429e+00 2.175205392873974519e-02
3.988074212937745870e+03 2.033923458983274646e+00 1.954312534124738598e-02
3.992062287150684824e+03 1.961783111836139515e+00 1.535036342802813085e-02
3.996054349437837118e+03 1.892835222485201863e+00 8.721679775984397809e-03
4.000050403787276082e+03 1.835488147504720446e+00 5.028353618255544145e-03
4.004050454191064546e+03 1.798517130905095796e+00 5.064497809724642641e-03
4.008054504645257111e+03 1.776817300836952995e+00 4.129041561543075022e-03
4.012062559149903791e+03 1.768326745466288985e+00 4.831606721532558969e-03
4.016074621709055009e+03 1.768811958093515102e+00 6.283778913610857386e-03
4.020090696330765240e+03 1.776545025345292794e+00 7.131052523042670510e-03
4.024110787027097558e+03 1.785837587271537741e+00 7.717622181292627115e-03
4.028134897814125907e+03 1.795504368633102033e+00 7.587491171200512127e-03
4.032163032711941469e+03 1.802007182810193564e+00 7.299512203298453780e-03
4.036195195744654484e+03 1.801373657958774466e+00 6.248705915979940566e-03
4.040231390940400615e+03 1.793373724157537596e+00 3.380047537725222595e-03
4.044271622331342314e+03 1.769813794962948439e+00 6.321620548033315794e-03
4.048315893953675186e+03 1.736921899713880446e+00 8.903048536571355268e-03
4.052364209847629809e+03 1.699327711809538011e+00 9.804327832430325892e-03
4.056416574057479011e+03 1.664373461603864124e+00 9.292086656867171515e-03
4.060472990631537868e+03 1.636963861595019276e+00 7.698010878493844432e-03
4.064533463622170530e+03 1.620157201293286109e+00 6.569762383469979553e-03
4.068597997085794304e+03 1.614360352654713227e+00 8.264449107439260714e-03
4.072666595082881486e+03 1.619193816771365979e+00 1.073112008528326160e-02
4.076739261677965715e+03 1.627381909792813497e+00 1.211046087432874653e-02
4.080816000939644709e+03 1.634777069931679483e+00 1.081735055807488133e-02
4.084896816940585722e+03 1.640828661391920074e+00 9.723507141189130856e-03
4.088981713757527814e+03 1.645100327502295956e+00 9.127972000038968650e-03
4.093070695471286854e+03 1.646505369358307824e+00 9.523951373249480920e-03
4.097163766166759160e+03 1.643110492061611749e+00 1.053747689918382857e-02
4.101260929932927866e+03 1.638015527028923835e+00 9.618126116190121172e-03
4.105362190862862008e+03 1.635543029006560456e+00 7.230620404194450582e-03
4.109467553053726078e+03 1.638339612027880365e+00 6.402714473671715020e-03
4.113577020606780934e+03 1.646791105231577568e+00 6.797852772082834359e-03
4.117690597627389252e+03 1.661749738166796497e+00 6.330992127922367707e-03
4.121808288225018259e+03 1.678574923949859743e+00 5.882926116414420765e-03
4.125930096513244280e+03 1.698297750712782994e+00 4.566680139487539619e-03
4.130056026609759101e+03 1.716827104884463662e+00 3.749641831946072101e-03
4.134186082636369974e+03 1.729471614561139736e+00 4.284774013799466652e-03
4.138320268719007800e+03 1.738369508365522176e+00 4.789984017129673283e-03
4.142458588987728035e+03 1.746268818370559694e+00 4.213595557041894049e-03
4.146601047576717065e+03 1.754847676216951147e+00 3.810430354189315964e-03
4.150747648624294925e+03 1.765571952054979743e+00 3.766852164284476868e-03
4.154898396272920763e+03 1.777990354388059746e+00 3.779797194344756538e-03
4.159053294669195566e+03 1.790575008897255405e+00 4.404681296987546235e-03
4.163212347963865795e+03 1.804991839495395878e+00 7.206212945094963261e-03
4.167375560311830668e+03 1.814718780912212504e+00 8.363277079386189153e-03
4.171542935872143971e+03 1.817412240775932997e+00 7.302170854999350154e-03
4.175714478808017702e+03 1.809102173748286413e+00 7.533738234938696862e-03
4.179890193286827525e+03 1.794865608902610044e+00 8.279225610936457105e-03
4.184070083480115500e+03 1.776633572472368527e+00 9.225840846727098934e-03
4.188254153563597356e+03 1.754317056456064616e+00 1.020055924478200510e-02
4.192442407717161586e+03 1.730975276331999657e+00 9.690353176767325244e-03
4.196634850124880359e+03 1.709755407511373004e+00 7.963132832345945142e-03
4.200831484975006788e+03 1.693043095543978804e+00 6.910628257226646490e-03
4.205032316459983122e+03 1.684209698374434128e+00 8.075920195785984967e-03
4.209237348776444378e+03 1.680219827780727426e+00 7.910761203734508959e-03
4.213446586125221984e+03 1.677978812818891940e+00 7.638450390236259727e-03
4.217660032711349231e+03 1.680532536161998935e+00 6.824247369500141720e-03
4.221877692744061278e+03 1.685156817340404123e+00 5.660840135125800622e-03
4.226099570436806971e+03 1.687919854292479815e+00 5.456243038082704035e-03
4.230325670007245208e+03 1.687314397046693282e+00 5.345110116451391204e-03
4.234555995677254032e+03 1.683035050187685400e+00 3.935725787707692637e-03
4.238790551672932452e+03 1.679682862399682897e+00 3.637224167666255979e-03
4.243029342224606808e+03 1.677789540843845462e+00 3.973365605617115888e-03
4.247272371566832589e+03 1.674098583343200053e+00 3.461423532420578909e-03
4.251519643938400804e+03 1.668415521749605057e+00 3.113797294021782361e-03
4.255771163582340705e+03 1.658408394980084521e+00 3.029188888937162961e-03
4.260026934745924336e+03 1.645732568002730378e+00 3.218674976706153382e-03
4.264286961680671993e+03 1.630798093592779718e+00 3.488589813557021503e-03
4.268551248642354039e+03 1.612648895732611276e+00 3.714636262169523830e-03
4.272819799890998183e+03 1.594824882539451538e+00 4.163632645258022805e-03
4.277092619690890388e+03 1.582074777801762977e+00 3.501914967448971697e-03
4.281369712310583054e+03 1.574908137821083187e+00 3.750172014992960833e-03
4.285651082022895025e+03 1.573318056978027846e+00 4.381616729102864524e-03
4.289936733104918858e+03 1.572244434890477160e+00 4.552901789317310988e-03
4.294226669838025373e+03 1.572813379429642167e+00 4.583262827395063327e-03
4.298520896507864563e+03 1.576375368302486146e+00 4.295278579087786000e-03
4.302819417404373780e+03 1.580861206879397240e+00 3.894123903363155750e-03
4.307122236821779552e+03 1.585862225321581720e+00 3.679614476456322635e-03
4.311429359058603040e+03 1.589182062434957965e+00 3.542552274583488786e-03
4.315740788417662770e+03 1.589722848912026310e+00 3.527004804745198247e-03
4.320056529206081905e+03 1.588453916920675280e+00 3.506858583188430557e-03
4.324376585735290064e+03 1.583219782917076213e+00 5.020142265047137023e-03
4.328700962321026054e+03 1.577941241496686464e+00 5.547284051471230472e-03
4.333029663283348782e+03 1.577126986441996115e+00 5.626876327453717193e-03
4.337362692946633615e+03 1.580252704856340840e+00 5.328518844333931734e-03
4.341700055639581478e+03 1.587782034737646786e+00 5.369856846107531369e-03
4.346041755695222491e+03 1.600330861144163785e+00 6.871263506663198226e-03
4.350387797450919606e+03 1.612419355678002209e+00 9.142383059252552971e-03
4.354738185248371337e+03 1.618243228593241767e+00 9.474422343274044311e-03
4.359092923433621763e+03 1.620827949998417505e+00 8.915005973741048015e-03
4.363452016357056891e+03 1.618687048412890572e+00 8.025545565055681313e-03
4.367815468373414660e+03 1.610902881489696625e+00 8.131752351156214254e-03
4.372183283841789489e+03 1.596826163150314226e+00 9.008888891851009328e-03
4.376555467125633186e+03 1.577547243080671180e+00 9.672363887398985685e-03
4.380932022592760404e+03 1.556485775335807231e+00 8.887837376707105608e-03
4.385312954615354101e+03 1.537625323618764250e+00 6.864565906613776664e-03
4.389698267569970994e+03 1.524129968760725040e+00 7.635943124749950024e-03
4.394087965837542470e+03 1.513040424542506646e+00 8.302977084113219441e-03
4.398482053803381859e+03 1.506351734055815239e+00 8.180388603813305154e-03
4.402880535857186260e+03 1.500308889982738592e+00 6.389242253469562018e-03
4.407283416393044718e+03 1.492135614211008710e+00 6.485062411388536723e-03
4.411690699809440048e+03 1.484692678311492431e+00 6.581192919708454825e-03
4.416102390509250654e+03 1.477625384964379451e+00 6.666653092587717690e-03
4.420518492899761441e+03 1.467559084982937856e+00 6.562544837966447983e-03
4.424939011392662906e+03 1.456821589735390443e+00 7.375312765335630995e-03
4.429363950404056595e+03 1.446160129742938505e+00 7.976987544172245079e-03
4.433793314354462382e+03 1.433574548591211473e+00 7.483374672116745174e-03
4.438227107668818462e+03 1.418259740311165196e+00 9.162833155183812417e-03
4.442665334776488635e+03 1.404753241904463046e+00 1.355916687850349488e-02
4.447108000111265937e+03 1.400092808893598439e+00 1.570185178133781320e-02
4.451555108111379013e+03 1.410394651434487834e+00 1.508610590922582380e-02
4.456006663219492111e+03 1.435589697068003989e+00 1.432602289910857134e-02
4.460462669882713271e+03 1.472212270209902085e+00 1.504245748304218130e-02
4.464923132552597053e+03 1.519066318234363555e+00 1.818914073727460889e-02
4.469388055685150903e+03 1.572672647138278812e+00 2.038038426120240484e-02
4.473857443740837880e+03 1.626342409823495982e+00 1.880460165692404012e-02
4.478331301184580298e+03 1.672117638461798617e+00 1.560295557491605568e-02
4.482809632485766087e+03 1.705703357692329281e+00 1.180240303112909880e-02
4.487292442118253348e+03 1.719361898438605873e+00 1.343426662283432604e-02
4.491779734560373072e+03 1.716651997911035288e+00 1.571140581202349826e-02
4.496271514294934605e+03 1.702074091738353001e+00 1.555513609904980547e-02
4.500767785809231100e+03 1.683184008300476542e+00 1.276575883819043924e-02
4.505268553595042249e+03 1.664465391956804430e+00 7.053625570262521231e-03
4.509773822148638828e+03 1.655322163761465459e+00 5.028957430190952003e-03
