# starting wavelength: 3467.510
# ending wavelength: 7367.620
# wav flux eflux
3.470775009469947236e+03 2.695440949358566929e+00 7.160364876003550740e-03
3.474245784479418489e+03 2.682537904240502424e+00 5.381814203647919230e-03
3.477720030263898934e+03 2.676770446693963024e+00 5.763639975258709816e-03
3.481197750294164052e+03 2.674121907576325174e+00 5.680388812935171193e-03
3.484678948044459503e+03 2.672845438493837378e+00 5.308337734795257404e-03
3.488163626992504760e+03 2.672021883182446267e+00 4.809560492515302030e-03
3.491651790619498570e+03 2.671161660059160781e+00 3.928962809100792694e-03
3.495143442410119405e+03 2.670707624525984869e+00 3.637856135045157424e-03
3.498638585852530468e+03 2.670630663551753159e+00 3.154887386232567512e-03
3.502137224438384237e+03 2.670563032614723831e+00 2.842353968543087465e-03
3.505639361662823831e+03 2.670700971885726638e+00 2.580293184888340745e-03
3.509145001024487556e+03 2.670847629143357160e+00 2.382216920457144900e-03
3.512654146025513455e+03 2.671829443607874222e+00 2.300365476740034564e-03
3.516166800171540217e+03 2.672311063877653492e+00 2.199614181690257367e-03
3.519682966971712631e+03 2.671857159882708554e+00 2.099683302370793959e-03
3.523202649938685681e+03 2.671129941670696617e+00 2.034361589439032461e-03
3.526725852588625457e+03 2.669326697653179981e+00 2.008501522176591673e-03
3.530252578441215064e+03 2.666729833303198571e+00 1.985954743151587421e-03
3.533782831019657806e+03 2.662700196041782874e+00 1.998083966967487742e-03
3.537316613850678550e+03 2.657986678830014604e+00 1.997192561269301066e-03
3.540853930464530094e+03 2.652402278530916924e+00 2.044440085403761553e-03
3.544394784394995895e+03 2.645386979223459001e+00 2.034199482698317938e-03
3.547939179179392340e+03 2.637556018404483282e+00 2.023955099236229068e-03
3.551487118358572843e+03 2.628578334671761496e+00 1.939824369999878541e-03
3.555038605476932389e+03 2.618152602831405940e+00 2.029329389044648348e-03
3.558593644082410719e+03 2.606745890706433588e+00 2.168179864878414225e-03
3.562152237726494150e+03 2.594753530256986185e+00 2.231766191149342493e-03
3.565714389964221937e+03 2.581313453205887232e+00 2.486242536191305384e-03
3.569280104354187188e+03 2.567036051032045130e+00 2.571080900038202281e-03
3.572849384458542772e+03 2.553066096745279179e+00 2.517579084214992442e-03
3.576422233843002232e+03 2.538047286653152046e+00 2.346192100654380212e-03
3.579998656076846601e+03 2.522906221028311968e+00 1.971908295900778787e-03
3.583578654732924406e+03 2.507939719286777613e+00 1.446678174020803913e-03
3.587162233387658489e+03 2.493817307740693323e+00 1.441793946739439907e-03
3.590749395621047370e+03 2.481401643697539683e+00 1.822741689158513360e-03
3.594340145016669794e+03 2.469055756550743386e+00 1.794119743200324035e-03
3.597934485161687462e+03 2.456917701310556090e+00 1.662168100748525300e-03
3.601532419646850485e+03 2.444372032457167609e+00 1.640543645782117617e-03
3.605133952066498296e+03 2.432014191376670631e+00 1.651679022518628536e-03
3.608739086018566013e+03 2.420217230043809398e+00 1.633977513033833080e-03
3.612347825104585809e+03 2.408768493165444724e+00 1.682905187661795773e-03
3.615960172929691907e+03 2.397500132635327574e+00 1.675582325024255236e-03
3.619576133102622407e+03 2.386787605161731829e+00 1.610743423298217859e-03
3.623195709235726554e+03 2.375614467054325551e+00 1.626585182269033470e-03
3.626818904944963379e+03 2.364770478832234346e+00 1.770183214125213046e-03
3.630445723849909427e+03 2.354366078496998416e+00 1.846668674537715708e-03
3.634076169573760581e+03 2.342694730711986750e+00 1.871542702837737139e-03
3.637710245743335690e+03 2.330555783613482479e+00 1.903027338619614180e-03
3.641347955989080219e+03 2.318313515459765384e+00 1.920733795178935274e-03
3.644989303945070333e+03 2.305170714126923315e+00 1.922406955190273867e-03
3.648634293249016537e+03 2.291694974535400053e+00 1.998863203537830282e-03
3.652282927542266862e+03 2.278982857531181683e+00 2.039298030621786509e-03
3.655935210469810499e+03 2.265574911227183463e+00 2.310642099367148528e-03
3.659591145680281443e+03 2.252183917430053750e+00 2.586306504069887414e-03
3.663250736825963031e+03 2.239198271033915333e+00 2.824302211686711452e-03
3.666913987562790226e+03 2.227289565330010657e+00 2.849635294768497473e-03
3.670580901550354156e+03 2.216623387365696196e+00 2.784279687071929479e-03
3.674251482451905758e+03 2.207486737889645223e+00 2.691053923320831359e-03
3.677925733934358959e+03 2.198884691988999940e+00 2.286305850981282164e-03
3.681603659668294313e+03 2.192699172304561461e+00 2.254282757209017957e-03
3.685285263327964003e+03 2.188428389205371527e+00 2.514753428323929924e-03
3.688970548591293209e+03 2.185448907425768361e+00 2.662781701804250046e-03
3.692659519139885560e+03 2.183530022106984880e+00 2.719189628133355553e-03
3.696352178659026777e+03 2.184179532969431126e+00 2.486887503274780482e-03
3.700048530837686940e+03 2.185944306420138261e+00 1.905828726913141044e-03
3.703748579368525952e+03 2.188415523752578196e+00 1.409919871509709164e-03
3.707452327947895355e+03 2.189785325352910039e+00 1.441333085559039174e-03
3.711159780275844696e+03 2.190769130476621029e+00 1.568205439043560004e-03
3.714870940056121526e+03 2.191626446702275910e+00 1.743321540318643710e-03
3.718585810996179134e+03 2.192542871950629468e+00 1.665276905498760647e-03
3.722304396807176545e+03 2.193441492596242881e+00 1.496604023277707139e-03
3.726026701203984885e+03 2.194172766629839177e+00 1.453664033751237610e-03
3.729752727905190113e+03 2.194054140327467817e+00 1.472075618818616781e-03
3.733482480633096657e+03 2.194203297201199554e+00 1.651882489266458210e-03
3.737215963113731050e+03 2.193347481015302414e+00 1.745342159157043218e-03
3.740953179076846027e+03 2.193346628817796518e+00 1.490318963016674025e-03
3.744694132255923705e+03 2.191038146376687035e+00 1.269633981864160335e-03
3.748438826388181042e+03 2.186994316833236418e+00 1.121698165473488827e-03
3.752187265214570289e+03 2.180728704473139601e+00 1.150898791368528459e-03
3.755939452479786269e+03 2.172838271179714731e+00 1.195039536933111424e-03
3.759695391932267285e+03 2.163794891657866426e+00 1.216934362185291768e-03
3.763455087324201031e+03 2.152991527977672792e+00 1.254984641119526612e-03
3.767218542411526414e+03 2.140260109333574690e+00 1.243278890555358195e-03
3.770985760953939007e+03 2.126140215163862202e+00 1.275739643022740432e-03
3.774756746714894234e+03 2.110945564709806099e+00 1.161725167805346178e-03
3.778531503461610555e+03 2.096126145552140052e+00 1.206594910206306446e-03
3.782310034965073100e+03 2.080249334453144971e+00 1.775808958905699883e-03
3.786092345000039586e+03 2.066075174805799719e+00 1.974764352496978168e-03
3.789878437345040766e+03 2.053735933186620510e+00 2.157903404925513337e-03
3.793668315782387253e+03 2.044098973180870082e+00 2.202832510427660262e-03
3.797461984098170888e+03 2.037298979265266485e+00 2.499818563717098614e-03
3.801259446082270188e+03 2.033746370199169817e+00 2.844774124092141945e-03
3.805060705528353537e+03 2.034588252023560084e+00 3.127495052716504007e-03
3.808865766233883278e+03 2.043566489275368436e+00 2.795034343398018414e-03
3.812674632000118436e+03 2.057975185492027403e+00 2.551019403355621763e-03
3.816487306632119726e+03 2.079883052360973927e+00 2.596982823272196358e-03
3.820303793938753188e+03 2.108856371917634309e+00 4.760481378374398220e-03
3.824124097732693372e+03 2.143155575253405942e+00 7.099972631872408964e-03
3.827948221830427428e+03 2.177387801475468176e+00 8.550298510341149127e-03
3.831776170052258749e+03 2.205845610188149841e+00 8.035039800700626358e-03
3.835607946222312421e+03 2.224856111004950954e+00 7.232072668181528316e-03
3.839443554168536139e+03 2.234333721272423023e+00 7.327767601724998608e-03
3.843282997722705659e+03 2.235037681001008192e+00 8.237362125846494493e-03
3.847126280720429804e+03 2.230886302564635049e+00 8.759812588710553030e-03
3.850973407001151372e+03 2.214819675167337021e+00 9.853739285269197401e-03
3.854824380408153957e+03 2.194426934586902522e+00 9.728863922290048941e-03
3.858679204788563311e+03 2.171725205711229290e+00 8.326661966688755911e-03
3.862537883993353262e+03 2.149974089416089473e+00 6.294127065228006211e-03
3.866400421877347981e+03 2.132314398059042659e+00 6.152075933383583869e-03
3.870266822299226533e+03 2.119513847396103490e+00 7.253830868339588775e-03
3.874137089121526969e+03 2.109918342584904405e+00 6.784991426084027201e-03
3.878011226210649966e+03 2.101187137915549119e+00 5.067589955220965642e-03
3.881889237436861549e+03 2.090688759380842754e+00 3.513290138286137392e-03
3.885771126674299921e+03 2.076024722324978367e+00 4.058479249332164543e-03
3.889656897800975457e+03 2.058789427788827453e+00 4.030238991527975399e-03
3.893546554698777527e+03 2.039945027137556544e+00 3.860365513771237076e-03
3.897440101253477678e+03 2.018653397857053999e+00 4.407878787528773587e-03
3.901337541354732366e+03 1.995281239520746208e+00 4.970718842447745082e-03
3.905238878896088409e+03 1.969525001629744310e+00 4.584512713981280137e-03
3.909144117774985716e+03 1.939131569101967489e+00 4.406245639201340769e-03
3.913053261892762293e+03 1.905506797826504561e+00 5.415722656486851409e-03
3.916966315154656058e+03 1.871549363721946024e+00 6.674383529919595062e-03
3.920883281469812118e+03 1.840256638511498899e+00 7.145380447481587162e-03
3.924804164751283224e+03 1.812446995345150080e+00 6.770589996783846903e-03
3.928728968916035683e+03 1.791297381670180489e+00 5.843190159579009571e-03
3.932657697884953450e+03 1.777926620063681629e+00 4.901599702235773411e-03
3.936590355582839493e+03 1.773836960619502578e+00 5.014136066957434155e-03
3.940526945938423523e+03 1.778933164489153507e+00 5.644190296842492745e-03
3.944467472884363360e+03 1.792920441894417571e+00 5.653414661207947604e-03
3.948411940357249023e+03 1.810690574660520635e+00 4.543182675174873252e-03
3.952360352297607733e+03 1.830172951249461999e+00 2.685247960398423530e-03
3.956312712649906643e+03 1.848471622234464817e+00 1.976904866122703754e-03
3.960269025362557841e+03 1.863459903824168151e+00 1.977559067845167246e-03
3.964229294387921527e+03 1.876089041746014097e+00 1.552427737638950892e-03
3.968193523682310570e+03 1.886979466615785750e+00 1.866499895715649634e-03
3.972161717205994591e+03 1.893866259902709404e+00 2.099837524204452213e-03
3.976133878923201792e+03 1.897185977374792998e+00 2.236352839848796455e-03
3.980110012802126221e+03 1.896069998753830976e+00 1.761327493021034619e-03
3.984090122814929600e+03 1.889380009110997793e+00 1.757295171739064890e-03
3.988074212937745870e+03 1.877477903893850275e+00 2.735527815562015675e-03
3.992062287150684824e+03 1.862525767978122193e+00 3.476753909891680625e-03
3.996054349437837118e+03 1.846997782058227733e+00 3.757827964787852516e-03
4.000050403787276082e+03 1.831475758420987088e+00 3.548366883780306163e-03
4.004050454191064546e+03 1.818303606269580985e+00 3.030250962311343849e-03
4.008054504645257111e+03 1.808850468006737433e+00 2.355177362840907025e-03
4.012062559149903791e+03 1.803819549408015588e+00 2.232434664465746468e-03
4.016074621709055009e+03 1.803848848591896425e+00 2.770193739944029013e-03
4.020090696330765240e+03 1.808842944020484067e+00 2.828108358026016136e-03
4.024110787027097558e+03 1.815440720430468780e+00 2.280905120217965962e-03
4.028134897814125907e+03 1.823244679858405215e+00 1.647137374382119396e-03
4.032163032711941469e+03 1.830868294240272087e+00 1.034164641568997758e-03
4.036195195744654484e+03 1.837134502386304602e+00 8.807164225220908034e-04
4.040231390940400615e+03 1.841908192603619598e+00 8.792065347034486167e-04
4.044271622331342314e+03 1.844917667276251283e+00 8.780475716628735779e-04
4.048315893953675186e+03 1.845736374698402349e+00 7.289151360965968928e-04
4.052364209847629809e+03 1.845244921824801265e+00 7.714833882657984180e-04
4.056416574057479011e+03 1.843509055721872292e+00 9.000136466697269532e-04
4.060472990631537868e+03 1.840890224331833025e+00 1.085902006829549430e-03
4.064533463622170530e+03 1.837256847914307434e+00 1.171932312580823950e-03
4.068597997085794304e+03 1.834149355198686715e+00 1.142162514446522009e-03
4.072666595082881486e+03 1.832474446022372749e+00 1.194754306941400593e-03
4.076739261677965715e+03 1.831066999075027013e+00 1.194051660015935578e-03
4.080816000939644709e+03 1.830059709395502221e+00 1.154432821023754566e-03
4.084896816940585722e+03 1.830631759336357023e+00 1.223720751154660146e-03
4.088981713757527814e+03 1.832046052415466031e+00 1.220952372499640049e-03
4.093070695471286854e+03 1.834503298129414928e+00 1.120986568325887467e-03
4.097163766166759160e+03 1.838016930414555050e+00 8.971535488562699294e-04
4.101260929932927866e+03 1.841260796135151256e+00 9.098028478635536995e-04
4.105362190862862008e+03 1.845067848253373111e+00 9.344011794498810215e-04
4.109467553053726078e+03 1.848908576539853188e+00 9.736537599885831300e-04
4.113577020606780934e+03 1.853226294434401122e+00 8.471681324362558951e-04
4.117690597627389252e+03 1.858610776435739798e+00 9.930902630142933625e-04
4.121808288225018259e+03 1.863910229813995345e+00 1.057325265568414283e-03
4.125930096513244280e+03 1.869290702670231452e+00 1.150890794590339172e-03
4.130056026609759101e+03 1.873920993073126207e+00 1.060993505108956923e-03
4.134186082636369974e+03 1.877335631622800705e+00 9.540863476184934921e-04
4.138320268719007800e+03 1.879497367665559304e+00 9.159253685680984009e-04
4.142458588987728035e+03 1.879671140318137645e+00 8.990138072972178379e-04
4.146601047576717065e+03 1.878110972878380247e+00 8.902319220531045582e-04
4.150747648624294925e+03 1.875384212161227859e+00 7.756891020970709026e-04
4.154898396272920763e+03 1.870162233200961532e+00 8.290717468991239472e-04
4.159053294669195566e+03 1.862786185288458407e+00 7.302192242348459110e-04
4.163212347963865795e+03 1.854445686946619487e+00 7.266099192751021346e-04
4.167375560311830668e+03 1.844643322747493652e+00 6.869351303712007686e-04
4.171542935872143971e+03 1.833758187658310224e+00 6.932953331269093265e-04
4.175714478808017702e+03 1.822129524148969448e+00 6.457414490408840352e-04
4.179890193286827525e+03 1.809353138749461021e+00 7.582277950171705753e-04
4.184070083480115500e+03 1.796258134841356657e+00 7.714114906888794526e-04
4.188254153563597356e+03 1.782573136352902932e+00 7.081571663066270556e-04
4.192442407717161586e+03 1.769306380951453539e+00 6.156620287923931676e-04
4.196634850124880359e+03 1.757082994495898998e+00 6.308287045712262847e-04
4.200831484975006788e+03 1.744930213973895361e+00 7.722234070664357308e-04
4.205032316459983122e+03 1.734361384532948858e+00 7.784598608012429028e-04
4.209237348776444378e+03 1.724737828390271233e+00 7.653084011299701945e-04
4.213446586125221984e+03 1.716322006959397184e+00 6.542713768080259682e-04
4.217660032711349231e+03 1.710120789614189452e+00 7.863405868215492082e-04
4.221877692744061278e+03 1.705102675752865338e+00 8.455427096909819964e-04
4.226099570436806971e+03 1.701340926806087728e+00 9.980912459654268411e-04
4.230325670007245208e+03 1.698138317606195935e+00 8.768077569614728421e-04
4.234555995677254032e+03 1.694735497723639295e+00 8.539655771796721530e-04
4.238790551672932452e+03 1.691734241073350686e+00 1.080302949512943747e-03
4.243029342224606808e+03 1.687858529800036145e+00 1.016585216984479834e-03
4.247272371566832589e+03 1.683190142831748615e+00 9.427940953817810863e-04
4.251519643938400804e+03 1.677552385986850858e+00 9.397549585645265839e-04
4.255771163582340705e+03 1.670941571727694086e+00 9.570131635807647584e-04
4.260026934745924336e+03 1.663107693335267756e+00 8.721611828662723500e-04
4.264286961680671993e+03 1.654913223026543978e+00 8.434509120835128118e-04
4.268551248642354039e+03 1.646239018627802198e+00 8.174629125845576461e-04
4.272819799890998183e+03 1.637497115401116421e+00 8.104799269352411456e-04
4.277092619690890388e+03 1.628789429633908714e+00 8.588834443196548089e-04
4.281369712310583054e+03 1.620098660331863893e+00 9.581850382824746992e-04
4.285651082022895025e+03 1.612835187367661849e+00 1.031975110862732052e-03
4.289936733104918858e+03 1.606767970095496878e+00 1.002092012141225959e-03
4.294226669838025373e+03 1.602363796066351043e+00 8.972746195402741057e-04
4.298520896507864563e+03 1.600649557684041602e+00 8.878778408020986503e-04
4.302819417404373780e+03 1.601042360841833823e+00 8.738589034073660942e-04
4.307122236821779552e+03 1.604355730509389621e+00 9.203080530156757238e-04
4.311429359058603040e+03 1.610191254502050695e+00 7.583371208625755769e-04
4.315740788417662770e+03 1.619240412155724451e+00 9.642769150598275206e-04
4.320056529206081905e+03 1.631462186586894569e+00 1.688114377716262672e-03
4.324376585735290064e+03 1.643606432195529266e+00 1.800764093157628150e-03
4.328700962321026054e+03 1.655775859355306689e+00 1.899992453685358032e-03
4.333029663283348782e+03 1.666390346533900058e+00 1.817122520497476291e-03
4.337362692946633615e+03 1.674463572106535736e+00 1.579023012235135576e-03
4.341700055639581478e+03 1.679329207163971382e+00 1.429977533095509604e-03
4.346041755695222491e+03 1.680566548843189123e+00 1.532534291190371404e-03
4.350387797450919606e+03 1.678634940347950355e+00 1.670408703730339372e-03
4.354738185248371337e+03 1.673189100120897610e+00 1.859773734704247205e-03
4.359092923433621763e+03 1.665090116413191268e+00 1.640598323145937582e-03
4.363452016357056891e+03 1.655245102425780823e+00 1.271493170740150593e-03
4.367815468373414660e+03 1.644114388503780333e+00 1.072485443169065873e-03
4.372183283841789489e+03 1.632536824365051098e+00 1.047034990679427671e-03
4.376555467125633186e+03 1.620852083115850384e+00 1.052722152398399749e-03
4.380932022592760404e+03 1.609443637342190758e+00 1.364725761664735198e-03
4.385312954615354101e+03 1.598536903475890947e+00 1.969373746880654936e-03
4.389698267569970994e+03 1.589314700188881213e+00 2.043297785236894079e-03
4.394087965837542470e+03 1.582771235397833820e+00 1.816143542851568482e-03
4.398482053803381859e+03 1.579134406025897830e+00 2.501074523211670869e-03
4.402880535857186260e+03 1.577241846372990697e+00 3.102937338850317653e-03
4.407283416393044718e+03 1.575349618896454640e+00 3.500653456366445773e-03
4.411690699809440048e+03 1.573637883673732141e+00 3.361206778134847618e-03
4.416102390509250654e+03 1.570606456292286124e+00 2.931401463122657123e-03
4.420518492899761441e+03 1.566378279120275385e+00 2.895564036787995604e-03
4.424939011392662906e+03 1.561436639177219643e+00 3.314406109760794413e-03
4.429363950404056595e+03 1.556040229106897099e+00 3.832427820056235387e-03
4.433793314354462382e+03 1.551780355340243611e+00 3.969842418322551414e-03
4.438227107668818462e+03 1.549771972844796952e+00 3.332483510195106014e-03
4.442665334776488635e+03 1.552577915400035646e+00 2.386461294609408361e-03
4.447108000111265937e+03 1.560848785904068281e+00 2.261400528792488745e-03
4.451555108111379013e+03 1.574053134800875275e+00 2.496221198794608669e-03
4.456006663219492111e+03 1.592295604681911669e+00 2.423215102025739684e-03
4.460462669882713271e+03 1.614255525128479141e+00 1.772373811877497787e-03
4.464923132552597053e+03 1.637566179699048829e+00 1.029451193562602816e-03
4.469388055685150903e+03 1.661078582491614553e+00 8.844486667193395945e-04
4.473857443740837880e+03 1.683828960718827705e+00 1.345086856601210431e-03
4.478331301184580298e+03 1.704761790727239656e+00 1.875437986334052174e-03
4.482809632485766087e+03 1.721825867997979209e+00 2.000905853956528192e-03
4.487292442118253348e+03 1.733813745129821893e+00 1.949371099817005229e-03
4.491779734560373072e+03 1.740672899477489377e+00 1.833298570080772868e-03
4.496271514294934605e+03 1.741366283914512536e+00 1.591321746890707843e-03
4.500767785809231100e+03 1.735307573239433410e+00 1.938488721134938586e-03
4.505268553595042249e+03 1.723811136755471374e+00 2.422948238043363522e-03
4.509773822148638828e+03 1.707808803855603852e+00 2.936841911076118559e-03
4.514283595970789065e+03 1.688568055391153733e+00 3.038810559820560430e-03
4.518797879566761367e+03 1.667860904687130219e+00 2.489605553560718301e-03
