# starting wavelength: 3460.580
# ending wavelength: 7367.620
# wav flux eflux
3.463843857910266706e+03 2.386383293992460519e+00 1.493403055052852368e-01
3.467307701768178049e+03 2.427070910555686911e+00 1.459159100301129219e-01
3.470775009469947236e+03 2.486676607939195094e+00 1.361354073760207006e-01
3.474245784479418489e+03 2.536599664990923930e+00 1.264102418807196981e-01
3.477720030263898934e+03 2.548641785146810612e+00 1.020816821241067873e-01
3.481197750294164052e+03 2.539659905339311408e+00 8.236655101932786882e-02
3.484678948044459503e+03 2.519975973810638870e+00 6.867163814626747742e-02
3.488163626992504760e+03 2.498455157984448061e+00 5.679325472866993130e-02
3.491651790619498570e+03 2.484764359938791856e+00 5.191808701806602255e-02
3.495143442410119405e+03 2.484187403545972117e+00 5.121044291557258488e-02
3.498638585852530468e+03 2.483652557066235556e+00 4.770443551549030659e-02
3.502137224438384237e+03 2.483288792120322164e+00 4.464995975802284883e-02
3.505639361662823831e+03 2.478644561704276938e+00 4.185280863995397699e-02
3.509145001024487556e+03 2.470241008048056131e+00 3.950419000557715138e-02
3.512654146025513455e+03 2.460373332122776091e+00 3.770985394997292128e-02
3.516166800171540217e+03 2.450038803613574068e+00 3.640901084210715344e-02
3.519682966971712631e+03 2.433764727920358251e+00 3.519567229507733486e-02
3.523202649938685681e+03 2.411852872665174896e+00 3.487574963819671525e-02
3.526725852588625457e+03 2.383767743765830449e+00 3.487824871695522494e-02
3.530252578441215064e+03 2.359456466729897173e+00 3.585167008472098932e-02
3.533782831019657806e+03 2.332321989027579701e+00 3.643499279421592851e-02
3.537316613850678550e+03 2.309536838594904218e+00 3.670005970880251683e-02
3.540853930464530094e+03 2.285569533831806943e+00 3.809811598480600248e-02
3.544394784394995895e+03 2.274675595008291751e+00 3.877978476948224645e-02
3.547939179179392340e+03 2.263525487789236568e+00 3.861288377837165248e-02
3.551487118358572843e+03 2.260019704780654504e+00 3.968811341745311083e-02
3.555038605476932389e+03 2.248474588110318084e+00 3.976614966925023226e-02
3.558593644082410719e+03 2.225809574795314383e+00 3.828291122011839159e-02
3.562152237726494150e+03 2.200715693326219746e+00 3.764472348409829416e-02
3.565714389964221937e+03 2.168890160707869441e+00 3.741020470121767666e-02
3.569280104354187188e+03 2.150133443165624492e+00 3.788978359692882908e-02
3.572849384458542772e+03 2.135177332779849557e+00 3.840227156665159541e-02
3.576422233843002232e+03 2.128515403527644789e+00 3.924873798102521821e-02
3.579998656076846601e+03 2.138583231240466009e+00 3.897671035457440231e-02
3.583578654732924406e+03 2.182914397006779694e+00 3.811363113878601244e-02
3.587162233387658489e+03 2.221708812324290516e+00 4.003024432569143171e-02
3.590749395621047370e+03 2.256222626780667095e+00 4.206257285298720811e-02
3.594340145016669794e+03 2.277830652804447187e+00 4.330487934705350150e-02
3.597934485161687462e+03 2.281970063154409978e+00 4.312711023176950265e-02
3.601532419646850485e+03 2.278320981777983256e+00 4.295463021695936773e-02
3.605133952066498296e+03 2.263002314562830186e+00 4.286752692219399780e-02
3.608739086018566013e+03 2.248293319430982429e+00 4.422712785471058505e-02
3.612347825104585809e+03 2.227756091391381865e+00 4.378527474020153104e-02
3.615960172929691907e+03 2.203675062764570924e+00 4.323929546497480569e-02
3.619576133102622407e+03 2.167991831725852414e+00 4.327511514958760908e-02
3.623195709235726554e+03 2.126910714607983532e+00 4.474157528179124876e-02
3.626818904944963379e+03 2.081437913846340138e+00 4.489705316243114419e-02
3.630445723849909427e+03 2.034959819843228601e+00 4.511528321103376593e-02
3.634076169573760581e+03 1.983005934786540747e+00 4.630164709377063148e-02
3.637710245743335690e+03 1.930171790384820563e+00 4.677640217133000045e-02
3.641347955989080219e+03 1.881052612538898439e+00 4.580046579886073999e-02
3.644989303945070333e+03 1.836105125887402378e+00 4.364209716432698033e-02
3.648634293249016537e+03 1.784145081110763753e+00 4.187404174740051721e-02
3.652282927542266862e+03 1.749536434370125182e+00 4.217945773760640310e-02
3.655935210469810499e+03 1.718747261006221994e+00 4.354716054409498577e-02
3.659591145680281443e+03 1.706651302177040197e+00 4.560685182397035409e-02
3.663250736825963031e+03 1.726739750571696597e+00 3.566563714617204672e-02
3.666913987562790226e+03 1.724476400770820872e+00 2.833911720643300658e-02
3.670580901550354156e+03 1.712055697567089974e+00 2.779872145849077505e-02
3.674251482451905758e+03 1.691210786152980372e+00 3.174327168017668926e-02
3.677925733934358959e+03 1.664361925455760893e+00 3.345016436742131311e-02
3.681603659668294313e+03 1.637791940747611363e+00 3.162758142443170689e-02
3.685285263327964003e+03 1.611520356728509462e+00 2.496269563560597413e-02
3.688970548591293209e+03 1.597979612621415857e+00 2.187975128627806312e-02
3.692659519139885560e+03 1.603362542221274722e+00 2.183865992035302975e-02
3.696352178659026777e+03 1.622078593342234365e+00 2.302309531561879188e-02
3.700048530837686940e+03 1.649087138844156808e+00 2.531126342207388330e-02
3.703748579368525952e+03 1.678391770525439641e+00 2.638814404855780935e-02
3.707452327947895355e+03 1.711939823398373139e+00 2.749615479603524995e-02
3.711159780275844696e+03 1.747830003624714745e+00 2.809997996611935875e-02
3.714870940056121526e+03 1.783921781819085561e+00 2.699116163663590681e-02
3.718585810996179134e+03 1.822093106969791210e+00 2.453846099780821258e-02
3.722304396807176545e+03 1.852422243653367051e+00 2.288555942136441188e-02
3.726026701203984885e+03 1.887173494093031811e+00 2.198518146686800900e-02
3.729752727905190113e+03 1.907182906576984749e+00 2.337325811109536300e-02
3.733482480633096657e+03 1.915026508676215045e+00 2.567657382959496332e-02
3.737215963113731050e+03 1.898352927789026312e+00 1.852417980024138183e-02
3.740953179076846027e+03 1.897280640812081698e+00 1.320259247777882082e-02
3.744694132255923705e+03 1.902603368763068792e+00 1.278261808197052665e-02
3.748438826388181042e+03 1.915654437379902264e+00 1.704134989729292129e-02
3.752187265214570289e+03 1.928324516433451707e+00 1.949853911377002688e-02
3.755939452479786269e+03 1.942349833527972303e+00 1.904974025236215451e-02
3.759695391932267285e+03 1.947682921910634857e+00 1.570494663716185887e-02
3.763455087324201031e+03 1.939827631625420157e+00 1.345552599440443843e-02
3.767218542411526414e+03 1.926268330839165266e+00 1.257384228197844060e-02
3.770985760953939007e+03 1.896089720647337717e+00 1.509070340994544783e-02
3.774756746714894234e+03 1.857482859559467459e+00 1.845323518874757152e-02
3.778531503461610555e+03 1.807950971961639564e+00 1.807519760545382714e-02
3.782310034965073100e+03 1.762888184258210700e+00 1.649744176037414717e-02
3.786092345000039586e+03 1.719366262967702008e+00 1.514748949868535352e-02
3.789878437345040766e+03 1.677299534520989788e+00 1.349047816999442498e-02
3.793668315782387253e+03 1.642830781020916842e+00 1.246076542265084873e-02
3.797461984098170888e+03 1.620744059787343705e+00 1.281809631335285860e-02
3.801259446082270188e+03 1.608040691360889785e+00 1.253364395168165245e-02
3.805060705528353537e+03 1.606530825634215898e+00 1.266896081917701609e-02
3.808865766233883278e+03 1.618697979036076040e+00 1.024054127835333401e-02
3.812674632000118436e+03 1.633554008176239636e+00 1.002703237350844462e-02
3.816487306632119726e+03 1.652254179683679380e+00 1.020897313840863317e-02
3.820303793938753188e+03 1.672964484956588782e+00 9.233546642608593535e-03
3.824124097732693372e+03 1.694008129067263946e+00 8.489698028289872564e-03
3.827948221830427428e+03 1.722303971882612972e+00 7.889962149024072960e-03
3.831776170052258749e+03 1.761683812243732383e+00 1.387741776279572715e-02
3.835607946222312421e+03 1.806495953168061996e+00 2.484880268235488757e-02
3.839443554168536139e+03 1.840947059911687278e+00 2.764108440726240415e-02
3.843282997722705659e+03 1.850734333138339682e+00 2.542406936789337948e-02
3.847126280720429804e+03 1.827751429680201989e+00 2.231474880954783732e-02
3.850973407001151372e+03 1.768684987481327520e+00 2.530225835026243125e-02
3.854824380408153957e+03 1.683051966586710968e+00 3.697129784330450281e-02
3.858679204788563311e+03 1.590740281842833337e+00 5.079003627756167177e-02
3.862537883993353262e+03 1.511045767224769687e+00 6.011980236866691640e-02
3.866400421877347981e+03 1.472305136299407069e+00 5.621313239909615789e-02
3.870266822299226533e+03 1.491333342851386190e+00 4.816448328317184113e-02
3.874137089121526969e+03 1.568925537877697840e+00 5.207572897107382026e-02
3.878011226210649966e+03 1.696555185053986836e+00 6.631764205193986517e-02
3.881889237436861549e+03 1.847754268420279233e+00 7.514395888815705860e-02
3.885771126674299921e+03 2.004687329561475551e+00 7.229066297170937128e-02
3.889656897800975457e+03 2.142854905066772453e+00 5.985006855745908516e-02
3.893546554698777527e+03 2.233325205700626093e+00 4.508441725799241379e-02
3.897440101253477678e+03 2.261406016692210752e+00 4.334065313992514767e-02
3.901337541354732366e+03 2.215843248796458997e+00 5.492357231944477308e-02
3.905238878896088409e+03 2.119065447060101803e+00 5.784057554167261472e-02
3.909144117774985716e+03 2.002079132649602133e+00 4.842480681808845194e-02
3.913053261892762293e+03 1.904307536684997748e+00 3.179249945511209569e-02
3.916966315154656058e+03 1.840898181254148724e+00 2.463916041923377293e-02
3.920883281469812118e+03 1.820103602796903086e+00 3.424820091826117491e-02
3.924804164751283224e+03 1.824172360323996767e+00 4.064273045652683908e-02
3.928728968916035683e+03 1.847405875777119233e+00 3.700766820851646849e-02
3.932657697884953450e+03 1.863108212956620990e+00 2.760397168297692647e-02
3.936590355582839493e+03 1.859028512652446397e+00 2.666198498471449713e-02
3.940526945938423523e+03 1.844135887204205959e+00 3.344868954116207715e-02
3.944467472884363360e+03 1.829951418136888552e+00 3.840496825070210257e-02
3.948411940357249023e+03 1.823238552161094761e+00 3.751133972854304305e-02
3.952360352297607733e+03 1.829678655532875231e+00 3.381614587717940434e-02
3.956312712649906643e+03 1.849629899088176543e+00 2.876524277832713875e-02
3.960269025362557841e+03 1.891171472629169070e+00 3.104838474068377652e-02
3.964229294387921527e+03 1.951827667961842039e+00 3.566672281847781123e-02
3.968193523682310570e+03 2.019725421897011763e+00 3.480780001779745086e-02
3.972161717205994591e+03 2.084701171344813364e+00 2.746466620337931902e-02
3.976133878923201792e+03 2.126986355400261708e+00 1.796716618509649338e-02
3.980110012802126221e+03 2.134407921797806029e+00 1.478401265906482097e-02
3.984090122814929600e+03 2.103299709436837972e+00 1.703625321333056622e-02
3.988074212937745870e+03 2.042416729784220397e+00 1.833765863015879988e-02
3.992062287150684824e+03 1.959653704561963083e+00 1.737231172004043492e-02
3.996054349437837118e+03 1.870889788049235447e+00 1.156333001471589704e-02
4.000050403787276082e+03 1.785793010297203054e+00 6.902418830181834310e-03
4.004050454191064546e+03 1.717269011744434248e+00 6.599230006707004076e-03
4.008054504645257111e+03 1.665542619424196680e+00 6.281075450553232423e-03
4.012062559149903791e+03 1.631130334357898004e+00 6.289962562216882061e-03
4.016074621709055009e+03 1.612856336853152994e+00 7.396899716280906298e-03
4.020090696330765240e+03 1.613259768576509101e+00 1.090730901166829005e-02
4.024110787027097558e+03 1.626114971365872908e+00 1.231951122633340341e-02
4.028134897814125907e+03 1.641832830042292857e+00 1.244539362534459112e-02
4.032163032711941469e+03 1.656153863423373451e+00 1.200105941128312877e-02
4.036195195744654484e+03 1.663938687041021103e+00 7.513073789836271360e-03
4.040231390940400615e+03 1.656554097442688001e+00 5.606110043609250845e-03
4.044271622331342314e+03 1.633089924531332171e+00 8.370907408612298858e-03
4.048315893953675186e+03 1.599286207471136478e+00 1.274677021425738889e-02
4.052364209847629809e+03 1.559987162997010790e+00 1.525074108253069230e-02
4.056416574057479011e+03 1.523377011322857078e+00 1.378310769184025973e-02
4.060472990631537868e+03 1.497666962014511771e+00 1.138908276687699769e-02
4.064533463622170530e+03 1.485669607686373350e+00 8.957294020665994283e-03
4.068597997085794304e+03 1.488937514919371985e+00 1.088720440411923389e-02
4.072666595082881486e+03 1.507405200501149123e+00 1.350120301255140765e-02
4.076739261677965715e+03 1.531849081336969176e+00 1.500736227583135754e-02
4.080816000939644709e+03 1.557348821115085657e+00 1.363704042919710278e-02
4.084896816940585722e+03 1.576884368460372610e+00 1.031514343554377870e-02
4.088981713757527814e+03 1.587444209455189048e+00 8.194806767077960838e-03
4.093070695471286854e+03 1.587183335121225669e+00 8.171715668498540780e-03
4.097163766166759160e+03 1.575047782873381319e+00 9.902246135539607280e-03
4.101260929932927866e+03 1.554072953039694172e+00 9.799357220702457905e-03
4.105362190862862008e+03 1.528533963765513537e+00 7.716754946965154009e-03
4.109467553053726078e+03 1.506303117323742224e+00 6.074085373563120442e-03
4.113577020606780934e+03 1.492269353372916996e+00 3.680813894410373682e-03
4.117690597627389252e+03 1.491574689927914532e+00 3.476089682037722655e-03
4.121808288225018259e+03 1.501666451211233211e+00 3.777120857358458230e-03
4.125930096513244280e+03 1.521888871928319009e+00 4.655147975963703187e-03
4.130056026609759101e+03 1.550131984493417159e+00 5.974631335997812251e-03
4.134186082636369974e+03 1.582036880266109558e+00 5.751922406181025904e-03
4.138320268719007800e+03 1.614451735242578234e+00 5.676963933668482086e-03
4.142458588987728035e+03 1.645142586167881227e+00 5.115878542851406974e-03
4.146601047576717065e+03 1.673907373877481897e+00 4.302322887743746486e-03
4.150747648624294925e+03 1.697373451376391396e+00 4.086930766004236507e-03
4.154898396272920763e+03 1.712562363981058988e+00 4.080814250968111193e-03
4.159053294669195566e+03 1.719123182682010809e+00 5.181051425522243195e-03
4.163212347963865795e+03 1.719375061354230239e+00 4.328405193807458376e-03
4.167375560311830668e+03 1.714967787445391245e+00 3.890437922161915901e-03
4.171542935872143971e+03 1.709013007156887864e+00 4.020829332315197999e-03
4.175714478808017702e+03 1.702309862949699104e+00 3.485767076868187889e-03
4.179890193286827525e+03 1.697429908841611157e+00 4.000091404882536242e-03
4.184070083480115500e+03 1.690744415188495831e+00 4.228707529444058859e-03
4.188254153563597356e+03 1.682032151850664015e+00 4.449576602832057068e-03
4.192442407717161586e+03 1.671400764346639756e+00 4.379898151371427670e-03
4.196634850124880359e+03 1.660805727956937261e+00 4.399226888462822414e-03
4.200831484975006788e+03 1.649808170900813442e+00 4.392387111815414767e-03
4.205032316459983122e+03 1.639076097361562789e+00 4.903718084560673186e-03
4.209237348776444378e+03 1.629914839537691007e+00 5.947359039128999672e-03
4.213446586125221984e+03 1.624214932122820754e+00 5.430723791914927011e-03
4.217660032711349231e+03 1.622137251607382868e+00 4.870718762204621043e-03
4.221877692744061278e+03 1.623349610108653751e+00 4.560636965452128690e-03
4.226099570436806971e+03 1.630153970916866202e+00 5.992809639987342618e-03
4.230325670007245208e+03 1.640195689574034610e+00 6.810566801131528840e-03
4.234555995677254032e+03 1.645815841112570066e+00 6.590844515951637533e-03
4.238790551672932452e+03 1.647387091012099347e+00 5.701327799808498902e-03
4.243029342224606808e+03 1.644279447811419548e+00 3.751295215795146919e-03
4.247272371566832589e+03 1.631509009565548451e+00 5.027647099078806463e-03
4.251519643938400804e+03 1.612481815648741712e+00 6.031073420963433893e-03
4.255771163582340705e+03 1.590750024953721864e+00 6.651327058320639397e-03
4.260026934745924336e+03 1.569613595851254928e+00 6.255727735996348057e-03
4.264286961680671993e+03 1.551112757628235306e+00 5.044892447101147377e-03
4.268551248642354039e+03 1.537222224385100589e+00 4.461824829740781810e-03
4.272819799890998183e+03 1.527656395163901726e+00 4.257316708716232107e-03
4.277092619690890388e+03 1.524668509213597645e+00 4.987352411523218731e-03
4.281369712310583054e+03 1.529155000054806646e+00 5.334822312995093734e-03
4.285651082022895025e+03 1.532592860409740965e+00 4.463102701919975310e-03
4.289936733104918858e+03 1.534498987931159464e+00 4.414503698370998361e-03
4.294226669838025373e+03 1.539151433654213141e+00 3.875003550826954489e-03
4.298520896507864563e+03 1.542045221327353000e+00 4.080035705364027689e-03
4.302819417404373780e+03 1.544194445338303634e+00 4.063496746172611321e-03
4.307122236821779552e+03 1.547691665968130348e+00 4.079860284718151223e-03
4.311429359058603040e+03 1.554791947451234169e+00 3.779321883932056873e-03
4.315740788417662770e+03 1.564232239487163945e+00 3.011361659913181551e-03
4.320056529206081905e+03 1.578753695698875692e+00 3.263472843785359193e-03
4.324376585735290064e+03 1.595279605653578514e+00 3.228103665399890097e-03
4.328700962321026054e+03 1.613293662939072171e+00 3.215351527847268905e-03
4.333029663283348782e+03 1.634735561719223851e+00 4.638258097096539280e-03
4.337362692946633615e+03 1.653184946026356794e+00 5.479497572799979163e-03
4.341700055639581478e+03 1.668018996966199818e+00 6.692430614061523932e-03
4.346041755695222491e+03 1.673548117354734188e+00 6.124554809861184994e-03
4.350387797450919606e+03 1.668097646380476862e+00 5.586542509787243566e-03
4.354738185248371337e+03 1.649873360714066983e+00 6.208707953758095879e-03
4.359092923433621763e+03 1.622987051048008666e+00 7.680708935881465707e-03
4.363452016357056891e+03 1.590850488261855489e+00 9.675948972645266599e-03
4.367815468373414660e+03 1.553502835713911345e+00 1.062497996570128944e-02
4.372183283841789489e+03 1.518065739294552019e+00 8.706608672030951082e-03
4.376555467125633186e+03 1.490065982332520189e+00 7.597974632927178944e-03
4.380932022592760404e+03 1.469137692925958749e+00 7.834415523143348908e-03
4.385312954615354101e+03 1.453869590086822594e+00 8.330094301303440224e-03
4.389698267569970994e+03 1.445150086010208001e+00 8.933469982756594291e-03
4.394087965837542470e+03 1.442693799697335022e+00 8.617833672574723436e-03
4.398482053803381859e+03 1.441980993795010324e+00 6.860940444883253768e-03
4.402880535857186260e+03 1.439852948906514829e+00 4.202440372015250197e-03
4.407283416393044718e+03 1.431113758362203559e+00 5.082268194180289932e-03
4.411690699809440048e+03 1.419873319138549306e+00 4.813808348487108243e-03
4.416102390509250654e+03 1.408630143527025647e+00 5.719757301631375052e-03
4.420518492899761441e+03 1.392481885063147740e+00 6.624517229273714503e-03
4.424939011392662906e+03 1.372605623216488491e+00 6.516980165806417549e-03
4.429363950404056595e+03 1.350074838382260722e+00 6.615518543947675884e-03
4.433793314354462382e+03 1.328551782762372735e+00 7.692482221826450056e-03
4.438227107668818462e+03 1.306538611990104348e+00 1.325269861551190038e-02
4.442665334776488635e+03 1.294582580126397042e+00 1.655920023286786696e-02
4.447108000111265937e+03 1.298076804536770990e+00 1.605108808964268718e-02
4.451555108111379013e+03 1.321693835124705174e+00 1.351590304864407760e-02
4.456006663219492111e+03 1.366542505571054944e+00 1.496409160794794947e-02
4.460462669882713271e+03 1.428366317803973384e+00 2.000845363660179455e-02
4.464923132552597053e+03 1.498853262120977137e+00 2.331483683226338866e-02
4.469388055685150903e+03 1.567797393185233590e+00 2.395849889718714570e-02
4.473857443740837880e+03 1.627380687414802907e+00 2.061784491345767731e-02
4.478331301184580298e+03 1.669999019996700751e+00 1.669175332069743056e-02
4.482809632485766087e+03 1.692952005073302235e+00 1.689567805918705187e-02
4.487292442118253348e+03 1.692937654255939339e+00 2.052479085367673456e-02
4.491779734560373072e+03 1.675606542938696375e+00 2.051985207110244500e-02
4.496271514294934605e+03 1.651157004231783576e+00 1.718781079745813206e-02
4.500767785809231100e+03 1.629621417754338886e+00 1.270164285744633872e-02
4.505268553595042249e+03 1.614833886515575800e+00 1.051872506282661331e-02
4.509773822148638828e+03 1.608793567144144454e+00 1.143965328602537974e-02
