# starting wavelength: 3464.040
# ending wavelength: 7367.620
# wav flux eflux
3.467307701768178049e+03 2.301372327099353576e+00 9.952428520765735365e-02
3.470775009469947236e+03 2.231739764190460829e+00 9.401213406714595267e-02
3.474245784479418489e+03 2.225103227477455814e+00 9.515102621087540014e-02
3.477720030263898934e+03 2.240747030847122900e+00 8.212600208523328227e-02
3.481197750294164052e+03 2.266864602717773458e+00 7.089295961100307297e-02
3.484678948044459503e+03 2.293134644811837486e+00 6.045029725547855504e-02
3.488163626992504760e+03 2.316512498361552819e+00 5.328335174635482480e-02
3.491651790619498570e+03 2.337089430928017020e+00 4.412637327380183189e-02
3.495143442410119405e+03 2.353275411328365596e+00 3.888502393750500885e-02
3.498638585852530468e+03 2.369616769860361849e+00 3.438509844910505459e-02
3.502137224438384237e+03 2.384977362823580638e+00 3.099343034199784214e-02
3.505639361662823831e+03 2.396567813844202810e+00 2.846293556666852978e-02
3.509145001024487556e+03 2.402150418548524957e+00 2.660959918080561468e-02
3.512654146025513455e+03 2.404043397657411596e+00 2.517482560420716484e-02
3.516166800171540217e+03 2.399759006797240524e+00 2.424141758714909098e-02
3.519682966971712631e+03 2.391668424000512605e+00 2.359818519240160922e-02
3.523202649938685681e+03 2.376529135061235642e+00 2.415721511030370292e-02
3.526725852588625457e+03 2.353733883257991266e+00 2.406001087053657658e-02
3.530252578441215064e+03 2.330237711035253678e+00 2.258464433026446602e-02
3.533782831019657806e+03 2.313301399859389207e+00 2.168229856735200134e-02
3.537316613850678550e+03 2.295079870379974185e+00 2.048879075318207899e-02
3.540853930464530094e+03 2.281591105363941718e+00 1.956015816678480235e-02
3.544394784394995895e+03 2.271990430282125217e+00 1.899793546731624524e-02
3.547939179179392340e+03 2.271595674578160029e+00 1.922624266898555201e-02
3.551487118358572843e+03 2.273591792846965998e+00 1.923852066827369187e-02
3.555038605476932389e+03 2.283635797731955019e+00 1.947460133688599937e-02
3.558593644082410719e+03 2.295107550770883797e+00 1.867086163654113271e-02
3.562152237726494150e+03 2.303842242553232111e+00 1.854506818285914585e-02
3.565714389964221937e+03 2.312496410340441066e+00 1.969204238982956781e-02
3.569280104354187188e+03 2.315453181067575361e+00 2.025249918208920502e-02
3.572849384458542772e+03 2.311426114650308339e+00 2.088223357464357929e-02
3.576422233843002232e+03 2.308284779442821844e+00 2.113119342044236793e-02
3.579998656076846601e+03 2.300558780362425892e+00 2.088355400340016071e-02
3.583578654732924406e+03 2.290108480358871823e+00 2.071882487920020596e-02
3.587162233387658489e+03 2.292528561677281917e+00 1.684083494112515941e-02
3.590749395621047370e+03 2.279973039328304196e+00 1.670190277539793447e-02
3.594340145016669794e+03 2.260509467605404943e+00 1.722813345561483370e-02
3.597934485161687462e+03 2.238169638614389889e+00 1.701542641039748699e-02
3.601532419646850485e+03 2.214450054615843211e+00 1.698829132402928169e-02
3.605133952066498296e+03 2.180928282653623818e+00 1.633392279659030139e-02
3.608739086018566013e+03 2.138195487492649427e+00 1.581759548222596776e-02
3.612347825104585809e+03 2.095800756892255201e+00 1.396398631916570543e-02
3.615960172929691907e+03 2.051693968062677786e+00 1.383707474478650806e-02
3.619576133102622407e+03 2.012985215047540244e+00 1.394221745245484249e-02
3.623195709235726554e+03 1.979513307266209887e+00 1.383994811482931568e-02
3.626818904944963379e+03 1.950146210751755760e+00 1.421532924659037710e-02
3.630445723849909427e+03 1.926468635255906614e+00 1.451113694938077452e-02
3.634076169573760581e+03 1.912248786442967807e+00 1.447751243118139235e-02
3.637710245743335690e+03 1.905835532138496546e+00 1.519692551427254297e-02
3.641347955989080219e+03 1.899728203108814295e+00 1.577895042171316778e-02
3.644989303945070333e+03 1.897730007455449730e+00 1.693159017590322585e-02
3.648634293249016537e+03 1.900852917279555854e+00 1.842144812126631642e-02
3.652282927542266862e+03 1.898087039939287957e+00 1.859534834178517074e-02
3.655935210469810499e+03 1.899892638470250805e+00 1.881855795869311065e-02
3.659591145680281443e+03 1.896823491462171551e+00 1.877888054181575672e-02
3.663250736825963031e+03 1.889270594239859768e+00 1.900973337092351501e-02
3.666913987562790226e+03 1.874836908625982623e+00 1.965003309718228730e-02
3.670580901550354156e+03 1.860810290283410717e+00 1.977168660527105562e-02
3.674251482451905758e+03 1.846709522194192044e+00 1.978929850425983905e-02
3.677925733934358959e+03 1.832769382015464910e+00 1.983791099800702798e-02
3.681603659668294313e+03 1.814203679776163147e+00 2.078674629005377097e-02
3.685285263327964003e+03 1.790916014075120133e+00 2.132469846781016518e-02
3.688970548591293209e+03 1.769227860385726103e+00 1.851686843537883598e-02
3.692659519139885560e+03 1.751296311950434781e+00 1.596059583940432139e-02
3.696352178659026777e+03 1.740808707518150866e+00 1.409236262169963338e-02
3.700048530837686940e+03 1.735349882314161318e+00 1.252811556158377020e-02
3.703748579368525952e+03 1.743747031451521989e+00 1.254867872033200472e-02
3.707452327947895355e+03 1.768059594130394485e+00 1.256736748631114009e-02
3.711159780275844696e+03 1.793623123593879320e+00 1.202338062844256726e-02
3.714870940056121526e+03 1.819857798270288374e+00 1.158251417898398250e-02
3.718585810996179134e+03 1.848241721078819344e+00 1.048441244431792124e-02
3.722304396807176545e+03 1.878858450659387058e+00 8.969298780192066015e-03
3.726026701203984885e+03 1.909075345684261515e+00 8.283061407025196082e-03
3.729752727905190113e+03 1.930723633200478240e+00 8.634154990453491579e-03
3.733482480633096657e+03 1.945083639053459157e+00 8.147525099279141411e-03
3.737215963113731050e+03 1.955462132554775412e+00 8.402873292882022394e-03
3.740953179076846027e+03 1.960125933252186536e+00 8.574582397665619915e-03
3.744694132255923705e+03 1.959864565560979432e+00 9.319565807076088393e-03
3.748438826388181042e+03 1.956844548221141622e+00 1.068876935082639472e-02
3.752187265214570289e+03 1.952964716419905544e+00 1.109405047806551019e-02
3.755939452479786269e+03 1.949527164993606565e+00 1.081933901895602151e-02
3.759695391932267285e+03 1.946060545662762653e+00 1.030803605195422523e-02
3.763455087324201031e+03 1.942611480640623833e+00 1.168871546378515147e-02
3.767218542411526414e+03 1.942193032220334459e+00 1.278806016648932273e-02
3.770985760953939007e+03 1.932462706492562354e+00 1.282961156746037154e-02
3.774756746714894234e+03 1.922121919796626610e+00 1.310922635042176612e-02
3.778531503461610555e+03 1.908087182988348340e+00 1.287056056391466634e-02
3.782310034965073100e+03 1.884396638300529947e+00 1.179176262158936755e-02
3.786092345000039586e+03 1.851171449435475180e+00 1.369646123592492375e-02
3.789878437345040766e+03 1.810375915159307736e+00 1.635354252580950574e-02
3.793668315782387253e+03 1.771502350950064697e+00 1.830331566190525686e-02
3.797461984098170888e+03 1.739375517647013147e+00 1.843291815444353735e-02
3.801259446082270188e+03 1.712469739111865952e+00 1.646219000443354535e-02
3.805060705528353537e+03 1.693763811490273774e+00 1.499825812935756848e-02
3.808865766233883278e+03 1.676651693295783563e+00 1.409841702309989030e-02
3.812674632000118436e+03 1.677261772306154697e+00 1.578673089730711632e-02
3.816487306632119726e+03 1.689245131840148684e+00 1.594450878654126921e-02
3.820303793938753188e+03 1.712930330419742964e+00 1.399974831871605985e-02
3.824124097732693372e+03 1.732543991296388475e+00 1.282836712344991373e-02
3.827948221830427428e+03 1.751392701744761693e+00 1.492512383433047297e-02
3.831776170052258749e+03 1.774387946103000768e+00 1.467863431214171469e-02
3.835607946222312421e+03 1.805594665783121666e+00 1.860353260021736788e-02
3.839443554168536139e+03 1.833212649102913039e+00 2.533227776512443283e-02
3.843282997722705659e+03 1.850949892251527729e+00 3.014904766490692639e-02
3.847126280720429804e+03 1.840755353744347955e+00 3.092767658258025604e-02
3.850973407001151372e+03 1.820239303822447807e+00 2.935295182251815294e-02
3.854824380408153957e+03 1.780150583353703020e+00 3.103245174020759223e-02
3.858679204788563311e+03 1.727314468258627667e+00 4.231436213890749781e-02
3.862537883993353262e+03 1.675957117862246548e+00 5.490285185261506440e-02
3.866400421877347981e+03 1.645091249980966230e+00 5.881466538135204231e-02
3.870266822299226533e+03 1.657197471494573415e+00 5.212469070591899817e-02
3.874137089121526969e+03 1.716307520823363131e+00 4.822107378045085296e-02
3.878011226210649966e+03 1.822335278215042598e+00 6.016703511598798376e-02
3.881889237436861549e+03 1.955577198409107487e+00 7.327134450187534898e-02
3.885771126674299921e+03 2.095903582084245986e+00 7.699704706463081361e-02
3.889656897800975457e+03 2.214780628093167891e+00 6.821721102620893762e-02
3.893546554698777527e+03 2.288816267304419227e+00 5.295895056757016911e-02
3.897440101253477678e+03 2.303580318221683410e+00 5.031304334496011083e-02
3.901337541354732366e+03 2.252177854836936888e+00 6.240587583979243652e-02
3.905238878896088409e+03 2.149703167417974736e+00 6.802047491327282980e-02
3.909144117774985716e+03 2.025835511293590407e+00 5.947659559133470358e-02
3.913053261892762293e+03 1.919290570365890458e+00 4.245125028923566607e-02
3.916966315154656058e+03 1.847137447579057401e+00 3.194129648706425101e-02
3.920883281469812118e+03 1.823342605845334141e+00 4.214309755648572992e-02
3.924804164751283224e+03 1.834191430170417192e+00 5.145381105503513131e-02
3.928728968916035683e+03 1.863284084937876672e+00 4.596401703480081091e-02
3.932657697884953450e+03 1.885367652000541350e+00 3.291432482853910019e-02
3.936590355582839493e+03 1.889629931572618160e+00 2.854926379338117159e-02
3.940526945938423523e+03 1.871649307434558818e+00 3.758748170445738723e-02
3.944467472884363360e+03 1.848974351011474671e+00 4.258108552507506445e-02
3.948411940357249023e+03 1.831090679428891477e+00 3.931444405143007248e-02
3.952360352297607733e+03 1.829584279803795344e+00 3.315057132917100663e-02
3.956312712649906643e+03 1.846245755869055927e+00 3.079826939604768388e-02
3.960269025362557841e+03 1.884217591551140769e+00 3.601113063842074913e-02
3.964229294387921527e+03 1.935157245798653003e+00 3.932339968765519167e-02
3.968193523682310570e+03 1.984976208491908922e+00 3.674148836809946334e-02
3.972161717205994591e+03 2.027944045269291173e+00 2.942691830998223068e-02
3.976133878923201792e+03 2.050714782127945224e+00 2.210815748171154199e-02
3.980110012802126221e+03 2.042026868704844844e+00 2.189787159208394368e-02
3.984090122814929600e+03 1.999156491207625175e+00 2.434037815948340497e-02
3.988074212937745870e+03 1.933843090084653493e+00 2.239746948220332906e-02
3.992062287150684824e+03 1.855059288507621806e+00 1.527041775644448832e-02
3.996054349437837118e+03 1.780898686219059446e+00 8.679792473679361769e-03
4.000050403787276082e+03 1.723614166053249797e+00 6.525155149740782638e-03
4.004050454191064546e+03 1.684398084831932429e+00 6.320039284518986882e-03
4.008054504645257111e+03 1.665835991395154592e+00 6.734510248729961950e-03
4.012062559149903791e+03 1.666319055727898180e+00 8.346225409388667582e-03
4.016074621709055009e+03 1.673703385295984170e+00 1.022990822066053435e-02
4.020090696330765240e+03 1.687975399556342904e+00 1.124425471147737915e-02
4.024110787027097558e+03 1.706826328634236889e+00 1.251717713936171920e-02
4.028134897814125907e+03 1.725221722279514314e+00 1.262615368168639070e-02
4.032163032711941469e+03 1.736145835564306461e+00 1.013048499654009733e-02
4.036195195744654484e+03 1.736117095926388743e+00 6.986289907793546625e-03
4.040231390940400615e+03 1.720234515325093305e+00 9.129719713312674234e-03
4.044271622331342314e+03 1.689657095995974023e+00 1.186910672088175786e-02
4.048315893953675186e+03 1.654385499418237870e+00 1.273900628188254919e-02
4.052364209847629809e+03 1.619780171605945451e+00 1.166194629459057705e-02
4.056416574057479011e+03 1.591264731429619328e+00 8.618692031369803302e-03
4.060472990631537868e+03 1.574013497496346226e+00 5.767950901222165458e-03
4.064533463622170530e+03 1.573163463386868521e+00 8.229406641592530713e-03
4.068597997085794304e+03 1.583288664806232982e+00 1.180580301511535528e-02
4.072666595082881486e+03 1.597455275547067233e+00 1.213763171063948071e-02
4.076739261677965715e+03 1.613133218645307565e+00 1.069069269428128514e-02
4.080816000939644709e+03 1.625185779582400736e+00 9.504888973704902697e-03
4.084896816940585722e+03 1.634296564886719816e+00 8.865230771851579164e-03
4.088981713757527814e+03 1.640964328025324548e+00 8.465317471804902419e-03
4.093070695471286854e+03 1.638249042199821703e+00 9.046562165680489473e-03
4.097163766166759160e+03 1.629909419116798874e+00 7.593928031693127079e-03
4.101260929932927866e+03 1.622365804014486823e+00 6.302396425970993761e-03
4.105362190862862008e+03 1.616699051002691290e+00 7.322687530022495977e-03
4.109467553053726078e+03 1.608574421546718591e+00 7.421482429109310663e-03
4.113577020606780934e+03 1.601428603340606882e+00 7.050490579012104291e-03
4.117690597627389252e+03 1.593624142733595761e+00 7.382854223085303161e-03
4.121808288225018259e+03 1.587961188500512932e+00 8.163463951124808396e-03
4.125930096513244280e+03 1.585830550309993647e+00 8.600713554810079237e-03
4.130056026609759101e+03 1.586113050004249070e+00 8.474134094602117293e-03
4.134186082636369974e+03 1.590697451456748901e+00 7.291171686539672271e-03
4.138320268719007800e+03 1.601168578517529362e+00 7.282694483968885947e-03
4.142458588987728035e+03 1.618702580908439437e+00 9.084588024798676345e-03
4.146601047576717065e+03 1.640241223242129731e+00 9.276427377069264985e-03
4.150747648624294925e+03 1.658447431237995318e+00 8.362460046429560229e-03
4.154898396272920763e+03 1.674677667834070238e+00 7.612258453984242779e-03
4.159053294669195566e+03 1.687832020651550691e+00 7.713904006886209211e-03
4.163212347963865795e+03 1.697477762889573638e+00 7.923876875747038959e-03
4.167375560311830668e+03 1.704103283416923853e+00 8.155411659117574319e-03
4.171542935872143971e+03 1.705311551199059084e+00 6.921979901674952564e-03
4.175714478808017702e+03 1.704960317637459255e+00 6.257685318432855415e-03
4.179890193286827525e+03 1.704273226808261654e+00 7.045815550196557996e-03
4.184070083480115500e+03 1.703138926335867831e+00 6.737236179179839982e-03
4.188254153563597356e+03 1.695758096569355500e+00 6.672222731813269928e-03
4.192442407717161586e+03 1.687248338684781412e+00 6.789792890964005054e-03
4.196634850124880359e+03 1.675579917717499479e+00 8.270082854391401159e-03
4.200831484975006788e+03 1.664842773423223843e+00 8.432097506443395410e-03
4.205032316459983122e+03 1.654892594079464319e+00 8.009489472384624317e-03
4.209237348776444378e+03 1.646754759858656936e+00 7.212096384927885878e-03
4.213446586125221984e+03 1.641173246858543378e+00 7.714049715645983178e-03
4.217660032711349231e+03 1.637946857093836917e+00 7.981430315779997064e-03
4.221877692744061278e+03 1.637093611066769094e+00 7.479271040170082548e-03
4.226099570436806971e+03 1.636798949016518456e+00 6.236106586244352483e-03
4.230325670007245208e+03 1.634289094751178784e+00 5.982436348162706828e-03
4.234555995677254032e+03 1.628358547949324553e+00 6.850131388224185193e-03
4.238790551672932452e+03 1.624415172641680227e+00 7.080197023261836781e-03
4.243029342224606808e+03 1.615618479519808526e+00 6.996843035899734560e-03
4.247272371566832589e+03 1.603296004901270777e+00 6.947296030234890486e-03
4.251519643938400804e+03 1.588417758307566707e+00 7.147982824741112851e-03
4.255771163582340705e+03 1.571781017119759261e+00 6.992366829389647966e-03
4.260026934745924336e+03 1.553298587756086979e+00 7.271503564596070758e-03
4.264286961680671993e+03 1.535929066376435781e+00 7.577963987135025691e-03
4.268551248642354039e+03 1.517499292079813600e+00 8.127302759537711682e-03
4.272819799890998183e+03 1.502086182965170602e+00 8.152166740754470536e-03
4.277092619690890388e+03 1.488482878463234904e+00 6.912622822669651362e-03
4.281369712310583054e+03 1.479896185425980226e+00 6.171056670844108846e-03
4.285651082022895025e+03 1.477791950197923088e+00 6.555699885448094955e-03
4.289936733104918858e+03 1.482916707712030213e+00 7.504105576551957715e-03
4.294226669838025373e+03 1.491061764870182715e+00 6.912071388380883544e-03
4.298520896507864563e+03 1.500562898488768226e+00 6.061871580591697908e-03
4.302819417404373780e+03 1.509709849889592448e+00 4.796735924772537081e-03
4.307122236821779552e+03 1.516938078467530815e+00 4.497463426316352167e-03
4.311429359058603040e+03 1.520140025989730859e+00 5.424176264739235045e-03
4.315740788417662770e+03 1.520090930882260105e+00 4.260078855881826825e-03
4.320056529206081905e+03 1.523952692048970992e+00 4.839851510896999234e-03
4.324376585735290064e+03 1.529266403712217226e+00 2.928490267983315399e-03
4.328700962321026054e+03 1.540947417788526952e+00 2.527998317968972383e-03
4.333029663283348782e+03 1.557051423705305027e+00 2.658169822790192038e-03
4.337362692946633615e+03 1.577013068790076966e+00 4.324733273804446873e-03
4.341700055639581478e+03 1.596613264971352253e+00 5.572677524487202640e-03
4.346041755695222491e+03 1.615340974292445608e+00 6.140931017922136512e-03
4.350387797450919606e+03 1.628396736210793172e+00 5.960894633592791515e-03
4.354738185248371337e+03 1.633333925395188402e+00 4.814389065823082743e-03
4.359092923433621763e+03 1.626102076760752801e+00 4.064002954316360029e-03
4.363452016357056891e+03 1.606782075972082113e+00 5.720969090988651737e-03
4.367815468373414660e+03 1.580648857188066136e+00 6.980229111181726273e-03
4.372183283841789489e+03 1.547684764404978930e+00 8.113350165614355639e-03
4.376555467125633186e+03 1.511137114292789851e+00 7.580531501117678331e-03
4.380932022592760404e+03 1.478072535526872011e+00 5.905112855890554298e-03
4.385312954615354101e+03 1.450092722647550403e+00 4.818685249360108586e-03
4.389698267569970994e+03 1.429627494077534200e+00 6.381117907681054836e-03
4.394087965837542470e+03 1.412779631784458978e+00 7.032485779006151030e-03
4.398482053803381859e+03 1.400430558972495465e+00 6.476824272380245912e-03
4.402880535857186260e+03 1.388984032955427050e+00 6.220589845803885590e-03
4.407283416393044718e+03 1.381710416554024823e+00 5.987662715490738204e-03
4.411690699809440048e+03 1.377337355923086593e+00 5.891792511555899933e-03
4.416102390509250654e+03 1.374161297400693815e+00 6.219097060875770390e-03
4.420518492899761441e+03 1.372699085940606079e+00 7.801062474469221825e-03
4.424939011392662906e+03 1.367296901075021776e+00 8.324690336745104932e-03
4.429363950404056595e+03 1.358955173107715853e+00 8.218346882294396902e-03
4.433793314354462382e+03 1.349394040642288628e+00 8.662079379345898056e-03
4.438227107668818462e+03 1.340846024190597507e+00 1.088489643039247494e-02
4.442665334776488635e+03 1.335205236656578531e+00 1.367441761182930718e-02
4.447108000111265937e+03 1.339020221241108866e+00 1.446762163619882968e-02
4.451555108111379013e+03 1.356717725236534555e+00 1.364615456939812475e-02
4.456006663219492111e+03 1.386572235485686644e+00 1.354107016866842178e-02
4.460462669882713271e+03 1.425556459346143390e+00 1.545037988778761272e-02
4.464923132552597053e+03 1.471793195848625890e+00 1.772669304667665036e-02
4.469388055685150903e+03 1.520882057217905814e+00 1.789699029679787598e-02
4.473857443740837880e+03 1.568976236846362005e+00 1.540077381818371650e-02
4.478331301184580298e+03 1.608673388699914719e+00 1.196680484562888391e-02
4.482809632485766087e+03 1.636535341787876074e+00 1.009294823999380003e-02
4.487292442118253348e+03 1.646593196709604801e+00 1.100714509920646886e-02
4.491779734560373072e+03 1.641975820071070569e+00 1.125697311055002051e-02
4.496271514294934605e+03 1.626761187294373467e+00 9.584349834673992069e-03
4.500767785809231100e+03 1.607714847395799396e+00 6.323438429966503176e-03
4.505268553595042249e+03 1.589364272439078851e+00 5.605720241201283573e-03
4.509773822148638828e+03 1.577147102004211821e+00 4.912682963860549347e-03
4.514283595970789065e+03 1.574720285886631155e+00 5.005059774502890711e-03
