# starting wavelength: 3344.950
# ending wavelength: 9993.720
# wav flux eflux
3.348109649033746791e+03 5.011886513886879335e+00 1.893297504252110242e-01
3.351457758682781787e+03 5.045268314937195520e+00 1.765697829204116165e-01
3.354809216441465651e+03 5.110380973183752396e+00 1.427979019918999282e-01
3.358164025657908041e+03 5.174941932901454322e+00 1.150629011227460863e-01
3.361522189683567376e+03 5.226612799672342824e+00 9.407069841930205956e-02
3.364883711873251741e+03 5.259335058555570264e+00 7.707720019421956947e-02
3.368248595585126168e+03 5.275472970776763582e+00 6.367563522553745803e-02
3.371616844180712633e+03 5.279836142709453561e+00 5.340926502075613730e-02
3.374988461024894150e+03 5.277639204629626768e+00 4.579786330278752537e-02
3.378363449485920228e+03 5.269970751008612453e+00 4.006521067622862559e-02
3.381741812935407324e+03 5.260616526503806512e+00 3.595866006235752532e-02
3.385123554748343849e+03 5.252521905551175152e+00 3.343357636939860156e-02
3.388508678303093347e+03 5.241173577267726813e+00 3.122687457424684968e-02
3.391897186981397681e+03 5.227942237387245505e+00 2.952584631230541212e-02
3.395289084168380214e+03 5.207903159649896807e+00 2.848761051503244726e-02
3.398684373252549449e+03 5.190070060383987993e+00 2.753852736628919357e-02
3.402083057625803121e+03 5.166225441100547044e+00 2.659483877597914811e-02
3.405485140683430018e+03 5.137369794126951383e+00 2.610619705013074096e-02
3.408890625824114522e+03 5.105958739772778365e+00 2.548953890860459690e-02
3.412299516449939802e+03 5.073285684470787871e+00 2.543272004196918054e-02
3.415711815966390986e+03 5.041735343230927313e+00 2.492324537887710689e-02
3.419127527782358356e+03 5.018355088852062273e+00 2.454139116548800098e-02
3.422546655310141887e+03 5.008435509818482956e+00 2.475511645076560255e-02
3.425969201965453522e+03 5.013707159677110781e+00 2.526313861330840502e-02
3.429395171167419903e+03 5.019089720969691193e+00 2.562651929794470401e-02
3.432824566338588284e+03 5.021123716231188361e+00 2.620900432296013535e-02
3.436257390904928343e+03 5.020813911282569819e+00 2.603148868330204535e-02
3.439693648295834464e+03 5.013039009284970149e+00 2.574084672302441590e-02
3.443133341944131189e+03 4.990905648125511185e+00 2.525351772909758055e-02
3.446576475286076402e+03 4.968163448223669398e+00 2.500682853893500257e-02
3.450023051761363604e+03 4.946575915681301616e+00 2.469890742549974219e-02
3.453473074813126004e+03 4.927013641694140134e+00 2.441641783044152386e-02
3.456926547887940615e+03 4.910418460229654336e+00 2.438025884518097222e-02
3.460383474435829612e+03 4.896685452859317778e+00 2.407909734330415316e-02
3.463843857910266706e+03 4.886928427764001270e+00 2.441115043297715712e-02
3.467307701768178049e+03 4.879289818266200562e+00 2.347583750883097675e-02
3.470775009469947236e+03 4.870194109173196395e+00 2.332299820164948287e-02
3.474245784479418489e+03 4.856448890472075064e+00 2.326680324733916214e-02
3.477720030263898934e+03 4.844532108982112284e+00 2.324431034496921011e-02
3.481197750294164052e+03 4.834744077207428603e+00 2.328646829780705099e-02
3.484678948044459503e+03 4.823059131726502358e+00 2.299158014473464198e-02
3.488163626992504760e+03 4.811593060822660917e+00 2.205788036430247553e-02
3.491651790619498570e+03 4.797630967988249395e+00 2.076283838236822957e-02
3.495143442410119405e+03 4.793626562262961244e+00 2.027692726715091612e-02
3.498638585852530468e+03 4.795093327590714161e+00 2.043812283345255651e-02
3.502137224438384237e+03 4.801952953174508210e+00 2.143539995878530890e-02
3.505639361662823831e+03 4.815065313353318111e+00 2.200368801079216272e-02
3.509145001024487556e+03 4.830783885003944178e+00 2.079174432181255319e-02
3.512654146025513455e+03 4.845462073485185428e+00 1.905184516213035209e-02
3.516166800171540217e+03 4.860020215417117484e+00 1.640053187420573502e-02
3.519682966971712631e+03 4.872414569084881464e+00 1.451308279636137274e-02
3.523202649938685681e+03 4.879143735962644612e+00 1.454202272281123268e-02
3.526725852588625457e+03 4.880852221458779283e+00 1.457975350721938193e-02
3.530252578441215064e+03 4.878006496923593005e+00 1.460414829809239014e-02
3.533782831019657806e+03 4.867067332683928882e+00 1.244533000563853749e-02
3.537316613850678550e+03 4.853878434320560764e+00 1.110179355993794019e-02
3.540853930464530094e+03 4.839982644077891472e+00 1.184008136550329660e-02
3.544394784394995895e+03 4.825663262564580336e+00 1.244838950066618453e-02
3.547939179179392340e+03 4.809092340070387550e+00 1.155749659404549899e-02
3.551487118358572843e+03 4.787259861657660487e+00 1.004715602769115125e-02
3.555038605476932389e+03 4.758340823563118605e+00 8.828931046354973611e-03
3.558593644082410719e+03 4.720361297717698079e+00 9.414616966081706603e-03
3.562152237726494150e+03 4.672797019150197961e+00 1.022112930340312795e-02
3.565714389964221937e+03 4.623475485591113987e+00 1.147791290157044661e-02
3.569280104354187188e+03 4.573423677232970164e+00 1.281677867430336577e-02
3.572849384458542772e+03 4.521967226411336860e+00 1.468534172370917004e-02
3.576422233843002232e+03 4.471114055577814383e+00 1.568110925174997020e-02
3.579998656076846601e+03 4.424021805862468071e+00 1.553681207396995743e-02
3.583578654732924406e+03 4.385343335460632375e+00 1.487494861189810058e-02
3.587162233387658489e+03 4.353855076477204378e+00 1.416412721108094991e-02
3.590749395621047370e+03 4.331191248375144909e+00 1.377295574382396935e-02
3.594340145016669794e+03 4.316070034490111951e+00 1.414095557092375118e-02
3.597934485161687462e+03 4.301293340787127661e+00 1.419384067105161802e-02
3.601532419646850485e+03 4.298263888575072578e+00 1.584744329022597792e-02
3.605133952066498296e+03 4.302748258751200261e+00 1.863801196052615114e-02
3.608739086018566013e+03 4.312229854663955919e+00 2.121658270152212977e-02
3.612347825104585809e+03 4.323703009743549153e+00 2.240914055149829595e-02
3.615960172929691907e+03 4.335895021111323189e+00 2.096642455777811276e-02
3.619576133102622407e+03 4.344622586910407591e+00 1.717227461760730683e-02
3.623195709235726554e+03 4.353972702579071097e+00 1.036019529931733220e-02
3.626818904944963379e+03 4.342544256443008344e+00 1.041399355678541278e-02
3.630445723849909427e+03 4.319065115222386453e+00 1.363824785052040328e-02
3.634076169573760581e+03 4.288101604552803536e+00 1.599691548407305985e-02
3.637710245743335690e+03 4.251604016486771442e+00 1.638304943406339309e-02
3.641347955989080219e+03 4.213239300343480487e+00 1.541618315160524742e-02
3.644989303945070333e+03 4.171965623431270309e+00 1.408275895832651614e-02
3.648634293249016537e+03 4.128199565845555696e+00 1.270593082589451146e-02
3.652282927542266862e+03 4.083523894996271331e+00 1.140799826764756809e-02
3.655935210469810499e+03 4.039038378384153027e+00 1.012780495694794169e-02
3.659591145680281443e+03 3.998278819934738770e+00 9.528198157241766358e-03
3.663250736825963031e+03 3.961258452913583472e+00 9.776870605034024622e-03
3.666913987562790226e+03 3.930019786063316367e+00 9.790010524742386727e-03
3.670580901550354156e+03 3.905330675967990661e+00 9.775314872806068964e-03
3.674251482451905758e+03 3.886492371125127132e+00 9.337359180194113040e-03
3.677925733934358959e+03 3.873754399545831895e+00 8.622699633146609088e-03
3.681603659668294313e+03 3.865507063638671248e+00 8.209671496699726470e-03
3.685285263327964003e+03 3.859648976356092831e+00 8.666448508584371005e-03
3.688970548591293209e+03 3.856657008506353179e+00 9.489808840847232738e-03
3.692659519139885560e+03 3.859612794705141958e+00 9.470647889988198162e-03
3.696352178659026777e+03 3.868363085888853803e+00 8.694018815712717396e-03
3.700048530837686940e+03 3.881591531759627234e+00 8.097619483340895430e-03
3.703748579368525952e+03 3.900529364429148771e+00 8.450274728047608985e-03
3.707452327947895355e+03 3.925644044699206692e+00 1.084608028708498179e-02
3.711159780275844696e+03 3.955390045198456939e+00 1.362960961392163141e-02
3.714870940056121526e+03 3.985402109647343316e+00 1.464968676239072377e-02
3.718585810996179134e+03 4.012778628227349209e+00 1.405726093440445856e-02
3.722304396807176545e+03 4.033120718362169121e+00 1.253300674859355104e-02
3.726026701203984885e+03 4.045243524895144382e+00 9.893875435307661337e-03
3.729752727905190113e+03 4.044369144043534092e+00 8.109331990693054507e-03
3.733482480633096657e+03 4.034855893106982450e+00 7.625414471178492554e-03
3.737215963113731050e+03 4.006908315381576990e+00 1.170224998518479623e-02
3.740953179076846027e+03 3.970423877547203162e+00 1.478858601214798167e-02
3.744694132255923705e+03 3.930192435258996309e+00 1.603958754849637083e-02
3.748438826388181042e+03 3.887280849849199971e+00 1.696260438384973590e-02
3.752187265214570289e+03 3.835158400617357355e+00 1.596016641887661874e-02
3.755939452479786269e+03 3.788996684786790858e+00 1.416182241073556287e-02
3.759695391932267285e+03 3.747052461617063734e+00 1.248539044856719626e-02
3.763455087324201031e+03 3.711045134649067379e+00 1.244827913284831181e-02
3.767218542411526414e+03 3.681232170150065652e+00 1.358390074499038480e-02
3.770985760953939007e+03 3.660054624987469030e+00 1.516126309947347234e-02
3.774756746714894234e+03 3.646891503601240814e+00 1.642072577518313009e-02
3.778531503461610555e+03 3.641180946270795804e+00 1.586573351768759410e-02
3.782310034965073100e+03 3.636786943729970911e+00 1.371954052829513042e-02
3.786092345000039586e+03 3.629639849529428641e+00 1.237342219503871112e-02
3.789878437345040766e+03 3.617723788921122896e+00 1.349505484556992943e-02
3.793668315782387253e+03 3.603384476180159890e+00 1.582291555361359930e-02
3.797461984098170888e+03 3.590111026802888627e+00 1.686068321619310986e-02
3.801259446082270188e+03 3.584091358978998887e+00 1.550109619834519510e-02
3.805060705528353537e+03 3.575791027968026281e+00 1.308413294481246096e-02
3.808865766233883278e+03 3.576772892726627351e+00 1.041259402463309489e-02
3.812674632000118436e+03 3.585382933755249191e+00 9.955031459506959862e-03
3.816487306632119726e+03 3.598237998270997995e+00 1.079594010443104754e-02
3.820303793938753188e+03 3.620680586128368628e+00 1.133157052221644978e-02
3.824124097732693372e+03 3.645200970921133266e+00 1.206184494301316967e-02
3.827948221830427428e+03 3.668200482343877411e+00 1.316532969480109679e-02
3.831776170052258749e+03 3.682576534285020742e+00 1.414918391064572990e-02
3.835607946222312421e+03 3.688766701117045965e+00 1.290734786728122557e-02
3.839443554168536139e+03 3.679552950860610849e+00 9.561748128014291997e-03
3.843282997722705659e+03 3.650702755089117346e+00 1.072750182123375154e-02
3.847126280720429804e+03 3.598632077646072958e+00 2.294654592958930706e-02
3.850973407001151372e+03 3.536110642594542330e+00 3.478262403936148439e-02
3.854824380408153957e+03 3.473752177033015531e+00 4.237184246737564497e-02
3.858679204788563311e+03 3.425738332215014115e+00 4.241120177725640067e-02
3.862537883993353262e+03 3.406749607825328763e+00 3.670856090710632180e-02
3.866400421877347981e+03 3.405413850637951434e+00 3.277886622683777451e-02
3.870266822299226533e+03 3.439187911193447800e+00 3.420971299578749736e-02
3.874137089121526969e+03 3.504306018598026373e+00 4.508267993345190655e-02
3.878011226210649966e+03 3.585343528786200551e+00 5.519678225318311315e-02
3.881889237436861549e+03 3.671183256589547916e+00 6.079377874233141132e-02
3.885771126674299921e+03 3.768001520582714203e+00 5.530092821023536304e-02
3.889656897800975457e+03 3.817440352804671200e+00 4.789866824653444405e-02
3.893546554698777527e+03 3.829689749471462790e+00 4.592044056117627893e-02
3.897440101253477678e+03 3.809600611277444315e+00 5.107021370917811526e-02
3.901337541354732366e+03 3.758347454232516593e+00 5.822386999224938436e-02
3.905238878896088409e+03 3.680947465356550374e+00 6.066846813707076763e-02
3.909144117774985716e+03 3.592557226645573643e+00 5.476128376421512955e-02
3.913053261892762293e+03 3.507474409763181811e+00 4.419186861144526468e-02
3.916966315154656058e+03 3.439704409658548290e+00 3.674397376013385091e-02
3.920883281469812118e+03 3.394816067176802843e+00 3.862388012779471858e-02
3.924804164751283224e+03 3.376894099246896097e+00 4.316787505572421829e-02
3.928728968916035683e+03 3.379172440145111089e+00 4.092595146113110760e-02
3.932657697884953450e+03 3.396152376670294792e+00 3.280068755668769792e-02
3.936590355582839493e+03 3.420574104705645269e+00 2.368702480073570094e-02
3.940526945938423523e+03 3.437002831654512924e+00 1.994096388165641359e-02
3.944467472884363360e+03 3.440913605602629932e+00 2.298507522724451899e-02
3.948411940357249023e+03 3.437125268510673237e+00 2.450977905876847510e-02
3.952360352297607733e+03 3.418867722649628682e+00 1.777899887708535645e-02
3.956312712649906643e+03 3.419895857053414812e+00 1.347034022347497195e-02
3.960269025362557841e+03 3.431489342300576784e+00 1.373838790737135981e-02
3.964229294387921527e+03 3.454807636099086920e+00 1.605552735007117690e-02
3.968193523682310570e+03 3.482934527418504622e+00 1.590855812500878083e-02
3.972161717205994591e+03 3.514240776893192919e+00 1.380853569271981579e-02
3.976133878923201792e+03 3.539002268695687903e+00 1.110813440924409735e-02
3.980110012802126221e+03 3.554010436951150709e+00 7.221123168312052094e-03
3.984090122814929600e+03 3.551952058054550498e+00 6.526743593098392228e-03
3.988074212937745870e+03 3.531833535239395250e+00 9.007296645521455439e-03
3.992062287150684824e+03 3.497089654161983585e+00 1.099547688556312859e-02
3.996054349437837118e+03 3.453800766278942280e+00 1.061114929942319311e-02
4.000050403787276082e+03 3.415950252318741054e+00 8.783139120153972412e-03
4.004050454191064546e+03 3.378003166370554311e+00 8.921608903155336251e-03
4.008054504645257111e+03 3.351671613110512205e+00 8.047625165248577933e-03
4.012062559149903791e+03 3.338306693101197986e+00 6.264872103786546520e-03
4.016074621709055009e+03 3.342738686243727386e+00 8.774644159232221005e-03
4.020090696330765240e+03 3.357807717632040667e+00 1.210353402861850079e-02
4.024110787027097558e+03 3.379895926397994188e+00 1.382478396845992878e-02
4.028134897814125907e+03 3.403316956616467159e+00 1.382453792044305470e-02
4.032163032711941469e+03 3.424155967671475675e+00 1.202518197373083145e-02
4.036195195744654484e+03 3.437528121589084940e+00 9.147126289094637333e-03
4.040231390940400615e+03 3.440031885703501047e+00 8.730429556202181154e-03
4.044271622331342314e+03 3.430469471122230107e+00 1.075333781903294213e-02
4.048315893953675186e+03 3.410731927784089290e+00 1.079129233199262530e-02
4.052364209847629809e+03 3.388831390303118418e+00 9.179566320501405044e-03
4.056416574057479011e+03 3.367352050672377306e+00 6.448021764622694114e-03
4.060472990631537868e+03 3.351642708914468916e+00 4.539131347117583010e-03
4.064533463622170530e+03 3.345341589615264510e+00 3.803867293358582057e-03
4.068597997085794304e+03 3.348656782012094713e+00 4.664268990497703882e-03
4.072666595082881486e+03 3.360125184484105354e+00 5.169699402909237913e-03
4.076739261677965715e+03 3.377534864779978552e+00 5.602422466277410910e-03
4.080816000939644709e+03 3.393368302513156021e+00 5.350310246304841588e-03
4.084896816940585722e+03 3.405465423655840151e+00 4.756239996403557532e-03
4.088981713757527814e+03 3.412012081550514164e+00 4.431129172522950584e-03
4.093070695471286854e+03 3.414212076577158417e+00 4.409516481428309154e-03
4.097163766166759160e+03 3.411115419904859891e+00 5.655757987747369979e-03
4.101260929932927866e+03 3.404725425846149456e+00 6.446747756127168758e-03
4.105362190862862008e+03 3.397233754128828220e+00 6.978198904030851607e-03
4.109467553053726078e+03 3.393252769328801488e+00 6.580775179149635744e-03
4.113577020606780934e+03 3.393981795157218428e+00 5.376733947347471163e-03
4.117690597627389252e+03 3.400111757517927380e+00 5.162890178075328629e-03
4.121808288225018259e+03 3.411790226306606666e+00 5.637057050536435285e-03
4.125930096513244280e+03 3.429564457565753344e+00 5.785995996003438085e-03
4.130056026609759101e+03 3.451769104812464128e+00 4.578660065194730712e-03
4.134186082636369974e+03 3.474658621595887897e+00 3.462589500268749027e-03
4.138320268719007800e+03 3.496395389104648643e+00 3.181190474454290498e-03
4.142458588987728035e+03 3.516772004315520395e+00 3.057890483439455742e-03
4.146601047576717065e+03 3.533456375788519122e+00 2.897821140178393710e-03
4.150747648624294925e+03 3.546790915361845098e+00 2.444754939441210525e-03
4.154898396272920763e+03 3.558383422891920667e+00 2.932943686305773418e-03
4.159053294669195566e+03 3.565268072184723636e+00 3.381984881021287380e-03
4.163212347963865795e+03 3.567263799403976421e+00 3.429581355864999917e-03
4.167375560311830668e+03 3.563914039245796861e+00 2.926639713447288203e-03
4.171542935872143971e+03 3.553538976983180664e+00 2.718638947045754536e-03
4.175714478808017702e+03 3.537427702417798248e+00 2.940407863030108232e-03
4.179890193286827525e+03 3.515792311902045331e+00 3.615936877885855306e-03
4.184070083480115500e+03 3.489363322215161212e+00 3.170295024350509080e-03
4.188254153563597356e+03 3.460598168352312598e+00 2.905160054726679299e-03
4.192442407717161586e+03 3.434370577322998663e+00 2.920691036576706073e-03
4.196634850124880359e+03 3.411902226466665855e+00 2.386105933864589301e-03
4.200831484975006788e+03 3.394154728046535840e+00 1.780979676844977443e-03
4.205032316459983122e+03 3.382495969342880660e+00 2.611714613539815530e-03
4.209237348776444378e+03 3.375452028001910687e+00 3.405276617488201246e-03
4.213446586125221984e+03 3.372142710471444094e+00 3.729313494403328766e-03
4.217660032711349231e+03 3.370887317798317628e+00 3.167897870240762512e-03
4.221877692744061278e+03 3.369717486901914860e+00 2.731907723934138329e-03
4.226099570436806971e+03 3.367102181234907565e+00 2.464523841594398485e-03
4.230325670007245208e+03 3.362585742343841666e+00 3.172687295971451330e-03
4.234555995677254032e+03 3.357921375430589439e+00 3.491727870047725297e-03
4.238790551672932452e+03 3.352430117653547370e+00 3.395935564554183449e-03
4.243029342224606808e+03 3.346609066336567739e+00 3.153578515497043686e-03
4.247272371566832589e+03 3.340119339869415338e+00 3.285588454256076207e-03
4.251519643938400804e+03 3.332380491241886400e+00 3.810983603613117814e-03
4.255771163582340705e+03 3.323369567808327041e+00 4.180295272404886513e-03
4.260026934745924336e+03 3.312114387227434786e+00 3.834948234252122824e-03
4.264286961680671993e+03 3.298418816070895598e+00 2.522269463305626229e-03
4.268551248642354039e+03 3.278916236517342764e+00 3.334701106162274095e-03
4.272819799890998183e+03 3.256652391959008686e+00 4.522994791836364506e-03
4.277092619690890388e+03 3.233852211575004798e+00 4.861586394522471322e-03
4.281369712310583054e+03 3.211783111207738628e+00 4.349461765877330084e-03
4.285651082022895025e+03 3.193501147098420034e+00 3.575239917816925780e-03
4.289936733104918858e+03 3.180009584896022812e+00 2.900841591142450018e-03
4.294226669838025373e+03 3.172293881679270733e+00 2.969499973639372261e-03
4.298520896507864563e+03 3.171104439563071420e+00 3.443236155984515361e-03
4.302819417404373780e+03 3.175818851421535971e+00 2.862640411042938465e-03
4.307122236821779552e+03 3.183479964145103036e+00 2.463466032345452798e-03
4.311429359058603040e+03 3.194298330028735755e+00 2.673635666567660170e-03
4.315740788417662770e+03 3.208471893349645665e+00 3.012165967296515263e-03
4.320056529206081905e+03 3.225112098032148378e+00 3.100141748254424401e-03
4.324376585735290064e+03 3.244462084545470582e+00 2.849188194122470597e-03
4.328700962321026054e+03 3.265885089228261595e+00 3.482180483490945715e-03
4.333029663283348782e+03 3.287262543016797878e+00 4.711797633117840479e-03
4.337362692946633615e+03 3.307271960646556597e+00 6.443345865796193048e-03
4.341700055639581478e+03 3.322017852803035076e+00 6.691807884714391294e-03
4.346041755695222491e+03 3.328739133796699612e+00 5.365465412109929333e-03
4.350387797450919606e+03 3.322800898289906879e+00 4.264335953143154855e-03
4.354738185248371337e+03 3.303991171553225303e+00 5.936418096335646655e-03
4.359092923433621763e+03 3.275472414074643179e+00 8.771612940922357202e-03
