# starting wavelength: 3460.580
# ending wavelength: 7367.620
# wav flux eflux
3.463843857910266706e+03 2.352326616409596394e+00 6.703186276304499980e-02
3.467307701768178049e+03 2.384411562533049977e+00 5.082912586291501306e-02
3.470775009469947236e+03 2.392759672794537718e+00 4.307227532755873722e-02
3.474245784479418489e+03 2.389260834343474471e+00 3.848273399442009302e-02
3.477720030263898934e+03 2.382293202101494423e+00 3.708075314329440514e-02
3.481197750294164052e+03 2.381604211151670647e+00 3.244574165271553456e-02
3.484678948044459503e+03 2.386261530623342786e+00 3.038740475966521942e-02
3.488163626992504760e+03 2.396699055391408706e+00 2.506098341586671455e-02
3.491651790619498570e+03 2.411700429794273237e+00 2.290123955149198087e-02
3.495143442410119405e+03 2.428402675157011803e+00 2.061194881847041097e-02
3.498638585852530468e+03 2.441488110774224118e+00 1.855562935895615703e-02
3.502137224438384237e+03 2.448620657543269630e+00 1.768216800577070494e-02
3.505639361662823831e+03 2.454243335309901131e+00 1.686360666832525598e-02
3.509145001024487556e+03 2.461488213687004656e+00 1.591134532373216642e-02
3.512654146025513455e+03 2.468008893067872300e+00 1.513152879840558469e-02
3.516166800171540217e+03 2.472912052443545061e+00 1.451944647990378173e-02
3.519682966971712631e+03 2.476553874810527134e+00 1.400878595078165062e-02
3.523202649938685681e+03 2.479088814891588832e+00 1.354984640040980334e-02
3.526725852588625457e+03 2.480441322888834677e+00 1.336272889071376223e-02
3.530252578441215064e+03 2.481850658095745565e+00 1.360784209790673327e-02
3.533782831019657806e+03 2.480700361061218828e+00 1.348713918800311176e-02
3.537316613850678550e+03 2.476462850617111133e+00 1.354932524673530155e-02
3.540853930464530094e+03 2.468094701511064137e+00 1.327436279186990781e-02
3.544394784394995895e+03 2.454060589201873199e+00 1.233760349872072178e-02
3.547939179179392340e+03 2.441553398240417838e+00 1.173709438578133223e-02
3.551487118358572843e+03 2.428943031484822157e+00 1.148633817900716544e-02
3.555038605476932389e+03 2.415177404564595953e+00 1.140725600865240795e-02
3.558593644082410719e+03 2.399951155650453138e+00 1.145613337698297290e-02
3.562152237726494150e+03 2.387126879105162303e+00 1.117137155542066024e-02
3.565714389964221937e+03 2.378403767370505406e+00 1.041185974735002809e-02
3.569280104354187188e+03 2.368346235914797315e+00 1.047040175323132177e-02
3.572849384458542772e+03 2.356016796333824104e+00 1.043700035637710501e-02
3.576422233843002232e+03 2.344021316798555965e+00 1.038327313270991266e-02
3.579998656076846601e+03 2.332856229410706028e+00 1.016990002155571289e-02
3.583578654732924406e+03 2.319511694909296651e+00 1.007175171942151573e-02
3.587162233387658489e+03 2.302574628066516915e+00 9.235133193264029317e-03
3.590749395621047370e+03 2.285071643069361613e+00 8.303445975740935542e-03
3.594340145016669794e+03 2.268123957281644287e+00 7.703591164518179546e-03
3.597934485161687462e+03 2.254041555083984516e+00 7.641649765869147973e-03
3.601532419646850485e+03 2.243300309041281082e+00 8.127984426721168373e-03
3.605133952066498296e+03 2.232447954937151646e+00 8.218073056263697912e-03
3.608739086018566013e+03 2.223563977118475421e+00 7.101126797149681473e-03
3.612347825104585809e+03 2.215477627666309957e+00 6.120194899843356753e-03
3.615960172929691907e+03 2.206160379555505813e+00 5.664293598297926759e-03
3.619576133102622407e+03 2.193832392960859412e+00 6.061034867853617829e-03
3.623195709235726554e+03 2.178264413363626861e+00 6.047214321400373738e-03
3.626818904944963379e+03 2.162542793312945744e+00 5.498670798719406359e-03
3.630445723849909427e+03 2.142645691591434254e+00 6.188905959028647048e-03
3.634076169573760581e+03 2.120253544001910573e+00 7.571143138108961564e-03
3.637710245743335690e+03 2.095804551914695502e+00 9.387127115129357754e-03
3.641347955989080219e+03 2.072529523554395681e+00 9.530720707712190404e-03
3.644989303945070333e+03 2.055053441398362768e+00 9.081711387907705213e-03
3.648634293249016537e+03 2.037706510924905512e+00 8.956181960159447300e-03
3.652282927542266862e+03 2.024365807357491942e+00 9.330717377111873503e-03
3.655935210469810499e+03 2.016567252196710403e+00 1.178320359113813921e-02
3.659591145680281443e+03 2.009841463083308355e+00 1.334836702926622126e-02
3.663250736825963031e+03 2.004402546434706611e+00 1.341858510955055116e-02
3.666913987562790226e+03 1.990886411512998055e+00 1.330772793196846777e-02
3.670580901550354156e+03 1.971474575582388145e+00 1.453265682724376624e-02
3.674251482451905758e+03 1.953319846106678970e+00 1.658684843155159086e-02
3.677925733934358959e+03 1.941429290684779874e+00 1.776442762478742943e-02
3.681603659668294313e+03 1.932670223104261620e+00 1.850332551790812366e-02
3.685285263327964003e+03 1.931046022265295647e+00 1.854956324669244927e-02
3.688970548591293209e+03 1.935563209981751465e+00 1.902701579684839758e-02
3.692659519139885560e+03 1.944489787385543567e+00 1.868168612655052296e-02
3.696352178659026777e+03 1.958913319387423080e+00 1.883989543343271914e-02
3.700048530837686940e+03 1.974850724035738692e+00 2.046635115081256104e-02
3.703748579368525952e+03 1.996811809021520778e+00 2.169797068705874715e-02
3.707452327947895355e+03 2.019585450121829773e+00 2.253955743008763044e-02
3.711159780275844696e+03 2.041573191745121640e+00 2.309439345187148940e-02
3.714870940056121526e+03 2.062244607009675157e+00 2.261173028989987843e-02
3.718585810996179134e+03 2.078213562469877207e+00 2.073148470766485868e-02
3.722304396807176545e+03 2.088510657526422509e+00 1.882594778192214421e-02
3.726026701203984885e+03 2.098125105071573238e+00 1.822433671671844571e-02
3.729752727905190113e+03 2.093931624381276002e+00 1.949784232483292579e-02
3.733482480633096657e+03 2.079898207122190978e+00 2.117548067268506390e-02
3.737215963113731050e+03 2.046715234109115045e+00 1.815233464054641366e-02
3.740953179076846027e+03 2.019893350938158250e+00 1.305893733735865973e-02
3.744694132255923705e+03 1.998638993985259349e+00 1.020160951303647479e-02
3.748438826388181042e+03 1.982319783235385158e+00 1.036379129037020598e-02
3.752187265214570289e+03 1.973269884566750010e+00 1.136407936729782325e-02
3.755939452479786269e+03 1.969561777402649705e+00 1.077583473501081933e-02
3.759695391932267285e+03 1.967234160868402748e+00 8.549879855134806528e-03
3.763455087324201031e+03 1.966791521461331405e+00 6.482473984211199400e-03
3.767218542411526414e+03 1.965004453400152507e+00 6.178711904826330106e-03
3.770985760953939007e+03 1.962444739036642405e+00 5.917502726805167097e-03
3.774756746714894234e+03 1.955915102110383996e+00 5.790787267277115735e-03
3.778531503461610555e+03 1.945743616813480292e+00 6.060382614952953585e-03
3.782310034965073100e+03 1.933567650798249993e+00 6.420287461887714923e-03
3.786092345000039586e+03 1.916733200305825280e+00 6.448950830455614167e-03
3.789878437345040766e+03 1.895020644669626941e+00 6.573046812974756015e-03
3.793668315782387253e+03 1.868809623067245962e+00 6.882301809309518230e-03
3.797461984098170888e+03 1.841102388122887845e+00 8.276301156131224065e-03
3.801259446082270188e+03 1.817832861715089621e+00 8.994173268577427063e-03
3.805060705528353537e+03 1.801413285785107954e+00 9.487071319425889951e-03
3.808865766233883278e+03 1.786355203634542033e+00 9.256877778036024657e-03
3.812674632000118436e+03 1.773559523247610903e+00 8.985233497668384389e-03
3.816487306632119726e+03 1.764067695672816516e+00 7.966936121800907017e-03
3.820303793938753188e+03 1.765353815412820992e+00 8.094909337920987158e-03
3.824124097732693372e+03 1.773987083392281727e+00 8.691121962566961470e-03
3.827948221830427428e+03 1.787817087446067932e+00 8.132766868839420155e-03
3.831776170052258749e+03 1.808007225437880727e+00 8.113526648326273988e-03
3.835607946222312421e+03 1.830281311051818349e+00 8.624801100727639419e-03
3.839443554168536139e+03 1.848007346791417538e+00 8.923011351850338585e-03
3.843282997722705659e+03 1.855700217700182453e+00 1.017583010265024797e-02
3.847126280720429804e+03 1.848059423998991369e+00 9.623750771775225685e-03
3.850973407001151372e+03 1.830087532297260511e+00 8.685580675812104232e-03
3.854824380408153957e+03 1.794818509992518463e+00 1.138136471799089215e-02
3.858679204788563311e+03 1.751920922628143584e+00 2.241730968779125088e-02
3.862537883993353262e+03 1.714343554392263380e+00 3.145711396013175370e-02
3.866400421877347981e+03 1.696227720228884017e+00 3.429571972706803307e-02
3.870266822299226533e+03 1.710766612809782039e+00 3.042023772790558231e-02
3.874137089121526969e+03 1.763691951727917484e+00 2.948864696691468404e-02
3.878011226210649966e+03 1.847229518718957353e+00 3.859583607825999713e-02
3.881889237436861549e+03 1.951810891262485415e+00 5.064133434488612973e-02
3.885771126674299921e+03 2.057161859021713557e+00 5.466203141533152593e-02
3.889656897800975457e+03 2.135014055282356882e+00 4.973775845940744955e-02
3.893546554698777527e+03 2.176957767854372339e+00 4.055062961075577704e-02
3.897440101253477678e+03 2.172253818277985360e+00 3.974520422675920095e-02
3.901337541354732366e+03 2.120872300579800029e+00 4.880674911787691306e-02
3.905238878896088409e+03 2.033146398218289796e+00 5.396547548548399215e-02
3.909144117774985716e+03 1.932026015800063723e+00 4.981274662312810964e-02
3.913053261892762293e+03 1.834225291388192902e+00 3.784091230190583799e-02
3.916966315154656058e+03 1.760450526208355626e+00 2.823028380903476811e-02
3.920883281469812118e+03 1.722193442579893485e+00 3.186977857750637744e-02
3.924804164751283224e+03 1.717392930629644932e+00 3.592299499610020208e-02
3.928728968916035683e+03 1.736182406215798002e+00 3.107495562995912439e-02
3.932657697884953450e+03 1.760857367011975594e+00 2.255229832395832731e-02
3.936590355582839493e+03 1.782419726612440858e+00 1.632137264414555353e-02
3.940526945938423523e+03 1.794170466396677543e+00 1.842378285993572992e-02
3.944467472884363360e+03 1.798632671235200986e+00 2.009361508752174896e-02
3.948411940357249023e+03 1.801228946866176628e+00 1.789708933696963766e-02
3.952360352297607733e+03 1.809030015210110420e+00 1.205622957324912516e-02
3.956312712649906643e+03 1.828795199384123160e+00 1.096253863050673100e-02
3.960269025362557841e+03 1.859100030847322227e+00 1.385604746458008775e-02
3.964229294387921527e+03 1.892607112299046879e+00 1.514209357718271712e-02
3.968193523682310570e+03 1.925424481105500796e+00 1.297177433768801312e-02
3.972161717205994591e+03 1.949820018854271364e+00 9.538336905721825354e-03
3.976133878923201792e+03 1.963166203310020785e+00 7.162623635204114908e-03
3.980110012802126221e+03 1.962287780489785360e+00 6.696301655479575121e-03
3.984090122814929600e+03 1.944900888347870449e+00 7.026817348793896849e-03
3.988074212937745870e+03 1.912315044394536478e+00 6.500700721977963406e-03
3.992062287150684824e+03 1.872611182745070657e+00 6.364450503237037773e-03
3.996054349437837118e+03 1.829089378067298988e+00 6.606840881264752253e-03
4.000050403787276082e+03 1.789046228252116011e+00 6.533012932528402955e-03
4.004050454191064546e+03 1.755212672439693700e+00 6.596584059702495506e-03
4.008054504645257111e+03 1.733037402559899132e+00 6.252715284012306564e-03
4.012062559149903791e+03 1.722496043330736359e+00 6.260494493186913312e-03
4.016074621709055009e+03 1.723433731137884228e+00 8.123036485407325591e-03
4.020090696330765240e+03 1.731543223667570741e+00 9.835435741999624948e-03
4.024110787027097558e+03 1.742886692594062037e+00 1.087799328338984357e-02
4.028134897814125907e+03 1.756748239952051982e+00 1.103273013981744162e-02
4.032163032711941469e+03 1.768287305141026833e+00 9.125964732388136547e-03
4.036195195744654484e+03 1.774096966949697762e+00 6.302711443245042136e-03
4.040231390940400615e+03 1.769385613410545455e+00 5.786179429151899582e-03
4.044271622331342314e+03 1.753619113310503685e+00 7.547865472464519720e-03
4.048315893953675186e+03 1.728247574413477761e+00 8.492723439735717222e-03
4.052364209847629809e+03 1.701563579175719099e+00 7.886842183296613809e-03
4.056416574057479011e+03 1.678882240279766291e+00 6.762999636989087786e-03
4.060472990631537868e+03 1.663592009969451668e+00 4.616942789271443956e-03
4.064533463622170530e+03 1.657807339561501836e+00 5.242915813566851810e-03
4.068597997085794304e+03 1.660609369061170293e+00 7.481076388044349823e-03
4.072666595082881486e+03 1.667666129424128396e+00 8.393078957387544239e-03
4.076739261677965715e+03 1.678030922289164950e+00 8.510260342888351787e-03
4.080816000939644709e+03 1.684279509943981568e+00 7.734698709447056578e-03
4.084896816940585722e+03 1.684609399255752704e+00 6.851158781728881701e-03
4.088981713757527814e+03 1.679632849849422183e+00 8.364235851676430147e-03
4.093070695471286854e+03 1.672302534273468755e+00 1.013736214670018197e-02
4.097163766166759160e+03 1.663462492983181829e+00 1.037645329130891178e-02
4.101260929932927866e+03 1.655399967087744617e+00 8.963483014645489202e-03
4.105362190862862008e+03 1.653563104165159059e+00 7.605352248222146949e-03
4.109467553053726078e+03 1.657274322397823685e+00 8.016925267305543418e-03
4.113577020606780934e+03 1.667095809800121176e+00 9.239628483520272162e-03
4.117690597627389252e+03 1.680807030896866117e+00 9.385844477334785371e-03
4.121808288225018259e+03 1.695310322698955874e+00 7.737448871586300597e-03
4.125930096513244280e+03 1.708662513455833309e+00 6.822964566944171236e-03
4.130056026609759101e+03 1.719970076280513238e+00 7.456725692797519858e-03
4.134186082636369974e+03 1.728900984171006572e+00 8.221603944472322470e-03
4.138320268719007800e+03 1.737528701151986210e+00 8.065404513068417588e-03
4.142458588987728035e+03 1.749214033387453293e+00 7.265610029671503572e-03
4.146601047576717065e+03 1.761101426787771151e+00 6.769164516837252940e-03
4.150747648624294925e+03 1.773377573270056962e+00 6.696882522344697365e-03
4.154898396272920763e+03 1.789893325121131751e+00 6.854470375267597039e-03
4.159053294669195566e+03 1.805781614802350887e+00 5.730921858851531492e-03
4.163212347963865795e+03 1.818509906946865762e+00 5.122986261277465321e-03
4.167375560311830668e+03 1.823513440701901800e+00 4.155701597404379798e-03
4.171542935872143971e+03 1.819423468399198551e+00 3.980446082805992429e-03
4.175714478808017702e+03 1.808092239167670812e+00 3.995422691757744178e-03
4.179890193286827525e+03 1.788337125645712566e+00 3.521974172288990564e-03
4.184070083480115500e+03 1.762523268209816418e+00 5.056715535481013518e-03
4.188254153563597356e+03 1.734644421999471886e+00 7.009963253431822534e-03
4.192442407717161586e+03 1.710259465185284933e+00 7.583751112685331239e-03
4.196634850124880359e+03 1.693527863027420644e+00 7.239037555030167909e-03
4.200831484975006788e+03 1.684837731929721860e+00 6.724084766698231776e-03
4.205032316459983122e+03 1.684137922824768818e+00 7.155535504679145890e-03
4.209237348776444378e+03 1.690347299083866162e+00 8.676072041458465084e-03
4.213446586125221984e+03 1.701359043617800104e+00 1.047307909125630432e-02
4.217660032711349231e+03 1.712037670346472140e+00 1.024875810610085397e-02
4.221877692744061278e+03 1.723009752277964823e+00 8.034559838199525558e-03
4.226099570436806971e+03 1.729589375032443810e+00 7.289096482864094312e-03
4.230325670007245208e+03 1.730997877869817181e+00 7.439278092288152504e-03
4.234555995677254032e+03 1.727343984836905877e+00 7.600077985076515372e-03
4.238790551672932452e+03 1.717919180017243974e+00 7.175321799515460043e-03
4.243029342224606808e+03 1.705976082103239477e+00 6.819785144064557242e-03
4.247272371566832589e+03 1.692000656958196680e+00 5.869663871972967580e-03
4.251519643938400804e+03 1.676830825406510295e+00 5.334734597455481619e-03
4.255771163582340705e+03 1.664407992799852076e+00 5.098786481819116839e-03
4.260026934745924336e+03 1.653946281922519024e+00 3.854674805137587451e-03
4.264286961680671993e+03 1.642141436090396756e+00 3.505406584064999463e-03
4.268551248642354039e+03 1.628836797341094877e+00 3.497630340913246254e-03
4.272819799890998183e+03 1.614995852168404022e+00 3.458467705312701264e-03
4.277092619690890388e+03 1.600954527177035569e+00 3.322437640680282831e-03
4.281369712310583054e+03 1.587064563922652161e+00 3.432994783405400423e-03
4.285651082022895025e+03 1.575416294009976292e+00 2.943146458078982081e-03
4.289936733104918858e+03 1.569479089174081965e+00 2.933441035704547131e-03
4.294226669838025373e+03 1.568210184047699185e+00 2.802933138472084567e-03
4.298520896507864563e+03 1.569497627861879518e+00 2.882912031680940484e-03
4.302819417404373780e+03 1.574819224185246558e+00 2.566737416868363538e-03
4.307122236821779552e+03 1.584298445222664053e+00 2.951654786425373777e-03
4.311429359058603040e+03 1.598151581157060130e+00 4.421255383268934622e-03
4.315740788417662770e+03 1.611809301293565921e+00 4.628118241128588960e-03
4.320056529206081905e+03 1.623139096921965896e+00 4.307481141294507501e-03
4.324376585735290064e+03 1.632818279485001911e+00 4.071377449557633463e-03
4.328700962321026054e+03 1.640627233639442517e+00 3.782380393544413754e-03
4.333029663283348782e+03 1.645100469081089312e+00 3.963641823232427926e-03
4.337362692946633615e+03 1.645424430753474221e+00 3.839999666799395837e-03
4.341700055639581478e+03 1.643670344763583646e+00 3.487891167499374521e-03
4.346041755695222491e+03 1.640245319302159555e+00 3.683196899871597502e-03
4.350387797450919606e+03 1.634019460571453530e+00 3.806518009479750372e-03
4.354738185248371337e+03 1.625280273050720536e+00 3.855285828793572362e-03
4.359092923433621763e+03 1.615152502486723929e+00 4.327957283428184899e-03
4.363452016357056891e+03 1.604669236564826074e+00 4.575044644141886864e-03
4.367815468373414660e+03 1.595438477975148484e+00 4.924852988987381969e-03
4.372183283841789489e+03 1.588791644780668033e+00 4.903558563216877351e-03
4.376555467125633186e+03 1.581960816196621211e+00 4.639466678152988702e-03
4.380932022592760404e+03 1.576235883668019699e+00 4.720057261600201295e-03
4.385312954615354101e+03 1.571740835506163503e+00 5.374005726180005292e-03
4.389698267569970994e+03 1.567057341288581984e+00 5.608709853625123629e-03
4.394087965837542470e+03 1.563282029290544495e+00 4.736525078281098727e-03
4.398482053803381859e+03 1.557153178067508748e+00 3.814576493748280620e-03
4.402880535857186260e+03 1.546703401700178615e+00 3.777128600303888886e-03
4.407283416393044718e+03 1.533218274536253256e+00 4.686129038470962342e-03
4.411690699809440048e+03 1.517303415890820739e+00 4.745726292904923864e-03
4.416102390509250654e+03 1.501151203626404307e+00 4.072479054496101585e-03
4.420518492899761441e+03 1.485409815396649957e+00 3.265542240446832768e-03
4.424939011392662906e+03 1.471907620043249043e+00 3.533389296772919234e-03
4.429363950404056595e+03 1.461873198878607338e+00 3.735866542004119984e-03
4.433793314354462382e+03 1.453787916044899875e+00 3.148235350430661147e-03
4.438227107668818462e+03 1.445797502021728187e+00 4.163129091468199122e-03
4.442665334776488635e+03 1.440699685172718514e+00 6.400220676269578399e-03
4.447108000111265937e+03 1.441947046509768571e+00 7.739592886696763756e-03
4.451555108111379013e+03 1.451555371874001743e+00 7.074497507546619220e-03
4.456006663219492111e+03 1.471668071483065221e+00 6.401511573906622232e-03
4.460462669882713271e+03 1.501014904361397839e+00 6.900247319811550484e-03
4.464923132552597053e+03 1.538016060845240451e+00 8.573020510761546545e-03
4.469388055685150903e+03 1.579535727002372658e+00 9.920937071724603151e-03
4.473857443740837880e+03 1.621540704699652613e+00 1.049009933422850871e-02
4.478331301184580298e+03 1.658811933567246211e+00 8.770158695819613853e-03
4.482809632485766087e+03 1.688487751623405142e+00 6.428701798808619285e-03
4.487292442118253348e+03 1.707098857021586369e+00 6.209169718340201184e-03
4.491779734560373072e+03 1.713742486136204057e+00 7.096042113538563421e-03
4.496271514294934605e+03 1.710747548505420434e+00 7.214460211729334382e-03
4.500767785809231100e+03 1.699705000109677178e+00 6.310345490202933991e-03
4.505268553595042249e+03 1.684092951272644356e+00 4.509649152443137229e-03
4.509773822148638828e+03 1.667835563694929135e+00 2.305233299110561688e-03
