# starting wavelength: 3562.360
# ending wavelength: 8356.480
# wav flux eflux
3.565714389964221937e+03 3.067028309746039572e+00 1.714632900040471974e-02
3.569280104354187188e+03 3.076187442738828270e+00 1.397987432478023373e-02
3.572849384458542772e+03 3.073521752770870474e+00 1.174126486570303482e-02
3.576422233843002232e+03 3.063582283904055181e+00 1.038739787528908561e-02
3.579998656076846601e+03 3.049946616446276071e+00 9.510792290433835519e-03
3.583578654732924406e+03 3.035877558000144916e+00 8.133737209637304302e-03
3.587162233387658489e+03 3.022205037311990417e+00 7.179877826931614637e-03
3.590749395621047370e+03 3.009885368812650341e+00 6.855882214978007393e-03
3.594340145016669794e+03 2.999825135103229012e+00 6.906712394753825729e-03
3.597934485161687462e+03 2.992372088198309132e+00 7.144792320648792744e-03
3.601532419646850485e+03 2.984959062089093784e+00 6.192778041886425229e-03
3.605133952066498296e+03 2.980480630155416311e+00 6.456480427194138255e-03
3.608739086018566013e+03 2.976283909204871403e+00 6.594242677130328530e-03
3.612347825104585809e+03 2.971004757391450202e+00 6.567633526496759189e-03
3.615960172929691907e+03 2.963409107537906984e+00 6.402098118452042609e-03
3.619576133102622407e+03 2.952520222222231538e+00 6.145988514972547043e-03
3.623195709235726554e+03 2.938371405281189119e+00 5.911682355002893970e-03
3.626818904944963379e+03 2.920771810413195446e+00 5.713323646790130321e-03
3.630445723849909427e+03 2.901096257403999790e+00 5.204744331847314248e-03
3.634076169573760581e+03 2.878511932567030307e+00 4.658502705677141850e-03
3.637710245743335690e+03 2.852678166495949963e+00 4.412558855754743561e-03
3.641347955989080219e+03 2.823059173711965908e+00 4.763845255429896910e-03
3.644989303945070333e+03 2.790233791633496274e+00 5.337782172516942689e-03
3.648634293249016537e+03 2.756910209112968246e+00 5.481220519957004725e-03
3.652282927542266862e+03 2.717380899505894565e+00 6.018483809072510196e-03
3.655935210469810499e+03 2.675943536351083285e+00 6.360038373091615911e-03
3.659591145680281443e+03 2.633666517125852202e+00 6.508027067192645974e-03
3.663250736825963031e+03 2.591734815376727230e+00 6.439145905220304382e-03
3.666913987562790226e+03 2.551858667036388972e+00 6.232528891769301832e-03
3.670580901550354156e+03 2.511693151535275170e+00 4.751509664553007356e-03
3.674251482451905758e+03 2.478370638874258347e+00 3.760746291982593626e-03
3.677925733934358959e+03 2.450000042848174076e+00 3.127248093933190226e-03
3.681603659668294313e+03 2.426686243013564059e+00 3.232724437113375197e-03
3.685285263327964003e+03 2.408638234772421338e+00 4.172260769838053232e-03
3.688970548591293209e+03 2.395749423937333589e+00 5.298684390105750340e-03
3.692659519139885560e+03 2.386892014102723003e+00 6.185591178496617493e-03
3.696352178659026777e+03 2.381471553625106097e+00 6.552364809194828089e-03
3.700048530837686940e+03 2.376546727222853761e+00 6.247017417302534216e-03
3.703748579368525952e+03 2.376405288541540983e+00 5.995498631677527272e-03
3.707452327947895355e+03 2.377533207711037377e+00 5.437686909807057552e-03
3.711159780275844696e+03 2.378868399169307146e+00 4.791039614823599559e-03
3.714870940056121526e+03 2.379698997888353151e+00 4.434890889045392352e-03
3.718585810996179134e+03 2.381359415543935487e+00 4.197097173230572575e-03
3.722304396807176545e+03 2.381257561880814055e+00 4.299463518472802781e-03
3.726026701203984885e+03 2.380952744055913950e+00 4.491333241930239861e-03
3.729752727905190113e+03 2.380132010656816899e+00 4.745161689317762069e-03
3.733482480633096657e+03 2.378787116929283574e+00 4.945460801490770934e-03
3.737215963113731050e+03 2.377050473044872714e+00 4.914994892034869368e-03
3.740953179076846027e+03 2.375235825077988583e+00 4.573307832899968159e-03
3.744694132255923705e+03 2.373667131788307572e+00 4.070363285616698280e-03
3.748438826388181042e+03 2.371358533303212557e+00 3.718838783241151542e-03
3.752187265214570289e+03 2.370949426706476348e+00 3.901952541666790612e-03
3.755939452479786269e+03 2.371705193211538276e+00 4.590801630382464367e-03
3.759695391932267285e+03 2.373330226594918990e+00 5.264733350264834237e-03
3.763455087324201031e+03 2.375685105215585402e+00 5.597446556764410462e-03
3.767218542411526414e+03 2.380991925909426321e+00 4.672874843590796648e-03
3.770985760953939007e+03 2.383162130468171380e+00 3.928042300148499449e-03
3.774756746714894234e+03 2.383967183031694859e+00 4.094353068396202992e-03
3.778531503461610555e+03 2.383582394616519107e+00 5.870865238184526207e-03
3.782310034965073100e+03 2.382018193935790951e+00 8.858846276206897713e-03
3.786092345000039586e+03 2.383124265389934049e+00 1.054853876533019298e-02
3.789878437345040766e+03 2.388759784819293408e+00 1.092221670753228124e-02
3.793668315782387253e+03 2.399635407469029591e+00 1.055940183281653226e-02
3.797461984098170888e+03 2.418811576124073603e+00 9.796557487611491991e-03
3.801259446082270188e+03 2.441789434119349345e+00 8.841539308729787217e-03
3.805060705528353537e+03 2.472307405029106508e+00 7.917743340619631115e-03
3.808865766233883278e+03 2.511537821130885195e+00 6.845900313024221376e-03
3.812674632000118436e+03 2.559821403640817117e+00 5.920283025599326621e-03
3.816487306632119726e+03 2.624176166222060402e+00 1.002691346512122120e-02
3.820303793938753188e+03 2.697179359150180034e+00 1.505195615303924449e-02
3.824124097732693372e+03 2.774224084354030229e+00 1.913499421326034927e-02
3.827948221830427428e+03 2.849308069967184220e+00 2.080252591508616536e-02
3.831776170052258749e+03 2.918314292545403088e+00 2.039989947226001146e-02
3.835607946222312421e+03 2.975984474567027416e+00 1.822302131809112186e-02
3.839443554168536139e+03 3.019326795564340138e+00 1.531261443315245531e-02
3.843282997722705659e+03 3.049681903686168205e+00 1.344836712889195714e-02
3.847126280720429804e+03 3.059970477888936280e+00 1.335659434807051280e-02
3.850973407001151372e+03 3.050335130318550636e+00 1.682149253889133819e-02
3.854824380408153957e+03 3.023605888630845229e+00 2.118766855696268755e-02
3.858679204788563311e+03 2.976748786407843461e+00 2.368084568104567370e-02
3.862537883993353262e+03 2.928704294838505362e+00 2.269970604629014538e-02
3.866400421877347981e+03 2.880170988699972234e+00 2.016936877077816354e-02
3.870266822299226533e+03 2.832869935412813067e+00 1.868796095996251572e-02
3.874137089121526969e+03 2.786591298116634530e+00 1.903846487187972961e-02
3.878011226210649966e+03 2.740860289146252349e+00 2.010117260842722228e-02
3.881889237436861549e+03 2.695703163143501779e+00 2.090312175569867051e-02
3.885771126674299921e+03 2.650627047911144452e+00 2.091734196105728832e-02
3.889656897800975457e+03 2.606169035855370186e+00 2.044097994487297995e-02
3.893546554698777527e+03 2.568411163499452421e+00 1.983007173989286692e-02
3.897440101253477678e+03 2.533386753309469164e+00 1.774643154961271993e-02
3.901337541354732366e+03 2.498681157815884735e+00 1.687166019453797960e-02
3.905238878896088409e+03 2.462568739472899892e+00 1.731734803514802662e-02
3.909144117774985716e+03 2.417554994199309526e+00 1.654672667144387044e-02
3.913053261892762293e+03 2.377620308760042267e+00 1.479933817958124787e-02
3.916966315154656058e+03 2.342860626189692042e+00 1.383327107345956423e-02
3.920883281469812118e+03 2.313298114310168074e+00 1.379751893455287599e-02
3.924804164751283224e+03 2.288963350488311566e+00 1.421346463097526540e-02
3.928728968916035683e+03 2.269699024261706555e+00 1.438517361525802618e-02
3.932657697884953450e+03 2.256517256846269692e+00 1.383002933203517602e-02
3.936590355582839493e+03 2.248428297247365037e+00 1.259646204088094891e-02
3.940526945938423523e+03 2.248185455681162903e+00 1.124681739238156744e-02
3.944467472884363360e+03 2.247481425019976164e+00 1.084642703649974990e-02
3.948411940357249023e+03 2.245391457330929263e+00 1.148342712808059045e-02
3.952360352297607733e+03 2.241731010683087000e+00 1.094952623860838761e-02
3.956312712649906643e+03 2.233308235373902662e+00 6.051276645718224947e-03
3.960269025362557841e+03 2.238461949115331695e+00 6.573687904920665244e-03
3.964229294387921527e+03 2.249178737988949628e+00 8.384343340059007693e-03
3.968193523682310570e+03 2.262980395898144703e+00 9.228102060459044201e-03
3.972161717205994591e+03 2.276615571065280896e+00 8.448541167082216502e-03
3.976133878923201792e+03 2.287225842805444387e+00 6.256347869941681836e-03
3.980110012802126221e+03 2.291808956951716603e+00 4.766355017643468181e-03
3.984090122814929600e+03 2.289333343632959039e+00 5.250211587489798416e-03
3.988074212937745870e+03 2.280589094367680758e+00 6.590051879157138998e-03
3.992062287150684824e+03 2.269727652317520494e+00 6.648533450452225740e-03
3.996054349437837118e+03 2.251898808940941965e+00 6.813224275510430111e-03
4.000050403787276082e+03 2.232818428042539605e+00 6.216265192979027188e-03
4.004050454191064546e+03 2.212038338906293422e+00 3.126726702083912519e-03
4.008054504645257111e+03 2.200784279031910096e+00 2.261778185977528395e-03
4.012062559149903791e+03 2.196135785552793873e+00 2.823333086147732530e-03
4.016074621709055009e+03 2.198020716983321687e+00 4.206143343346731983e-03
4.020090696330765240e+03 2.204756087586645652e+00 4.830006496799829109e-03
4.024110787027097558e+03 2.213779756439965940e+00 4.620110012894590099e-03
4.028134897814125907e+03 2.223626521759200614e+00 3.400032900805339056e-03
4.032163032711941469e+03 2.232133712348943977e+00 2.121255616094328608e-03
4.036195195744654484e+03 2.237595294453008421e+00 2.171303272622610546e-03
4.040231390940400615e+03 2.241560116935025881e+00 2.306935732101339162e-03
4.044271622331342314e+03 2.242340638763097971e+00 2.696936521118417553e-03
4.048315893953675186e+03 2.241248443590656336e+00 2.909206930782695395e-03
4.052364209847629809e+03 2.239390696382613566e+00 2.857094218436322976e-03
4.056416574057479011e+03 2.237804779765598884e+00 2.439835934507972749e-03
4.060472990631537868e+03 2.237621994743599352e+00 1.821495569425888618e-03
4.064533463622170530e+03 2.239523116389028790e+00 1.551109019378796913e-03
4.068597997085794304e+03 2.244044886282535067e+00 1.675446867645660103e-03
4.072666595082881486e+03 2.251170949361271489e+00 1.723834837035552242e-03
4.076739261677965715e+03 2.260410186743608385e+00 1.119745160065049221e-03
4.080816000939644709e+03 2.269659463594985827e+00 5.642250182077248374e-04
4.084896816940585722e+03 2.278569908231659724e+00 4.687043084478654652e-04
4.088981713757527814e+03 2.286676558381266045e+00 4.882751646265595462e-04
4.093070695471286854e+03 2.294208218425198176e+00 4.936006919096789288e-04
4.097163766166759160e+03 2.301137342054630164e+00 4.251881056463863422e-04
4.101260929932927866e+03 2.306882498260183212e+00 7.193930955345076341e-04
4.105362190862862008e+03 2.311710888839778377e+00 8.926776243426239651e-04
4.109467553053726078e+03 2.315789418716737824e+00 8.679850326506626012e-04
4.113577020606780934e+03 2.319295345707912848e+00 7.342521458022128761e-04
4.117690597627389252e+03 2.322440817377379840e+00 5.985578003694001998e-04
4.121808288225018259e+03 2.325364320213836766e+00 7.983013586724881528e-04
4.125930096513244280e+03 2.327408909345817012e+00 1.148944572194856434e-03
4.130056026609759101e+03 2.327896508747753668e+00 1.376542353910029234e-03
4.134186082636369974e+03 2.326482949561012425e+00 1.457505192888747724e-03
4.138320268719007800e+03 2.322517639887796914e+00 1.166047941307374195e-03
4.142458588987728035e+03 2.314999075696120734e+00 9.525903912507217202e-04
4.146601047576717065e+03 2.304136686556617963e+00 1.121669748831135606e-03
4.150747648624294925e+03 2.290203338816022782e+00 1.559738102495680095e-03
4.154898396272920763e+03 2.273880480203266607e+00 1.822136780244676619e-03
4.159053294669195566e+03 2.255983826959828686e+00 1.507188629304898790e-03
4.163212347963865795e+03 2.237539065991332787e+00 1.183814534758596392e-03
4.167375560311830668e+03 2.219137131768170512e+00 1.229809020573390975e-03
4.171542935872143971e+03 2.200827099967414213e+00 1.436797893317150361e-03
4.175714478808017702e+03 2.182579014887599644e+00 1.453172145753337972e-03
4.179890193286827525e+03 2.164447810918513238e+00 1.365419615493364703e-03
4.184070083480115500e+03 2.146892043696703389e+00 1.158686751428787817e-03
4.188254153563597356e+03 2.129558729496394243e+00 1.218182362947073816e-03
4.192442407717161586e+03 2.112613687857990641e+00 1.654851705466461225e-03
4.196634850124880359e+03 2.096950577494669510e+00 1.796830764626651186e-03
4.200831484975006788e+03 2.083618512864771510e+00 1.630601400548183566e-03
4.205032316459983122e+03 2.073088674157092637e+00 1.298821668253573054e-03
4.209237348776444378e+03 2.065524043283188949e+00 1.320726975588455438e-03
4.213446586125221984e+03 2.061024765394534164e+00 1.619296823527546607e-03
4.217660032711349231e+03 2.058929533271996792e+00 1.617653760845123162e-03
4.221877692744061278e+03 2.058537245854180409e+00 1.394531263418306768e-03
4.226099570436806971e+03 2.059105254137542751e+00 1.006624559427179945e-03
4.230325670007245208e+03 2.059786084657790450e+00 8.070329009543144704e-04
4.234555995677254032e+03 2.059980899559546774e+00 7.816268601957616262e-04
4.238790551672932452e+03 2.059459203482295830e+00 7.777252246873836601e-04
4.243029342224606808e+03 2.057766959071291257e+00 7.537795185225182109e-04
4.247272371566832589e+03 2.055115467676638108e+00 7.676145020002946451e-04
4.251519643938400804e+03 2.051058240838794955e+00 7.855113493869321679e-04
4.255771163582340705e+03 2.045673176628333145e+00 8.590986694030931575e-04
4.260026934745924336e+03 2.039043268464281411e+00 8.421912626533509466e-04
4.264286961680671993e+03 2.031164791371278699e+00 6.402189836437382001e-04
4.268551248642354039e+03 2.021530164419583997e+00 1.240962511496801913e-03
4.272819799890998183e+03 2.011203699842845083e+00 1.450523389554535551e-03
4.277092619690890388e+03 2.001073901837580049e+00 1.284165923403796008e-03
4.281369712310583054e+03 1.991585133449801370e+00 9.953295040125422974e-04
4.285651082022895025e+03 1.983540133917686132e+00 8.369927440416098435e-04
4.289936733104918858e+03 1.977219624948057586e+00 8.440019358903237201e-04
4.294226669838025373e+03 1.973841403900739477e+00 1.079110368715588105e-03
4.298520896507864563e+03 1.972637474236399679e+00 1.446417659146289822e-03
4.302819417404373780e+03 1.973252466934528382e+00 1.587544040460121993e-03
4.307122236821779552e+03 1.975225204609915464e+00 1.491693355012208315e-03
4.311429359058603040e+03 1.978237187742295289e+00 1.423087037418018300e-03
4.315740788417662770e+03 1.982203742030469895e+00 2.119125829419439295e-03
4.320056529206081905e+03 1.987907450243006302e+00 2.752852452890748852e-03
4.324376585735290064e+03 1.996246631031238783e+00 2.759045212794514548e-03
4.328700962321026054e+03 2.007887577061810536e+00 2.410194604853563120e-03
4.333029663283348782e+03 2.022532370879078112e+00 2.518633198535319417e-03
4.337362692946633615e+03 2.039404068013729088e+00 2.949236435292693428e-03
4.341700055639581478e+03 2.057582328805660055e+00 3.438863663334588115e-03
4.346041755695222491e+03 2.075178519878663863e+00 3.655814759746264884e-03
4.350387797450919606e+03 2.090098779419666375e+00 3.544675734912282241e-03
4.354738185248371337e+03 2.101891456708893990e+00 2.986048982429954056e-03
4.359092923433621763e+03 2.108931447417690563e+00 2.254379011364965324e-03
4.363452016357056891e+03 2.110044938213158972e+00 2.621807946531890497e-03
4.367815468373414660e+03 2.105386595660970528e+00 3.397873824051451681e-03
4.372183283841789489e+03 2.096203911038181378e+00 3.167199524547881576e-03
4.376555467125633186e+03 2.085686151640161246e+00 2.477372673135610440e-03
4.380932022592760404e+03 2.074580677023766917e+00 1.606907705795479003e-03
4.385312954615354101e+03 2.064255964174581237e+00 1.692188753844150800e-03
4.389698267569970994e+03 2.055002331109792024e+00 2.180349020786045457e-03
4.394087965837542470e+03 2.045945363530927263e+00 2.153185488960982549e-03
4.398482053803381859e+03 2.035875336760760046e+00 2.043688369407067537e-03
4.402880535857186260e+03 2.025302429656646197e+00 2.861827700687624623e-03
4.407283416393044718e+03 2.016932940745519431e+00 2.897046820988520566e-03
4.411690699809440048e+03 2.010551901859642054e+00 2.948150730463285855e-03
4.416102390509250654e+03 2.005242625257070532e+00 3.170173321941838727e-03
4.420518492899761441e+03 2.000269303198650039e+00 3.482892448970922525e-03
4.424939011392662906e+03 1.995727388941480385e+00 3.629692252856868591e-03
4.429363950404056595e+03 1.991521995705092696e+00 3.593289379254951173e-03
4.433793314354462382e+03 1.988149213872293597e+00 3.658991470628726855e-03
4.438227107668818462e+03 1.986810427267996948e+00 4.074318229417469781e-03
4.442665334776488635e+03 1.987995453408322177e+00 4.844888550512967997e-03
4.447108000111265937e+03 1.992468788194884155e+00 5.534870103497323453e-03
4.451555108111379013e+03 2.001395242383413375e+00 5.590186877030871131e-03
4.456006663219492111e+03 2.016454911686853091e+00 4.674713172355123708e-03
4.460462669882713271e+03 2.039853202087861916e+00 4.146828501277658244e-03
4.464923132552597053e+03 2.070139376001904008e+00 5.985455792996205795e-03
4.469388055685150903e+03 2.104768934229648725e+00 7.893166115008643305e-03
4.473857443740837880e+03 2.139881498793066328e+00 8.282530777567249924e-03
4.478331301184580298e+03 2.170079957420151473e+00 6.760517658743050301e-03
4.482809632485766087e+03 2.189363681068173584e+00 4.776802326008204071e-03
4.487292442118253348e+03 2.194917643442330757e+00 4.214901815458966042e-03
4.491779734560373072e+03 2.188010298071513038e+00 4.560973408921242638e-03
4.496271514294934605e+03 2.167978269867957053e+00 5.785221134808022497e-03
4.500767785809231100e+03 2.137137447404872770e+00 6.484585998205119432e-03
4.505268553595042249e+03 2.099071960091535960e+00 6.207104637170365695e-03
4.509773822148638828e+03 2.057378136382197464e+00 4.927966523109113088e-03
4.514283595970789065e+03 2.015967325610403815e+00 3.069820925647948930e-03
4.518797879566761367e+03 1.977913839084145087e+00 1.876866948778027535e-03
4.523316677446328868e+03 1.945061389116895523e+00 2.197288506884876019e-03
4.527839994123776705e+03 1.917800488872865694e+00 2.298391845482085707e-03
4.532367834117902021e+03 1.894954148300355801e+00 1.719776623056129159e-03
4.536900201952022144e+03 1.874716604710439771e+00 1.238008560787752250e-03
4.541437102153975502e+03 1.856540429690360261e+00 1.223144023755830864e-03
4.545978539256130716e+03 1.841259412231793569e+00 9.180642007141088645e-04
4.550524517795388419e+03 1.827386023202344001e+00 6.463217924940265055e-04
4.555075042313184895e+03 1.814189878736431449e+00 6.604158805950923134e-04
4.559630117355500261e+03 1.801450824712894638e+00 5.910072010542784249e-04
4.564189747472856652e+03 1.788596217491343676e+00 5.347912878887057771e-04
4.568753937220330954e+03 1.775027627685290099e+00 5.212341671680194213e-04
4.573322691157552981e+03 1.761158024056250548e+00 5.452544499236529211e-04
4.577896013848711846e+03 1.747151782213200999e+00 5.891440984480590540e-04
4.582473909862562323e+03 1.732719945028743158e+00 6.338476399484030714e-04
4.587056383772426670e+03 1.717999080808310319e+00 6.729508395846394006e-04
4.591643440156200086e+03 1.703081144037382311e+00 7.271285925056678555e-04
4.596235083596357981e+03 1.688358281375613945e+00 5.825875978689591716e-04
4.600831318679955984e+03 1.674246160152688567e+00 4.364846353320990004e-04
4.605432149998637215e+03 1.661003013921573235e+00 3.035170351503294799e-04
4.610037582148637739e+03 1.648856286487015543e+00 2.898936659031015918e-04
4.614647619730787483e+03 1.637857304238810707e+00 2.893140932794952816e-04
4.619262267350520233e+03 1.627839745400690985e+00 3.390632505688087194e-04
4.623881529617872729e+03 1.618122493171035403e+00 4.316055645714229221e-04
4.628505411147491941e+03 1.608606009902291412e+00 5.672993355329803648e-04
4.633133916558640522e+03 1.598944227126940065e+00 7.214663614573052020e-04
4.637767050475200449e+03 1.588470614743378473e+00 9.527401654830248414e-04
4.642404817525677572e+03 1.576704152456409602e+00 1.102414173257321378e-03
