# starting wavelength: 3460.580
# ending wavelength: 7367.620
# wav flux eflux
3.463843857910266706e+03 2.602077994463048771e+00 5.602749020024885840e-02
3.467307701768178049e+03 2.628022835082270081e+00 4.048006001956347411e-02
3.470775009469947236e+03 2.633703975096746142e+00 3.075412097353672283e-02
3.474245784479418489e+03 2.624538410465445004e+00 2.544216713657146411e-02
3.477720030263898934e+03 2.607552814394466623e+00 2.268083162081259083e-02
3.481197750294164052e+03 2.588459096436014129e+00 2.157100150931453089e-02
3.484678948044459503e+03 2.572631797387783692e+00 1.933161267261937141e-02
3.488163626992504760e+03 2.560938892508497933e+00 1.654994921160601873e-02
3.491651790619498570e+03 2.552046995304490640e+00 1.370569587671045114e-02
3.495143442410119405e+03 2.547865147353966186e+00 1.268373935929930849e-02
3.498638585852530468e+03 2.548319536624981119e+00 1.224435019381708324e-02
3.502137224438384237e+03 2.551927021045016897e+00 1.176516663790158450e-02
3.505639361662823831e+03 2.557758844918474495e+00 1.144964913473999271e-02
3.509145001024487556e+03 2.563654355888111080e+00 1.096408604512034979e-02
3.512654146025513455e+03 2.569717189602942042e+00 1.063745667778660982e-02
3.516166800171540217e+03 2.574601378770337234e+00 1.030187429515041012e-02
3.519682966971712631e+03 2.575985491644976033e+00 9.886716569712501387e-03
3.523202649938685681e+03 2.573991368104393551e+00 9.778346919242078550e-03
3.526725852588625457e+03 2.571672511714159892e+00 9.862829963973453185e-03
3.530252578441215064e+03 2.569428881082686633e+00 1.016860827731181499e-02
3.533782831019657806e+03 2.570053143163042009e+00 1.035840480912969888e-02
3.537316613850678550e+03 2.565195394288330100e+00 1.137729938829483423e-02
3.540853930464530094e+03 2.560908752331576554e+00 1.172554631360266109e-02
3.544394784394995895e+03 2.556616714520466349e+00 1.173672439797125017e-02
3.547939179179392340e+03 2.551155241315439692e+00 1.164529121923572018e-02
3.551487118358572843e+03 2.545623249663548471e+00 1.119351750814961619e-02
3.555038605476932389e+03 2.537861518200629440e+00 1.066985132807791309e-02
3.558593644082410719e+03 2.530313743975580287e+00 1.091229508436219499e-02
3.562152237726494150e+03 2.521096177589195797e+00 1.112794788780494155e-02
3.565714389964221937e+03 2.511610753315717481e+00 1.130325729591517489e-02
3.569280104354187188e+03 2.502799428115549674e+00 1.113248587385490436e-02
3.572849384458542772e+03 2.492649737823364298e+00 1.081163723572559077e-02
3.576422233843002232e+03 2.483803277093660888e+00 9.880604512272354173e-03
3.579998656076846601e+03 2.471422207903677837e+00 9.095382864679606508e-03
3.583578654732924406e+03 2.454529071423350306e+00 9.347205682973220436e-03
3.587162233387658489e+03 2.435853358065707130e+00 1.061046609694433866e-02
3.590749395621047370e+03 2.413062238621026978e+00 1.217694668925658856e-02
3.594340145016669794e+03 2.390541563166079353e+00 1.285478274685155665e-02
3.597934485161687462e+03 2.369153093266026300e+00 1.288673686602591004e-02
3.601532419646850485e+03 2.350551729232227327e+00 1.239567530730248390e-02
3.605133952066498296e+03 2.334706953735767865e+00 1.212539302434324263e-02
3.608739086018566013e+03 2.318768136116297285e+00 1.176651378957622313e-02
3.612347825104585809e+03 2.299368451746339304e+00 1.132731364878888577e-02
3.615960172929691907e+03 2.286743912841376236e+00 1.214452742208590487e-02
3.619576133102622407e+03 2.275325569633046552e+00 1.279930372509515552e-02
3.623195709235726554e+03 2.264793480364071243e+00 1.307837533395670056e-02
3.626818904944963379e+03 2.259948972813232704e+00 1.242774831231805918e-02
3.630445723849909427e+03 2.253948963159319696e+00 1.063479735048699325e-02
3.634076169573760581e+03 2.246563221487356987e+00 8.823873032050138024e-03
3.637710245743335690e+03 2.235815133030418345e+00 8.421224505302396870e-03
3.641347955989080219e+03 2.222076494804166469e+00 8.939443223757495213e-03
3.644989303945070333e+03 2.206305335388926370e+00 9.399358943966576799e-03
3.648634293249016537e+03 2.188670875874234145e+00 9.347361120872046958e-03
3.652282927542266862e+03 2.170622601194193368e+00 8.857312626958891918e-03
3.655935210469810499e+03 2.152240099611859581e+00 8.264344852313060263e-03
3.659591145680281443e+03 2.134177350223219971e+00 7.714926803712375721e-03
3.663250736825963031e+03 2.116232525702312017e+00 7.561140415193227070e-03
3.666913987562790226e+03 2.100434724900294814e+00 7.278215807269099863e-03
3.670580901550354156e+03 2.086169281387842744e+00 7.203258871568238297e-03
3.674251482451905758e+03 2.073744926954839585e+00 7.241218787182914125e-03
3.677925733934358959e+03 2.065977523585864173e+00 7.318661647606913151e-03
3.681603659668294313e+03 2.063974017054617693e+00 7.082503807470197019e-03
3.685285263327964003e+03 2.067337196024114032e+00 6.474167241282722390e-03
3.688970548591293209e+03 2.074236422603507712e+00 6.352747080824660067e-03
3.692659519139885560e+03 2.081634471279122600e+00 6.605624769475106940e-03
3.696352178659026777e+03 2.090762467899861310e+00 6.675746101774392496e-03
3.700048530837686940e+03 2.100445460599433822e+00 6.977430466726523492e-03
3.703748579368525952e+03 2.111124314139011471e+00 8.133418359440621262e-03
3.707452327947895355e+03 2.123427085845867257e+00 8.474190237183078234e-03
3.711159780275844696e+03 2.134421932106334463e+00 7.964964781104253919e-03
3.714870940056121526e+03 2.142925421693766097e+00 7.438640390429580862e-03
3.718585810996179134e+03 2.148930686562944281e+00 6.838106668064346944e-03
3.722304396807176545e+03 2.151502907877756776e+00 6.897382710604455132e-03
3.726026701203984885e+03 2.151048806504180178e+00 7.254538744565247610e-03
3.729752727905190113e+03 2.150427218599778367e+00 7.564705564047354523e-03
3.733482480633096657e+03 2.144516382826140433e+00 8.098072458788347153e-03
3.737215963113731050e+03 2.135921850822543266e+00 8.116235122993559203e-03
3.740953179076846027e+03 2.120795890473585299e+00 6.091311985012920482e-03
3.744694132255923705e+03 2.109955210593027708e+00 4.368873928846698021e-03
3.748438826388181042e+03 2.102414184098765126e+00 3.115717014631713428e-03
3.752187265214570289e+03 2.100431057936036794e+00 3.641892438456134987e-03
3.755939452479786269e+03 2.102073075580936479e+00 4.470357310932854440e-03
3.759695391932267285e+03 2.107996701025998565e+00 5.434018543903630996e-03
3.763455087324201031e+03 2.115397004764541400e+00 6.161612544044876329e-03
3.767218542411526414e+03 2.120761374337198024e+00 6.505492010732598709e-03
3.770985760953939007e+03 2.118996252625668486e+00 5.954803506313295809e-03
3.774756746714894234e+03 2.115161723472008148e+00 5.602495000643942236e-03
3.778531503461610555e+03 2.104566462912398794e+00 5.112549036952692728e-03
3.782310034965073100e+03 2.085450642758353013e+00 5.652521982544841256e-03
3.786092345000039586e+03 2.060451878468061881e+00 6.919453871662450441e-03
3.789878437345040766e+03 2.031478830602446717e+00 8.604597007254629476e-03
3.793668315782387253e+03 2.001450476911482479e+00 9.758444183826384469e-03
3.797461984098170888e+03 1.972260731893170638e+00 9.806406263270721346e-03
3.801259446082270188e+03 1.946856410607258336e+00 8.694219451742375704e-03
3.805060705528353537e+03 1.930225952849669913e+00 6.888022841825635831e-03
3.808865766233883278e+03 1.920325559316370168e+00 5.403966806519865280e-03
3.812674632000118436e+03 1.922794485309679891e+00 6.065079122843956491e-03
3.816487306632119726e+03 1.934987181805427170e+00 7.155946736061028803e-03
3.820303793938753188e+03 1.960144023672923730e+00 6.764548810938440966e-03
3.824124097732693372e+03 1.986932732858714967e+00 5.470702066261619485e-03
3.827948221830427428e+03 2.013436162173484423e+00 3.793746567665848540e-03
3.831776170052258749e+03 2.038804054014296874e+00 2.994698831063999367e-03
3.835607946222312421e+03 2.061249558009709215e+00 4.968164440276520710e-03
3.839443554168536139e+03 2.074038347729458831e+00 6.599381403786917615e-03
3.843282997722705659e+03 2.076533339450076010e+00 7.590823402137398049e-03
3.847126280720429804e+03 2.064044611436094634e+00 7.306021761557757177e-03
3.850973407001151372e+03 2.039555441233332100e+00 7.262079230812621029e-03
3.854824380408153957e+03 2.002305721845160758e+00 1.265142393514417582e-02
3.858679204788563311e+03 1.958333537820629244e+00 1.966382054740732632e-02
3.862537883993353262e+03 1.920318111243601189e+00 2.440529774892386330e-02
3.866400421877347981e+03 1.899095041039320586e+00 2.428644527019884619e-02
3.870266822299226533e+03 1.903832744535783217e+00 2.098491911417183289e-02
3.874137089121526969e+03 1.934955983191069429e+00 2.284914173450669495e-02
3.878011226210649966e+03 1.987459974279125685e+00 3.177825099143363752e-02
3.881889237436861549e+03 2.047535254141877648e+00 3.847923217271359553e-02
3.885771126674299921e+03 2.103781900448283171e+00 3.848644220320844578e-02
3.889656897800975457e+03 2.141317276522018087e+00 3.258576873471909913e-02
3.893546554698777527e+03 2.150249544727435680e+00 2.705721980921823103e-02
3.897440101253477678e+03 2.126890083280696064e+00 2.918561329420631123e-02
3.901337541354732366e+03 2.072676381140277080e+00 3.578817195694499603e-02
3.905238878896088409e+03 1.995943480687228044e+00 3.757463438685503671e-02
3.909144117774985716e+03 1.914087737888310103e+00 3.174333506804875166e-02
3.913053261892762293e+03 1.844375958162834728e+00 2.246495274096020275e-02
3.916966315154656058e+03 1.796394846712847881e+00 1.867955891072855049e-02
3.920883281469812118e+03 1.776699479524505021e+00 2.341640373307375678e-02
3.924804164751283224e+03 1.778047533923718282e+00 2.603502366827870410e-02
3.928728968916035683e+03 1.791519619709980304e+00 2.209652739668942559e-02
3.932657697884953450e+03 1.805061344534239609e+00 1.456045933927327396e-02
3.936590355582839493e+03 1.810511442788754977e+00 1.220922945947770961e-02
3.940526945938423523e+03 1.806654365406814344e+00 1.567912804931348436e-02
3.944467472884363360e+03 1.799399628438983489e+00 1.702810353113480904e-02
3.948411940357249023e+03 1.793073469989816093e+00 1.475881761160291808e-02
3.952360352297607733e+03 1.794648105302646401e+00 1.174550117632236837e-02
3.956312712649906643e+03 1.804681392912291127e+00 1.022777354684876495e-02
3.960269025362557841e+03 1.824589324300939230e+00 1.183273776099802096e-02
3.964229294387921527e+03 1.851718579409338705e+00 1.314184059418249499e-02
3.968193523682310570e+03 1.881403834840581046e+00 1.201909421148389390e-02
3.972161717205994591e+03 1.908229320185557798e+00 9.037321773953155973e-03
3.976133878923201792e+03 1.926609590899424962e+00 5.784393029073729188e-03
3.980110012802126221e+03 1.932374025466771617e+00 4.824259376622198718e-03
3.984090122814929600e+03 1.924211686265429044e+00 5.275949856178350703e-03
3.988074212937745870e+03 1.903607123702647064e+00 5.538588321851631822e-03
3.992062287150684824e+03 1.874923867306287351e+00 4.918697576906607208e-03
3.996054349437837118e+03 1.842353208414424071e+00 4.708201991741372584e-03
4.000050403787276082e+03 1.812833450990738005e+00 5.284128547024304241e-03
4.004050454191064546e+03 1.789164226576503092e+00 5.553231870665927862e-03
4.008054504645257111e+03 1.773842830887006450e+00 5.165279884773735231e-03
4.012062559149903791e+03 1.768362964005183002e+00 4.922145223059875424e-03
4.016074621709055009e+03 1.771857455816097104e+00 6.401694675047838248e-03
4.020090696330765240e+03 1.782954902900145022e+00 8.462000082932966821e-03
4.024110787027097558e+03 1.797957782810116978e+00 9.570829740663103213e-03
4.028134897814125907e+03 1.813965442337921896e+00 9.137884935404294584e-03
4.032163032711941469e+03 1.826110413228601237e+00 7.302602111601634235e-03
4.036195195744654484e+03 1.831475144395772192e+00 5.389198958667878146e-03
4.040231390940400615e+03 1.828253425624228434e+00 5.873811633767681180e-03
4.044271622331342314e+03 1.815990329900267319e+00 7.849329928441919207e-03
4.048315893953675186e+03 1.799039250740491092e+00 8.116712314918440169e-03
4.052364209847629809e+03 1.780593881679107149e+00 6.778992782819421442e-03
4.056416574057479011e+03 1.764970810234401277e+00 4.679089743910657892e-03
4.060472990631537868e+03 1.755066372179650003e+00 3.231674844942593241e-03
4.064533463622170530e+03 1.751976684030359888e+00 3.863580651147916975e-03
4.068597997085794304e+03 1.756035825752072732e+00 5.099876061738241838e-03
4.072666595082881486e+03 1.763445918757740483e+00 5.245264876170151538e-03
4.076739261677965715e+03 1.771995998412702056e+00 3.995702588953743695e-03
4.080816000939644709e+03 1.779019625493590828e+00 2.868903530262582879e-03
4.084896816940585722e+03 1.783874380250802139e+00 2.776536508504498513e-03
4.088981713757527814e+03 1.787219555672857618e+00 3.063984949419130618e-03
4.093070695471286854e+03 1.788603290705993443e+00 3.300924446309879898e-03
4.097163766166759160e+03 1.788933112344493592e+00 2.963446173066422960e-03
4.101260929932927866e+03 1.789192945408652147e+00 2.195116052198730575e-03
4.105362190862862008e+03 1.791390714849150578e+00 1.761725186685690571e-03
4.109467553053726078e+03 1.795840088642527199e+00 2.134023640562697152e-03
4.113577020606780934e+03 1.801643128643741987e+00 2.144688320452670972e-03
4.117690597627389252e+03 1.808706214257972178e+00 2.001197004941339137e-03
4.121808288225018259e+03 1.816732453642366352e+00 2.148302525925394318e-03
4.125930096513244280e+03 1.826732797513729745e+00 2.296576269660901941e-03
4.130056026609759101e+03 1.837710402078388539e+00 2.384490085702308491e-03
4.134186082636369974e+03 1.850131992283296833e+00 2.247768837451834690e-03
4.138320268719007800e+03 1.863350669977783314e+00 2.484059503131901860e-03
4.142458588987728035e+03 1.876919091039845222e+00 3.179327883028139779e-03
4.146601047576717065e+03 1.890053805191809655e+00 3.304515813377268806e-03
4.150747648624294925e+03 1.900772746980534444e+00 2.899788370384997777e-03
4.154898396272920763e+03 1.908263989189083132e+00 2.709402851295862440e-03
4.159053294669195566e+03 1.912272084424970542e+00 2.943593155990966662e-03
4.163212347963865795e+03 1.913463487647985017e+00 3.031671525487585842e-03
4.167375560311830668e+03 1.911726386728257010e+00 3.013080428913870578e-03
4.171542935872143971e+03 1.906581700366459353e+00 3.163095360333214104e-03
4.175714478808017702e+03 1.897399104899907263e+00 3.340427972953593540e-03
4.179890193286827525e+03 1.883957901801214918e+00 3.337097789577705542e-03
4.184070083480115500e+03 1.867912317934953492e+00 3.295823818319358698e-03
4.188254153563597356e+03 1.850059985811192353e+00 3.387376846960749900e-03
4.192442407717161586e+03 1.829964764215122219e+00 4.762470076832579780e-03
4.196634850124880359e+03 1.810980326504968652e+00 5.196480420590882283e-03
4.200831484975006788e+03 1.794064808208956086e+00 5.002976992716851555e-03
4.205032316459983122e+03 1.779656489986490175e+00 4.505866198589765156e-03
4.209237348776444378e+03 1.768308968974666495e+00 4.199769308009746079e-03
4.213446586125221984e+03 1.760801751808019011e+00 4.333930426676373647e-03
4.217660032711349231e+03 1.757226502194405349e+00 4.461978124947545490e-03
4.221877692744061278e+03 1.757692664380818170e+00 4.214438142048599484e-03
4.226099570436806971e+03 1.759837526353740689e+00 3.363895579341316666e-03
4.230325670007245208e+03 1.761637348917704626e+00 2.788941701494377853e-03
4.234555995677254032e+03 1.762688891383871415e+00 2.660935876891870871e-03
4.238790551672932452e+03 1.761417369512882747e+00 2.611266423328633974e-03
4.243029342224606808e+03 1.758192044677872490e+00 2.431418777970360302e-03
4.247272371566832589e+03 1.753458777806307989e+00 2.560087231993414883e-03
4.251519643938400804e+03 1.746938616261392241e+00 2.651314924232546933e-03
4.255771163582340705e+03 1.738129735355095074e+00 2.634741850485779798e-03
4.260026934745924336e+03 1.728280607809403069e+00 2.577466636953969648e-03
4.264286961680671993e+03 1.717260758869153747e+00 2.779375510311305093e-03
4.268551248642354039e+03 1.704860085707568196e+00 3.102560078928027609e-03
4.272819799890998183e+03 1.691138199377604234e+00 2.568683400003401052e-03
4.277092619690890388e+03 1.679315425266950657e+00 2.090018597354384184e-03
4.281369712310583054e+03 1.670741111400097623e+00 1.722666256234159842e-03
4.285651082022895025e+03 1.665325208741812668e+00 2.000535625866613643e-03
4.289936733104918858e+03 1.662775706534983744e+00 2.499856832112111373e-03
4.294226669838025373e+03 1.661496692909778305e+00 2.521604018582390173e-03
4.298520896507864563e+03 1.661902371641078568e+00 2.376606525331985669e-03
4.302819417404373780e+03 1.663258469479500956e+00 1.594232556037276016e-03
4.307122236821779552e+03 1.663908661623692442e+00 1.201504506982236948e-03
4.311429359058603040e+03 1.663160018714880062e+00 1.255867943508151736e-03
4.315740788417662770e+03 1.661797296976884386e+00 1.508387921131906133e-03
4.320056529206081905e+03 1.659526649965290757e+00 1.657111252637407696e-03
4.324376585735290064e+03 1.657512278603973988e+00 2.096514083700310414e-03
4.328700962321026054e+03 1.657704991469034272e+00 2.171850189163367171e-03
4.333029663283348782e+03 1.659890681940164203e+00 1.890914623179318528e-03
4.337362692946633615e+03 1.664353297428982081e+00 1.884299432838583204e-03
4.341700055639581478e+03 1.671439716616327509e+00 3.092816953020001425e-03
4.346041755695222491e+03 1.678685364371198308e+00 4.068480031977429572e-03
4.350387797450919606e+03 1.684507986330264107e+00 4.413823558718384804e-03
4.354738185248371337e+03 1.685654425592137073e+00 3.899766696239645621e-03
4.359092923433621763e+03 1.681688734742480040e+00 3.678519341311105566e-03
4.363452016357056891e+03 1.673397053437431392e+00 4.441109562738598283e-03
4.367815468373414660e+03 1.661730303932715591e+00 5.535780362721431577e-03
4.372183283841789489e+03 1.648624043453737809e+00 5.964814695352448071e-03
4.376555467125633186e+03 1.634904039188931124e+00 5.338286046084952940e-03
4.380932022592760404e+03 1.623286646481938655e+00 4.341188202011107659e-03
4.385312954615354101e+03 1.615206865170804029e+00 3.930531481818262500e-03
4.389698267569970994e+03 1.611245435037268470e+00 4.927793808606105441e-03
4.394087965837542470e+03 1.610244965570579501e+00 5.476281969570823312e-03
4.398482053803381859e+03 1.610422348552199123e+00 4.819570354360797233e-03
4.402880535857186260e+03 1.610476716013385490e+00 3.633853597455546664e-03
4.407283416393044718e+03 1.608488924417357468e+00 3.660905905483795037e-03
4.411690699809440048e+03 1.605469259148589289e+00 3.931507027382007136e-03
4.416102390509250654e+03 1.601210854508715808e+00 3.739558218338491415e-03
4.420518492899761441e+03 1.596072283913628986e+00 3.608458729372421118e-03
4.424939011392662906e+03 1.590608211134688865e+00 4.312091139043741465e-03
4.429363950404056595e+03 1.583923304957965295e+00 4.597818442159663961e-03
4.433793314354462382e+03 1.576851174187925864e+00 4.294381274402682760e-03
4.438227107668818462e+03 1.568699485118528303e+00 4.723075989864883827e-03
4.442665334776488635e+03 1.561009053358632936e+00 7.068763863068257963e-03
4.447108000111265937e+03 1.556457082714068463e+00 9.464988540082503593e-03
4.451555108111379013e+03 1.560209284701643107e+00 9.567974591878129764e-03
4.456006663219492111e+03 1.574304086562004601e+00 8.566940852015234725e-03
4.460462669882713271e+03 1.597964611156951431e+00 8.271046492877730597e-03
4.464923132552597053e+03 1.630311392459167008e+00 9.872712242377503986e-03
4.469388055685150903e+03 1.669314541055257228e+00 1.178106465745492291e-02
4.473857443740837880e+03 1.711064883248941904e+00 1.224118758533031433e-02
4.478331301184580298e+03 1.750081497183183732e+00 1.055774652622465740e-02
4.482809632485766087e+03 1.780916584196661212e+00 7.790286861397405227e-03
4.487292442118253348e+03 1.799299459663370460e+00 6.674667958113579373e-03
4.491779734560373072e+03 1.803734707636276857e+00 8.086569453787150266e-03
4.496271514294934605e+03 1.796566704973070694e+00 8.775342054542827064e-03
4.500767785809231100e+03 1.780468663549283459e+00 7.979249128339650429e-03
4.505268553595042249e+03 1.759739019893042933e+00 5.572918858314248290e-03
4.509773822148638828e+03 1.739233841069661501e+00 3.282292781583511908e-03
