# starting wavelength: 3331.610
# ending wavelength: 9993.720
# wav flux eflux
3.334750624688901553e+03 3.462564454880923126e+00 1.439570456426379416e-02
3.338085375313591612e+03 3.485281144400504516e+00 1.108970253267193597e-02
3.341423460688906289e+03 3.508956709618831216e+00 8.436999631368296768e-03
3.344764884149596128e+03 3.531894131444087481e+00 6.484631514227548812e-03
3.348109649033746791e+03 3.553294360703756816e+00 5.018988609742745279e-03
3.351457758682781787e+03 3.573164205151386330e+00 3.960687891726470504e-03
3.354809216441465651e+03 3.591471489084852031e+00 3.196504369414971021e-03
3.358164025657908041e+03 3.608176461609757357e+00 2.608111740405416427e-03
3.361522189683567376e+03 3.623465067597002154e+00 2.207508453174983603e-03
3.364883711873251741e+03 3.637832266352050148e+00 1.934911973077148035e-03
3.368248595585126168e+03 3.651239118080865431e+00 1.685501780394811546e-03
3.371616844180712633e+03 3.663643687886978473e+00 1.502532020610187601e-03
3.374988461024894150e+03 3.674991415094802871e+00 1.359721438580773845e-03
3.378363449485920228e+03 3.685206471805670958e+00 1.246420449008653862e-03
3.381741812935407324e+03 3.694285372112662280e+00 1.158819850678275603e-03
3.385123554748343849e+03 3.702125681127466983e+00 1.109978062515031092e-03
3.388508678303093347e+03 3.708961697141926805e+00 1.066688813190030602e-03
3.391897186981397681e+03 3.714810641595408303e+00 1.068133439552224886e-03
3.395289084168380214e+03 3.719467381133621409e+00 1.091191639707262675e-03
3.398684373252549449e+03 3.722677933915423676e+00 1.110467281181287853e-03
3.402083057625803121e+03 3.724655923775711308e+00 1.141994891342780309e-03
3.405485140683430018e+03 3.725256728558631547e+00 1.139935358369408708e-03
3.408890625824114522e+03 3.724591723266815091e+00 1.117678388800855431e-03
3.412299516449939802e+03 3.722707375327561685e+00 1.059598943898840736e-03
3.415711815966390986e+03 3.719942724076664042e+00 8.582210190732853178e-04
3.419127527782358356e+03 3.715423705183114933e+00 8.375566768406530116e-04
3.422546655310141887e+03 3.709471573739908656e+00 9.769935971307890446e-04
3.425969201965453522e+03 3.702043455160243468e+00 1.148367132651568730e-03
3.429395171167419903e+03 3.693333471870904106e+00 1.147125692310483171e-03
3.432824566338588284e+03 3.683967871341345734e+00 1.061078555805098148e-03
3.436257390904928343e+03 3.674224372163059193e+00 9.425716404839551638e-04
3.439693648295834464e+03 3.663875165681601320e+00 8.610474704315033067e-04
3.443133341944131189e+03 3.653048063941489065e+00 8.389136250219187112e-04
3.446576475286076402e+03 3.641676322035844571e+00 8.304011620399920270e-04
3.450023051761363604e+03 3.629635649709368472e+00 8.518839388818305733e-04
3.453473074813126004e+03 3.617431209535513226e+00 8.466383215430923169e-04
3.456926547887940615e+03 3.604907890809857296e+00 8.833077487548471373e-04
3.460383474435829612e+03 3.592372820485816298e+00 8.878425470010853924e-04
3.463843857910266706e+03 3.580020439686593114e+00 8.827749726039398927e-04
3.467307701768178049e+03 3.567829569425204017e+00 8.869341193484169212e-04
3.470775009469947236e+03 3.555792484251455665e+00 9.100391988234885626e-04
3.474245784479418489e+03 3.543876831044030062e+00 9.443087047266570614e-04
3.477720030263898934e+03 3.531898385616663916e+00 9.604268386523835514e-04
3.481197750294164052e+03 3.519920138420172595e+00 9.771429369381562542e-04
3.484678948044459503e+03 3.507940119597712680e+00 9.855188233262428005e-04
3.488163626992504760e+03 3.496152691164211124e+00 9.947016692639293941e-04
3.491651790619498570e+03 3.484352856532079379e+00 1.014749868806244081e-03
3.495143442410119405e+03 3.472883535306272584e+00 1.012891527677382397e-03
3.498638585852530468e+03 3.461604929248361273e+00 1.048763609918897371e-03
3.502137224438384237e+03 3.450481378464924642e+00 1.192995612015978124e-03
3.505639361662823831e+03 3.439145900101771236e+00 1.296145601323750625e-03
3.509145001024487556e+03 3.427628864735681180e+00 1.359066797604737168e-03
3.512654146025513455e+03 3.415934803421968979e+00 1.365884892550614082e-03
3.516166800171540217e+03 3.403859924116059421e+00 1.341235202937568092e-03
3.519682966971712631e+03 3.391305563048615745e+00 1.350381148856341857e-03
3.523202649938685681e+03 3.378648246063327143e+00 1.290757570158813624e-03
3.526725852588625457e+03 3.365386992729528348e+00 1.232345748583950828e-03
3.530252578441215064e+03 3.351604771158873675e+00 1.171918028840295261e-03
3.533782831019657806e+03 3.337237988959302015e+00 1.152701918416534996e-03
3.537316613850678550e+03 3.322132298830305697e+00 1.203245398398292794e-03
3.540853930464530094e+03 3.306288936071251960e+00 1.265094344768100815e-03
3.544394784394995895e+03 3.289815695243814009e+00 1.314329816490140187e-03
3.547939179179392340e+03 3.272459931138294920e+00 1.237845245003294133e-03
3.551487118358572843e+03 3.255656515361162739e+00 1.238383837064158241e-03
3.555038605476932389e+03 3.239086589787179005e+00 1.238569055881222304e-03
3.558593644082410719e+03 3.222352836177216684e+00 1.229027400545447011e-03
3.562152237726494150e+03 3.205477276617056503e+00 1.215264674128732408e-03
3.565714389964221937e+03 3.188636797594846417e+00 1.142658439419151628e-03
3.569280104354187188e+03 3.171761326719546581e+00 1.042625744506581534e-03
3.572849384458542772e+03 3.155174151417173167e+00 1.101474602383880914e-03
3.576422233843002232e+03 3.138773661392270320e+00 1.196323656773941009e-03
3.579998656076846601e+03 3.122700494889226075e+00 1.307700495256044907e-03
3.583578654732924406e+03 3.106620074755911620e+00 1.283892740406367529e-03
3.587162233387658489e+03 3.090162525545124161e+00 1.091363093628894059e-03
3.590749395621047370e+03 3.073883719359901789e+00 8.371203893599388299e-04
3.594340145016669794e+03 3.056890080661569531e+00 5.862532490721648155e-04
3.597934485161687462e+03 3.038740235752461771e+00 5.983525425934028454e-04
3.601532419646850485e+03 3.019946073439002010e+00 6.308605600926239874e-04
3.605133952066498296e+03 3.000784834445234139e+00 6.405997169284429870e-04
3.608739086018566013e+03 2.981140102256374824e+00 6.305462526190402190e-04
3.612347825104585809e+03 2.961346870769781425e+00 6.409053867350700652e-04
3.615960172929691907e+03 2.941165174719556852e+00 6.250106048579523064e-04
3.619576133102622407e+03 2.920355413160311553e+00 6.186899598674892690e-04
3.623195709235726554e+03 2.898935859385783242e+00 7.059861457268138893e-04
3.626818904944963379e+03 2.877506605498761694e+00 7.366732112882879444e-04
3.630445723849909427e+03 2.856394277529441084e+00 7.048857224829687806e-04
3.634076169573760581e+03 2.835820504053720104e+00 6.940372070024400332e-04
3.637710245743335690e+03 2.815614750767403862e+00 6.925307297356640517e-04
3.641347955989080219e+03 2.796190369822727728e+00 7.106326816410525170e-04
3.644989303945070333e+03 2.777815640537224073e+00 7.388148153204322256e-04
3.648634293249016537e+03 2.760599860613928147e+00 7.674803369073613475e-04
3.652282927542266862e+03 2.744795453379274885e+00 7.812562623956753128e-04
3.655935210469810499e+03 2.730633797732181733e+00 7.804282571627396735e-04
3.659591145680281443e+03 2.718259625670189639e+00 7.674001561274903897e-04
3.663250736825963031e+03 2.707972870587731506e+00 7.823641604050478792e-04
3.666913987562790226e+03 2.699804051336120558e+00 8.136567873076903457e-04
3.670580901550354156e+03 2.693252845457800415e+00 2.452501923604130402e-03
3.674251482451905758e+03 2.690081075394052057e+00 2.494279867753715525e-03
3.677925733934358959e+03 2.689238015883865796e+00 2.517707759297455310e-03
3.681603659668294313e+03 2.692118055391190978e+00 2.668920122004302467e-03
3.685285263327964003e+03 2.697416636903251508e+00 2.837864415222501185e-03
3.688970548591293209e+03 2.705255603216557336e+00 3.058806900531776604e-03
3.692659519139885560e+03 2.714910579795396295e+00 3.320961984124287149e-03
3.696352178659026777e+03 2.726183872211393133e+00 3.575294544867707071e-03
3.700048530837686940e+03 2.737954555794462674e+00 3.957301138449153925e-03
3.703748579368525952e+03 2.749317856497252688e+00 4.528118864126405227e-03
3.707452327947895355e+03 2.760819487766665414e+00 5.374605254807963972e-03
3.711159780275844696e+03 2.771734176928004167e+00 6.013398080887032843e-03
3.714870940056121526e+03 2.781886636713004179e+00 6.220212724710335282e-03
3.718585810996179134e+03 2.789963066623753818e+00 6.392450389539787621e-03
3.722304396807176545e+03 2.794603537681072059e+00 6.274812906344381762e-03
3.726026701203984885e+03 2.794526940157308292e+00 6.228037943699549564e-03
3.729752727905190113e+03 2.788588117719076553e+00 6.583003984610562818e-03
3.733482480633096657e+03 2.778632145796545050e+00 7.302211106429834855e-03
3.737215963113731050e+03 2.764785666272669751e+00 8.199874026617967604e-03
3.740953179076846027e+03 2.747438117386769907e+00 8.858562731333565268e-03
3.744694132255923705e+03 2.724626457919450129e+00 8.321493681834367731e-03
3.748438826388181042e+03 2.707663559525694819e+00 7.891448250209202875e-03
3.752187265214570289e+03 2.693580041381722356e+00 7.831131720398719701e-03
3.755939452479786269e+03 2.681919359771919087e+00 7.786602815529368969e-03
3.759695391932267285e+03 2.672786139268648498e+00 7.470103079169313105e-03
3.763455087324201031e+03 2.662609220329737347e+00 7.578297148120008778e-03
3.767218542411526414e+03 2.654272027487024399e+00 7.248764471422800525e-03
3.770985760953939007e+03 2.652381168400973710e+00 4.634393308941183939e-03
3.774756746714894234e+03 2.661616427662647943e+00 4.980425327865469279e-03
3.778531503461610555e+03 2.674194207106558974e+00 4.511026663967165548e-03
3.782310034965073100e+03 2.689211075003454798e+00 3.811823194035224294e-03
3.786092345000039586e+03 2.708042310806808128e+00 3.809026492124142731e-03
3.789878437345040766e+03 2.734623273983145086e+00 3.780955264486864607e-03
3.793668315782387253e+03 2.764160799017948200e+00 3.654421200581921009e-03
3.797461984098170888e+03 2.798128436664991447e+00 3.562818144445414111e-03
3.801259446082270188e+03 2.838607834012017772e+00 3.145634330461400882e-03
3.805060705528353537e+03 2.884305040036977630e+00 2.848974774997091886e-03
3.808865766233883278e+03 2.936408352574757963e+00 3.112509057896424916e-03
3.812674632000118436e+03 2.993040346171755406e+00 3.545677499723527866e-03
3.816487306632119726e+03 3.052400020739161057e+00 4.038742074396196348e-03
3.820303793938753188e+03 3.111897511717124143e+00 4.263238807947473605e-03
3.824124097732693372e+03 3.169381384049949624e+00 4.294904374060698644e-03
3.827948221830427428e+03 3.223469851661429963e+00 4.320779152375538688e-03
3.831776170052258749e+03 3.271392726436913811e+00 4.103079664353736014e-03
3.835607946222312421e+03 3.313582081978859506e+00 4.016606262036916293e-03
3.839443554168536139e+03 3.348043454201544922e+00 3.827526487561443841e-03
3.843282997722705659e+03 3.372371264019580650e+00 3.385425783713216785e-03
3.847126280720429804e+03 3.385654635657654676e+00 2.954264213734573725e-03
3.850973407001151372e+03 3.386458031839511662e+00 2.844851680373478280e-03
3.854824380408153957e+03 3.374843463047355385e+00 2.915360181870576411e-03
3.858679204788563311e+03 3.350658173254057903e+00 2.743998995184152197e-03
3.862537883993353262e+03 3.314266907095392511e+00 2.144624151426288965e-03
3.866400421877347981e+03 3.267927680348967634e+00 1.865095977025871222e-03
3.870266822299226533e+03 3.213844780146560165e+00 2.055908089266641342e-03
3.874137089121526969e+03 3.151930975055692308e+00 2.749688266869286350e-03
3.878011226210649966e+03 3.082911541713545311e+00 4.230782388174761204e-03
3.881889237436861549e+03 3.010139199971519908e+00 5.666878279893305774e-03
3.885771126674299921e+03 2.936957092185378038e+00 5.783665733720303598e-03
3.889656897800975457e+03 2.867724538399726519e+00 5.045648018647607563e-03
3.893546554698777527e+03 2.804078585215376229e+00 3.935035607672131286e-03
3.897440101253477678e+03 2.748028509139620379e+00 4.132741447354638248e-03
3.901337541354732366e+03 2.699926782915217593e+00 5.021204313325884801e-03
3.905238878896088409e+03 2.659068893031939496e+00 5.359639635448817073e-03
3.909144117774985716e+03 2.624940383587643034e+00 5.231002607629342896e-03
3.913053261892762293e+03 2.597238170769098353e+00 4.802995135718498947e-03
3.916966315154656058e+03 2.575124896480161851e+00 4.282744348822560033e-03
3.920883281469812118e+03 2.557140864600481400e+00 4.202241392855971501e-03
3.924804164751283224e+03 2.545314893358209041e+00 4.073939461476359242e-03
3.928728968916035683e+03 2.536431313353494588e+00 4.030787659461621680e-03
3.932657697884953450e+03 2.529843314327111958e+00 4.017201058015192235e-03
3.936590355582839493e+03 2.525429258613275163e+00 3.868259342119385966e-03
3.940526945938423523e+03 2.521430348018764533e+00 3.533072513059923488e-03
3.944467472884363360e+03 2.521455837174728210e+00 3.708166172128968350e-03
3.948411940357249023e+03 2.523526045873935253e+00 3.745595254196071745e-03
3.952360352297607733e+03 2.526939379292869603e+00 3.110314903696803027e-03
3.956312712649906643e+03 2.530186970191450779e+00 1.845593424826661886e-03
3.960269025362557841e+03 2.530759765089628743e+00 1.794964133009508810e-03
3.964229294387921527e+03 2.528529954621148601e+00 1.800188364520820738e-03
3.968193523682310570e+03 2.523900340804661635e+00 1.407459261468866751e-03
3.972161717205994591e+03 2.517596479680721533e+00 1.018064882397354569e-03
3.976133878923201792e+03 2.509959128347647450e+00 8.335419681779077800e-04
3.980110012802126221e+03 2.501164139508618600e+00 7.713938344868808469e-04
3.984090122814929600e+03 2.492157346929060324e+00 6.924542418862419469e-04
3.988074212937745870e+03 2.482382639276725644e+00 7.129864996564667890e-04
3.992062287150684824e+03 2.472787828553510536e+00 7.443398710191989360e-04
3.996054349437837118e+03 2.463339400440945237e+00 7.756497396920544610e-04
4.000050403787276082e+03 2.454309204934690403e+00 7.934757695430686743e-04
4.004050454191064546e+03 2.445916011051977534e+00 7.767467188162915709e-04
4.008054504645257111e+03 2.439643884199405033e+00 6.629779249348870685e-04
4.012062559149903791e+03 2.436009321160203633e+00 6.236786722618311782e-04
4.016074621709055009e+03 2.435501635568527501e+00 5.897577934707805064e-04
4.020090696330765240e+03 2.438593509057905617e+00 6.664873128773507677e-04
4.024110787027097558e+03 2.445152871513045501e+00 5.232602930541233955e-04
4.028134897814125907e+03 2.455540615661567116e+00 6.568270775874698875e-04
4.032163032711941469e+03 2.469133165565576160e+00 9.540677469418538123e-04
4.036195195744654484e+03 2.485312530093106265e+00 1.423991904188045719e-03
4.040231390940400615e+03 2.502995581409318770e+00 1.846157790163879169e-03
4.044271622331342314e+03 2.521137673632627418e+00 1.690653591133605901e-03
4.048315893953675186e+03 2.538808432154152861e+00 1.335815837234713378e-03
4.052364209847629809e+03 2.555537104393791559e+00 1.024236151650168535e-03
4.056416574057479011e+03 2.570822900943314337e+00 9.318788726427624375e-04
4.060472990631537868e+03 2.584103066729278364e+00 1.090329803900515074e-03
4.064533463622170530e+03 2.595749768853731876e+00 1.379854416214240827e-03
4.068597997085794304e+03 2.606596295908065741e+00 1.367066704005593302e-03
4.072666595082881486e+03 2.617406028535932183e+00 1.195422336596371673e-03
4.076739261677965715e+03 2.628887325711133371e+00 9.774522650328554361e-04
4.080816000939644709e+03 2.641401138472783572e+00 6.688239944077886733e-04
4.084896816940585722e+03 2.655369249917927998e+00 6.675224536695343767e-04
4.088981713757527814e+03 2.670529928952023013e+00 6.647462107696081686e-04
4.093070695471286854e+03 2.686713929286420388e+00 8.074343239205032620e-04
4.097163766166759160e+03 2.703923491334171203e+00 8.900206446519459127e-04
4.101260929932927866e+03 2.722400493129107257e+00 9.128507877794126563e-04
4.105362190862862008e+03 2.740913858423949190e+00 9.122531828018969058e-04
4.109467553053726078e+03 2.759322005637137476e+00 1.173409297660180399e-03
4.113577020606780934e+03 2.776951737410399801e+00 1.672533192745312468e-03
4.117690597627389252e+03 2.792380940906061593e+00 2.122955149077611087e-03
4.121808288225018259e+03 2.803112349165080452e+00 2.128459966387053794e-03
4.125930096513244280e+03 2.808854252474971336e+00 2.125182774655911232e-03
4.130056026609759101e+03 2.808557936909921615e+00 1.784296750923776171e-03
4.134186082636369974e+03 2.801602908738322739e+00 1.385162529674349632e-03
4.138320268719007800e+03 2.787383926835484527e+00 1.894142067323879245e-03
4.142458588987728035e+03 2.766680267046353503e+00 2.438858187495147357e-03
4.146601047576717065e+03 2.741084544910560084e+00 2.579318897408278913e-03
4.150747648624294925e+03 2.711967374553302612e+00 2.153644875556356714e-03
4.154898396272920763e+03 2.681208221773788036e+00 1.450848588654390448e-03
4.159053294669195566e+03 2.650251558336272240e+00 1.179752281132395416e-03
4.163212347963865795e+03 2.619431979955512801e+00 1.130044694644707828e-03
4.167375560311830668e+03 2.589562593808562241e+00 1.129655151477546027e-03
4.171542935872143971e+03 2.561027574262607853e+00 1.120816596462051581e-03
4.175714478808017702e+03 2.534382995466283095e+00 1.045000863009270305e-03
4.179890193286827525e+03 2.509666300933405036e+00 8.680389145611194486e-04
4.184070083480115500e+03 2.486324299089868184e+00 8.652004463346026292e-04
4.188254153563597356e+03 2.465052912812111696e+00 8.960102774504259508e-04
4.192442407717161586e+03 2.445720719373210450e+00 1.042976605450035522e-03
4.196634850124880359e+03 2.428121281440402068e+00 1.247123901639104028e-03
4.200831484975006788e+03 2.411324867020250728e+00 1.408853624995896024e-03
4.205032316459983122e+03 2.396092091308121841e+00 1.335624316135384680e-03
4.209237348776444378e+03 2.381182523159547149e+00 1.079539212049698783e-03
4.213446586125221984e+03 2.366822861977489811e+00 9.981661053302234767e-04
4.217660032711349231e+03 2.352326445192399529e+00 1.566271956006718173e-03
4.221877692744061278e+03 2.338334956679042786e+00 2.240729272259552474e-03
4.226099570436806971e+03 2.326302200499525519e+00 2.037215344488669568e-03
4.230325670007245208e+03 2.316726018597108805e+00 1.667877447696094074e-03
4.234555995677254032e+03 2.309711094348883886e+00 2.069782192472415221e-03
4.238790551672932452e+03 2.304377407749063522e+00 2.641392441921947606e-03
4.243029342224606808e+03 2.299319829565766860e+00 2.899867538535899451e-03
4.247272371566832589e+03 2.293850524568801230e+00 2.751312975051881798e-03
4.251519643938400804e+03 2.287226363216257052e+00 2.304685822755264419e-03
4.255771163582340705e+03 2.278705812889418869e+00 1.935940629092931971e-03
4.260026934745924336e+03 2.267508998385955543e+00 2.164102737269900292e-03
4.264286961680671993e+03 2.254339098942716557e+00 2.320774914673015121e-03
4.268551248642354039e+03 2.239518708437612915e+00 2.269631428018884910e-03
4.272819799890998183e+03 2.223721247414085056e+00 1.928884181353799666e-03
4.277092619690890388e+03 2.207860796378800838e+00 1.495299191413252717e-03
4.281369712310583054e+03 2.192856476695366652e+00 1.196545200107614754e-03
4.285651082022895025e+03 2.180109210876084891e+00 1.280683809748787245e-03
4.289936733104918858e+03 2.169403391597179542e+00 1.513754217419816493e-03
4.294226669838025373e+03 2.160644218256758897e+00 1.110522755606705315e-03
4.298520896507864563e+03 2.152278076944991625e+00 8.051194162120826761e-04
4.302819417404373780e+03 2.144210557040816756e+00 1.089397197308851310e-03
4.307122236821779552e+03 2.138359558982776409e+00 1.120863797645408211e-03
4.311429359058603040e+03 2.134514431441839832e+00 1.350879981405448587e-03
4.315740788417662770e+03 2.133939416806522882e+00 1.419518474769763906e-03
4.320056529206081905e+03 2.136692749422412607e+00 1.491016140439880601e-03
4.324376585735290064e+03 2.143560383730040986e+00 1.352511024002737332e-03
4.328700962321026054e+03 2.154603721856733767e+00 1.200744640022198984e-03
4.333029663283348782e+03 2.170083080171395729e+00 1.373389442755705613e-03
4.337362692946633615e+03 2.188886485302549811e+00 1.440012554972678986e-03
4.341700055639581478e+03 2.210415677694637093e+00 1.465824192574658163e-03
