# starting wavelength: 3674.480
# ending wavelength: 7272.510
# wav flux eflux
3.677925733934358959e+03 2.028461234095608301e+00 3.640751949086130229e-02
3.681603659668294313e+03 2.044088599933998829e+00 4.210015179542098140e-02
3.685285263327964003e+03 2.040604896142627300e+00 4.148718822534723516e-02
3.688970548591293209e+03 2.032750337358450565e+00 3.667615688417153602e-02
3.692659519139885560e+03 2.027394402720174238e+00 3.207375267806980568e-02
3.696352178659026777e+03 2.028734031823864026e+00 2.678512959129994778e-02
3.700048530837686940e+03 2.035978116101689217e+00 2.195992958833455425e-02
3.703748579368525952e+03 2.046725543656213731e+00 1.780890157454429260e-02
3.707452327947895355e+03 2.059371751382671256e+00 1.519072653659384389e-02
3.711159780275844696e+03 2.073008058467259218e+00 1.323759618828982028e-02
3.714870940056121526e+03 2.086711475604997368e+00 1.182739593630333964e-02
3.718585810996179134e+03 2.097974170042980813e+00 1.066865163770687637e-02
3.722304396807176545e+03 2.104306642940704464e+00 9.992847976553293973e-03
3.726026701203984885e+03 2.106146199821111953e+00 9.752496034930793756e-03
3.729752727905190113e+03 2.103905869795702266e+00 9.850457813445928634e-03
3.733482480633096657e+03 2.098623037183081852e+00 1.003502404107707580e-02
3.737215963113731050e+03 2.092399628906817188e+00 9.888271336582503748e-03
3.740953179076846027e+03 2.086467670717462752e+00 9.867314616146712070e-03
3.744694132255923705e+03 2.078671214423995384e+00 9.622780344598274443e-03
3.748438826388181042e+03 2.069117502227174832e+00 9.506966781513751658e-03
3.752187265214570289e+03 2.056957176397638865e+00 9.487493692725446071e-03
3.755939452479786269e+03 2.038188084937708311e+00 9.390622469189783758e-03
3.759695391932267285e+03 2.015866437295253721e+00 8.983972824021860953e-03
3.763455087324201031e+03 1.991932586319440590e+00 8.748235242303866246e-03
3.767218542411526414e+03 1.967546638324208397e+00 8.245091166163705590e-03
3.770985760953939007e+03 1.943155180605793841e+00 7.808231918224162182e-03
3.774756746714894234e+03 1.919264867374838035e+00 7.492309433670958467e-03
3.778531503461610555e+03 1.898038052924006847e+00 7.682009511671213271e-03
3.782310034965073100e+03 1.879127887310748646e+00 7.658962724918068343e-03
3.786092345000039586e+03 1.862971117054725401e+00 7.655287668481692946e-03
3.789878437345040766e+03 1.849835468448259634e+00 7.722355026745798476e-03
3.793668315782387253e+03 1.839545409003637833e+00 8.431143858173811845e-03
3.797461984098170888e+03 1.829320016896698098e+00 8.826910976238409867e-03
3.801259446082270188e+03 1.820860916361931148e+00 9.042305746506091799e-03
3.805060705528353537e+03 1.818757573234241587e+00 8.250361672468207314e-03
3.808865766233883278e+03 1.825200603125958887e+00 8.075630547374734389e-03
3.812674632000118436e+03 1.832652083054560510e+00 7.969164969286669092e-03
3.816487306632119726e+03 1.851200700845270664e+00 1.150520453141222130e-02
3.820303793938753188e+03 1.874665921011304581e+00 1.625245580607135448e-02
3.824124097732693372e+03 1.900884486074138291e+00 2.042780703314360860e-02
3.827948221830427428e+03 1.928246044146825877e+00 2.167551176015216491e-02
3.831776170052258749e+03 1.945090394772578613e+00 2.028653270028267508e-02
3.835607946222312421e+03 1.952676193321180920e+00 1.914611687053494743e-02
3.839443554168536139e+03 1.948804052722807434e+00 2.331010964163969523e-02
3.843282997722705659e+03 1.939117678483099683e+00 2.982468434619417463e-02
3.847126280720429804e+03 1.930204751657935258e+00 3.344381131503465499e-02
3.850973407001151372e+03 1.935739287083705351e+00 3.403030269494723703e-02
3.854824380408153957e+03 1.932399596770072892e+00 3.352550342535650513e-02
3.858679204788563311e+03 1.936865287589905282e+00 3.165559816795970177e-02
3.862537883993353262e+03 1.944520130046963002e+00 3.135128367562155932e-02
3.866400421877347981e+03 1.968513960567966903e+00 3.397933085822275878e-02
3.870266822299226533e+03 1.996213959090228141e+00 3.723660288613231395e-02
3.874137089121526969e+03 2.021506715580343894e+00 3.945002058330952799e-02
3.878011226210649966e+03 2.041181630174418782e+00 3.999927325421634428e-02
3.881889237436861549e+03 2.055365832263609249e+00 3.926005361354349688e-02
3.885771126674299921e+03 2.066635691182480805e+00 3.930934421876862428e-02
3.889656897800975457e+03 2.073063913548822690e+00 3.742530352543793626e-02
3.893546554698777527e+03 2.071318271817176093e+00 3.646871923217835654e-02
3.897440101253477678e+03 2.067831509254892453e+00 3.764761413828784931e-02
3.901337541354732366e+03 2.047644004058488232e+00 3.927222753711399894e-02
3.905238878896088409e+03 2.020127918890548102e+00 3.952972728713399775e-02
3.909144117774985716e+03 1.985978245570430900e+00 3.750769809566671664e-02
3.913053261892762293e+03 1.946808486025028762e+00 3.323678653963618029e-02
3.916966315154656058e+03 1.907352105689423816e+00 2.959158793139136587e-02
3.920883281469812118e+03 1.870110109088235273e+00 2.816771910575064514e-02
3.924804164751283224e+03 1.833729664070770538e+00 2.913089491111859122e-02
3.928728968916035683e+03 1.814783125906247019e+00 2.921010397094142216e-02
3.932657697884953450e+03 1.818638911923799784e+00 2.348428159818502850e-02
3.936590355582839493e+03 1.815656548276694204e+00 1.957406760045915517e-02
3.940526945938423523e+03 1.812157234118117355e+00 1.955699180184251526e-02
3.944467472884363360e+03 1.805042100787206394e+00 2.054513215590902594e-02
3.948411940357249023e+03 1.798165466228096587e+00 1.908727096555456332e-02
3.952360352297607733e+03 1.795222442724369039e+00 1.682927034678857736e-02
3.956312712649906643e+03 1.796828555967159291e+00 1.528603175219840626e-02
3.960269025362557841e+03 1.796288110439637098e+00 1.446585119729348196e-02
3.964229294387921527e+03 1.807567184315916231e+00 1.587442779587083450e-02
3.968193523682310570e+03 1.830736250797018627e+00 1.657459602045387864e-02
3.972161717205994591e+03 1.852817139658067713e+00 1.470332613501550492e-02
3.976133878923201792e+03 1.870462435185297867e+00 1.185093467581226946e-02
3.980110012802126221e+03 1.881463761374653876e+00 9.027408605475156778e-03
3.984090122814929600e+03 1.881205332699705801e+00 9.699820433235886025e-03
3.988074212937745870e+03 1.870248060345695240e+00 1.167392684867265065e-02
3.992062287150684824e+03 1.851016148672811834e+00 1.206684773266381017e-02
3.996054349437837118e+03 1.831364739264782715e+00 1.009241468719056234e-02
4.000050403787276082e+03 1.805835364082912120e+00 7.599262751812684881e-03
4.004050454191064546e+03 1.782524808677751871e+00 2.207902154977454783e-03
4.008054504645257111e+03 1.775531144502594083e+00 2.689382314673182620e-03
4.012062559149903791e+03 1.777889639176003067e+00 4.707318634169576493e-03
4.016074621709055009e+03 1.787235139305486165e+00 6.611404778040791061e-03
4.020090696330765240e+03 1.800787881318267614e+00 7.726326496854189242e-03
4.024110787027097558e+03 1.814718807400732992e+00 7.569700667007459201e-03
4.028134897814125907e+03 1.826770501561829629e+00 6.594248036780090728e-03
4.032163032711941469e+03 1.834424428803497875e+00 5.823579461496753741e-03
4.036195195744654484e+03 1.837599084804822924e+00 4.605521018042310274e-03
4.040231390940400615e+03 1.832923628977086716e+00 5.406557327809199259e-03
4.044271622331342314e+03 1.821883877173087418e+00 6.809677937678000441e-03
4.048315893953675186e+03 1.806104192751165183e+00 6.978978760939092384e-03
4.052364209847629809e+03 1.789555058926035391e+00 6.102807050590756434e-03
4.056416574057479011e+03 1.775381578464751309e+00 4.574279237786303340e-03
4.060472990631537868e+03 1.766600834469766790e+00 2.965062797300795777e-03
4.064533463622170530e+03 1.765161839982052117e+00 3.120468108152985639e-03
4.068597997085794304e+03 1.769908697336303405e+00 4.182269883336223355e-03
4.072666595082881486e+03 1.780787288578435046e+00 4.736333886021625549e-03
4.076739261677965715e+03 1.794280997071099337e+00 3.932348238652206944e-03
4.080816000939644709e+03 1.806501882695490169e+00 3.504341095254902283e-03
4.084896816940585722e+03 1.814914025368617123e+00 2.762966467416878152e-03
4.088981713757527814e+03 1.819195796547168786e+00 2.645396049680503580e-03
4.093070695471286854e+03 1.819415581260315440e+00 3.840985313193882606e-03
4.097163766166759160e+03 1.817242387686627048e+00 4.673624820935548194e-03
4.101260929932927866e+03 1.814494390633251353e+00 4.614065761577520325e-03
4.105362190862862008e+03 1.812363786752009043e+00 3.769991985416643130e-03
4.109467553053726078e+03 1.812649669910444405e+00 3.121331317848393631e-03
4.113577020606780934e+03 1.816197985130755921e+00 2.801766773817388444e-03
4.117690597627389252e+03 1.823189070396240563e+00 2.995668814379087112e-03
4.121808288225018259e+03 1.833995061353652867e+00 3.421735628317371190e-03
4.125930096513244280e+03 1.847166735505638258e+00 3.066757717361530671e-03
4.130056026609759101e+03 1.861180471115084556e+00 2.324232981482151923e-03
4.134186082636369974e+03 1.874496956622369259e+00 1.785982239013737382e-03
4.138320268719007800e+03 1.886289204919308293e+00 1.643901533568023444e-03
4.142458588987728035e+03 1.895869839957995850e+00 1.686213199467269516e-03
4.146601047576717065e+03 1.902654952740766348e+00 1.719337224256867018e-03
4.150747648624294925e+03 1.908162254028528348e+00 1.285910237743656060e-03
4.154898396272920763e+03 1.912582788752203111e+00 1.457785533933242741e-03
4.159053294669195566e+03 1.916110675275965125e+00 1.995411044457399020e-03
4.163212347963865795e+03 1.916228407246972187e+00 1.949570397126566303e-03
4.167375560311830668e+03 1.912608198722170805e+00 1.961273611140974989e-03
4.171542935872143971e+03 1.904677009952457478e+00 1.846546204244657119e-03
4.175714478808017702e+03 1.892374514229297811e+00 1.840019714961702935e-03
4.179890193286827525e+03 1.876783972984720217e+00 2.342199152640663667e-03
4.184070083480115500e+03 1.858272647345880157e+00 3.791487576760761615e-03
4.188254153563597356e+03 1.839131950554275363e+00 4.350732408069325242e-03
4.192442407717161586e+03 1.821959976753624755e+00 4.038061677083240077e-03
4.196634850124880359e+03 1.809046153117470634e+00 3.349439999163927005e-03
4.200831484975006788e+03 1.801644113835249916e+00 2.720508783109669079e-03
4.205032316459983122e+03 1.800303588166016322e+00 3.450820692255327990e-03
4.209237348776444378e+03 1.804212329239681445e+00 4.856385534799009286e-03
4.213446586125221984e+03 1.811345389005427853e+00 5.481277459029020201e-03
4.217660032711349231e+03 1.818688542877298087e+00 4.834078663746604020e-03
4.221877692744061278e+03 1.824128645524055958e+00 3.428775663842028448e-03
4.226099570436806971e+03 1.825232161924895902e+00 3.031580389022020192e-03
4.230325670007245208e+03 1.822364960522582011e+00 3.556729805145970088e-03
4.234555995677254032e+03 1.815698740386049170e+00 4.438586249019231891e-03
4.238790551672932452e+03 1.806852975180490706e+00 4.418449563537789858e-03
4.243029342224606808e+03 1.796511827287886165e+00 3.382654108623346992e-03
4.247272371566832589e+03 1.787184190341572831e+00 2.685969083380672015e-03
4.251519643938400804e+03 1.778993172160347358e+00 2.880745512308985259e-03
4.255771163582340705e+03 1.771982890876292238e+00 3.332990742312066934e-03
4.260026934745924336e+03 1.765704577255250207e+00 3.129257862642266519e-03
4.264286961680671993e+03 1.758658765700475968e+00 2.709149453100723713e-03
4.268551248642354039e+03 1.751078533793994696e+00 2.429275986837225489e-03
4.272819799890998183e+03 1.742658269624225875e+00 3.010166819766693647e-03
4.277092619690890388e+03 1.734109312109651579e+00 3.208911365974131263e-03
4.281369712310583054e+03 1.726538113941333386e+00 2.693004759002260058e-03
4.285651082022895025e+03 1.721154213768960162e+00 2.472461402178753858e-03
4.289936733104918858e+03 1.717557424587787152e+00 2.559288856217707252e-03
4.294226669838025373e+03 1.715989744299366127e+00 2.678387553175978937e-03
4.298520896507864563e+03 1.715901120114792899e+00 2.608262191609313132e-03
4.302819417404373780e+03 1.718289584655781299e+00 2.385034144677896685e-03
4.307122236821779552e+03 1.722007120383797885e+00 2.241003189420571334e-03
4.311429359058603040e+03 1.726444095009368240e+00 2.569282802290006554e-03
4.315740788417662770e+03 1.731731040301445201e+00 2.669987042209635928e-03
4.320056529206081905e+03 1.738779897008719155e+00 2.432136135638753808e-03
4.324376585735290064e+03 1.747311543445059012e+00 2.297782502992078493e-03
4.328700962321026054e+03 1.756719408924724002e+00 2.500798808895755322e-03
4.333029663283348782e+03 1.766541277679295030e+00 3.030914759533525921e-03
4.337362692946633615e+03 1.776338886149925189e+00 3.610718908701889950e-03
4.341700055639581478e+03 1.783778290338098538e+00 3.718005929806082743e-03
4.346041755695222491e+03 1.785775962421105811e+00 2.603498761261278504e-03
4.350387797450919606e+03 1.780597795611405632e+00 2.470102649134181365e-03
4.354738185248371337e+03 1.768980357528727509e+00 3.758476215822228322e-03
4.359092923433621763e+03 1.753002506564676377e+00 4.833492899579412694e-03
4.363452016357056891e+03 1.735102752743780119e+00 5.424612204774231956e-03
4.367815468373414660e+03 1.718583063014780254e+00 4.973175638987518098e-03
4.372183283841789489e+03 1.704543613213222564e+00 4.087839734648938267e-03
4.376555467125633186e+03 1.694533980180275679e+00 3.926335216180697023e-03
4.380932022592760404e+03 1.688326036626338844e+00 4.765843662627539286e-03
4.385312954615354101e+03 1.685622642165456986e+00 5.147371721665470849e-03
4.389698267569970994e+03 1.684504248331379017e+00 4.912987478682438042e-03
4.394087965837542470e+03 1.683300059239746904e+00 4.189523296698704352e-03
4.398482053803381859e+03 1.681142362778739185e+00 3.529318498370671159e-03
4.402880535857186260e+03 1.677042222110161074e+00 3.701938212902559401e-03
4.407283416393044718e+03 1.671082002854077375e+00 4.244496305763630940e-03
4.411690699809440048e+03 1.663498683581798199e+00 3.704765834576732430e-03
4.416102390509250654e+03 1.656269269364970542e+00 3.349218409635412556e-03
4.420518492899761441e+03 1.649809134827840751e+00 4.637072710905694450e-03
4.424939011392662906e+03 1.643226128159684496e+00 5.293690546097508560e-03
4.429363950404056595e+03 1.634706089990881628e+00 4.959462894812526577e-03
4.433793314354462382e+03 1.623691453913489680e+00 4.695207878748991828e-03
4.438227107668818462e+03 1.611154660986176212e+00 6.632209151655133784e-03
4.442665334776488635e+03 1.599879346450545636e+00 9.258702123561207004e-03
4.447108000111265937e+03 1.593040583942836097e+00 1.063836263077165556e-02
4.451555108111379013e+03 1.596605185302995000e+00 9.759183085819861034e-03
4.456006663219492111e+03 1.612693643878287508e+00 8.007779596267167177e-03
4.460462669882713271e+03 1.641789021889975997e+00 8.538841572540870756e-03
4.464923132552597053e+03 1.682168272321091118e+00 1.130773082425119876e-02
4.469388055685150903e+03 1.729100377840403713e+00 1.340539293962496326e-02
4.473857443740837880e+03 1.776921821524119594e+00 1.297435663442720460e-02
4.478331301184580298e+03 1.819999442145880275e+00 1.045155205484586854e-02
4.482809632485766087e+03 1.852755548829284393e+00 7.309945450451556248e-03
4.487292442118253348e+03 1.871202360522947306e+00 6.955151091720315065e-03
4.491779734560373072e+03 1.874699904827840324e+00 8.230746516894626649e-03
4.496271514294934605e+03 1.864707938901132733e+00 8.822096662264121772e-03
4.500767785809231100e+03 1.845974813543862725e+00 7.759634294795898259e-03
4.505268553595042249e+03 1.823778758560026469e+00 5.272727627651341981e-03
4.509773822148638828e+03 1.801847746968878283e+00 2.757964985309370887e-03
4.514283595970789065e+03 1.783053209807653250e+00 2.434554872205897148e-03
4.518797879566761367e+03 1.768330462237589940e+00 2.822402528053583395e-03
4.523316677446328868e+03 1.756676366432531555e+00 2.395620698808065448e-03
4.527839994123776705e+03 1.747240738580492003e+00 1.449686448222838996e-03
4.532367834117902021e+03 1.738709259131961726e+00 1.188517091899290090e-03
4.536900201952022144e+03 1.731636613594538687e+00 1.383428028408397511e-03
4.541437102153975502e+03 1.726406551461854733e+00 1.546290255635331557e-03
4.545978539256130716e+03 1.723023276734341636e+00 1.327772504274201673e-03
4.550524517795388419e+03 1.722153810229742676e+00 1.926249703947556600e-03
4.555075042313184895e+03 1.721857116262818677e+00 2.501960808397492731e-03
4.559630117355500261e+03 1.720865552161778389e+00 2.949752561459756655e-03
4.564189747472856652e+03 1.718178383732053449e+00 2.962163266492850652e-03
4.568753937220330954e+03 1.712430442295335586e+00 2.658697034173622062e-03
4.573322691157552981e+03 1.703289158869460529e+00 2.203646540275448155e-03
4.577896013848711846e+03 1.690182071390427421e+00 2.109969085582719464e-03
4.582473909862562323e+03 1.672402293608972856e+00 2.701246549714611533e-03
4.587056383772426670e+03 1.651491488849365696e+00 2.788768533212997690e-03
4.591643440156200086e+03 1.628823895442125247e+00 2.651541068644566474e-03
4.596235083596357981e+03 1.605697399278298132e+00 2.191608286758820086e-03
4.600831318679955984e+03 1.583222916333722807e+00 1.357883209646998162e-03
4.605432149998637215e+03 1.563251491636988844e+00 8.287358413760516612e-04
4.610037582148637739e+03 1.546362579546388893e+00 8.808316826439490689e-04
4.614647619730787483e+03 1.532548339943947013e+00 1.398266710223356694e-03
4.619262267350520233e+03 1.520520317610971395e+00 1.800587994775304642e-03
4.623881529617872729e+03 1.508431294923103128e+00 2.102992924485664814e-03
4.628505411147491941e+03 1.495027891412881393e+00 2.176700348162515907e-03
4.633133916558640522e+03 1.479477990566454570e+00 1.953787057905387314e-03
4.637767050475200449e+03 1.461337554893375135e+00 1.459505538603118099e-03
4.642404817525677572e+03 1.439409810133573053e+00 1.403548741824034831e-03
4.647047222343205249e+03 1.414248316176878184e+00 1.460742646874528018e-03
4.651694269565549803e+03 1.385869581401523387e+00 1.476067004129784366e-03
4.656345963835116891e+03 1.354410664017817956e+00 1.407605119023076258e-03
4.661002309798953320e+03 1.320823540033652099e+00 1.333336797237189746e-03
4.665663312108753416e+03 1.285691745268208397e+00 1.167926749958128271e-03
4.670328975420864481e+03 1.250294887631713037e+00 1.412671660902905212e-03
4.674999304396286789e+03 1.216629616090338262e+00 1.961044743107772260e-03
4.679674303700684504e+03 1.185624801343253099e+00 2.397568521649662797e-03
4.684353978004386590e+03 1.158979631746735794e+00 2.282943223218722971e-03
4.689038331982392265e+03 1.136487192831880266e+00 2.234460890423365428e-03
4.693727370314376458e+03 1.117824361891689211e+00 2.820090789424852667e-03
4.698421097684692540e+03 1.102264777717889110e+00 3.746689750988875349e-03
4.703119518782378691e+03 1.088377124870545609e+00 4.268257287885459522e-03
4.707822638301162442e+03 1.074700487225695333e+00 4.192593756773771788e-03
4.712530460939465229e+03 1.059477834897797566e+00 3.411286966933391347e-03
4.717242991400406027e+03 1.041040456590694774e+00 2.682053884399741156e-03
4.721960234391808626e+03 1.019027730890288863e+00 3.169357061492847089e-03
4.726682194626201635e+03 9.944028008946382835e-01 3.833895988384009110e-03
4.731408876820829391e+03 9.680649772606649828e-01 3.925583761955033640e-03
4.736140285697651962e+03 9.420983379211896880e-01 3.455319557276579148e-03
4.740876425983350600e+03 9.187997964589427191e-01 2.462415562363196725e-03
4.745617302409335934e+03 9.001347996558886067e-01 1.384416605244560491e-03
4.750362919711747054e+03 8.874466599642474307e-01 1.573725343767027858e-03
4.755113282631459697e+03 8.805568533987956359e-01 2.036118980063976545e-03
4.759868395914093526e+03 8.782139652820276643e-01 1.976374918043425927e-03
4.764628264310008490e+03 8.794477874394439620e-01 1.554048311449432148e-03
4.769392892574320285e+03 8.833500089554944257e-01 1.302544306590190616e-03
4.774162285466896719e+03 8.896404456213719003e-01 8.876563639494986988e-04
4.778936447752364984e+03 8.969535922275615469e-01 7.806834187695855295e-04
4.783715384200118933e+03 9.051473053092992105e-01 8.737290836486982749e-04
4.788499099584319993e+03 9.142167466021249300e-01 8.310135118897362403e-04
