# starting wavelength: 3265.997
# ending wavelength: 10089.055
# wav flux eflux
3.268750803698389518e+03 5.022184057786430067e+00 2.823080930115058618e-02
3.272019554502088795e+03 4.998569818826076983e+00 2.728688339017393619e-02
3.275291574056592253e+03 4.970251220937934811e+00 2.716793761464799187e-02
3.278566865630649772e+03 4.939217324766436157e+00 2.676783166731771732e-02
3.281845432496281319e+03 4.916925080813922655e+00 2.640952531229806555e-02
3.285127277928778767e+03 4.869171730486199223e+00 2.678337972457411550e-02
3.288412405206708627e+03 4.841672632396762488e+00 2.646430245099520850e-02
3.291700817611916591e+03 4.815117690944833662e+00 2.607166699488069894e-02
3.294992518429529355e+03 4.768890235369017461e+00 2.531935552599941242e-02
3.298287510947960072e+03 4.736247688293247826e+00 2.462304534914912940e-02
3.301585798458909267e+03 4.712114327055330065e+00 2.417177557546578912e-02
3.304887384257369376e+03 4.694770012099335865e+00 2.333894912100665034e-02
3.308192271641627485e+03 4.674531958166316059e+00 2.320880716666009341e-02
3.311500463913270323e+03 4.637317804839651281e+00 2.337812299266968721e-02
3.314811964377184722e+03 4.610902054703822195e+00 2.275964859176109190e-02
3.318126776341563072e+03 4.587657552379972969e+00 2.240310707840738325e-02
3.321444903117905596e+03 4.573559927590433283e+00 2.158480929776803239e-02
3.324766348021024896e+03 4.553925757521233741e+00 2.122901745530397788e-02
3.328091114369046863e+03 4.541044977345298328e+00 2.107364590853812170e-02
3.331419205483417045e+03 4.529812872528936829e+00 2.089118749192389948e-02
3.334750624688901553e+03 4.529153044971487851e+00 2.086678727773156813e-02
3.338085375313591612e+03 4.519335242347227499e+00 2.011421071391713764e-02
3.341423460688906289e+03 4.518405564234455163e+00 1.973305645150828791e-02
3.344764884149596128e+03 4.507863717326336506e+00 1.959826625648689730e-02
3.348109649033746791e+03 4.497088518659944079e+00 1.946229171308805697e-02
3.351457758682781787e+03 4.482272056441414243e+00 1.932122982473238534e-02
3.354809216441465651e+03 4.467898104247213453e+00 1.914421542767348952e-02
3.358164025657908041e+03 4.458914854629796309e+00 1.893068643522846997e-02
3.361522189683567376e+03 4.457156722426165452e+00 1.919504174542754210e-02
3.364883711873251741e+03 4.440908832817522800e+00 1.897634094824390827e-02
3.368248595585126168e+03 4.432669623941941417e+00 1.828082417697233716e-02
3.371616844180712633e+03 4.420773572568374554e+00 1.818010646035454064e-02
3.374988461024894150e+03 4.415922697800360730e+00 1.794852727064176479e-02
3.378363449485920228e+03 4.406284923291943656e+00 1.746101265338633954e-02
3.381741812935407324e+03 4.407739189993399975e+00 1.729027811763816230e-02
3.385123554748343849e+03 4.417832967667247424e+00 1.721132894289085016e-02
3.388508678303093347e+03 4.425633181151980011e+00 1.726946188627834222e-02
3.391897186981397681e+03 4.436225222334102547e+00 1.767726326421931518e-02
3.395289084168380214e+03 4.445749570150625551e+00 1.793702045248125876e-02
3.398684373252549449e+03 4.444615982573956181e+00 1.765690187797573987e-02
3.402083057625803121e+03 4.443764650374861347e+00 1.751117186365846665e-02
3.405485140683430018e+03 4.445396968802926452e+00 1.703665169035809002e-02
3.408890625824114522e+03 4.451838179944772378e+00 1.700250176410543143e-02
3.412299516449939802e+03 4.447227540213833485e+00 1.682605171876584704e-02
3.415711815966390986e+03 4.442330809436884742e+00 1.653707161968995254e-02
3.419127527782358356e+03 4.441939465153066813e+00 1.681977875708877065e-02
3.422546655310141887e+03 4.428798002050004179e+00 1.667494317419298405e-02
3.425969201965453522e+03 4.401284612990051137e+00 1.689682703564078167e-02
3.429395171167419903e+03 4.378505902642308989e+00 1.661679638054592428e-02
3.432824566338588284e+03 4.350443467647190587e+00 1.676794763800814117e-02
3.436257390904928343e+03 4.321459143348659993e+00 1.649358911201929956e-02
3.439693648295834464e+03 4.295619775354889036e+00 1.605593364655676092e-02
3.443133341944131189e+03 4.276444069902529677e+00 1.612558380564346056e-02
3.446576475286076402e+03 4.251960793531915250e+00 1.625369707489243004e-02
3.450023051761363604e+03 4.239491391722340019e+00 1.625922266942650060e-02
3.453473074813126004e+03 4.226404095728654831e+00 1.641228630242369882e-02
3.456926547887940615e+03 4.213642504179786918e+00 1.649587404251627934e-02
3.460383474435829612e+03 4.203716321047259008e+00 1.631787072445651035e-02
3.463843857910266706e+03 4.188480439800855493e+00 1.614713850335654233e-02
3.467307701768178049e+03 4.180502865809423874e+00 1.608199307423029134e-02
3.470775009469947236e+03 4.173236921336696881e+00 1.579135468223244812e-02
3.474245784479418489e+03 4.161966632491931328e+00 1.546022604608708953e-02
3.477720030263898934e+03 4.138677177203214264e+00 1.492248544794049468e-02
3.481197750294164052e+03 4.119632289647591428e+00 1.498466969997476646e-02
3.484678948044459503e+03 4.092712169841641767e+00 1.493966152417898312e-02
3.488163626992504760e+03 4.066434649842385340e+00 1.507491740769597265e-02
3.491651790619498570e+03 4.035346364837218758e+00 1.506836265734607001e-02
3.495143442410119405e+03 4.007108072119935471e+00 1.499435532985653879e-02
3.498638585852530468e+03 3.977660848561936469e+00 1.523500097277274284e-02
3.502137224438384237e+03 3.951763503270554256e+00 1.539273049902221621e-02
3.505639361662823831e+03 3.918195733067598940e+00 1.507677238320568464e-02
3.509145001024487556e+03 3.877713691542947760e+00 1.460133776069116873e-02
3.512654146025513455e+03 3.840317515106258739e+00 1.499238998755628681e-02
3.516166800171540217e+03 3.806777102579352423e+00 1.474935367495655222e-02
3.519682966971712631e+03 3.791954390094080196e+00 1.474702841029061282e-02
3.523202649938685681e+03 3.771563161659377439e+00 1.480392633714686622e-02
3.526725852588625457e+03 3.757902880430317616e+00 1.435622316256200334e-02
3.530252578441215064e+03 3.747585828613634540e+00 1.424454070448795580e-02
3.533782831019657806e+03 3.731581931255235851e+00 1.436433083035619854e-02
3.537316613850678550e+03 3.713413135660745379e+00 1.426415438775608530e-02
3.540853930464530094e+03 3.695181460001661033e+00 1.382077533252137544e-02
3.544394784394995895e+03 3.677730585138983876e+00 1.373557701041210229e-02
3.547939179179392340e+03 3.660004813870367357e+00 1.379355709720616642e-02
3.551487118358572843e+03 3.643544469230589833e+00 1.374794713897733132e-02
3.555038605476932389e+03 3.624851565613369075e+00 1.334710892612696147e-02
3.558593644082410719e+03 3.608229496117939306e+00 1.320949723722379850e-02
3.562152237726494150e+03 3.593653649756572310e+00 1.321197957260147361e-02
3.565714389964221937e+03 3.578920389968894611e+00 1.310769421369774486e-02
3.569280104354187188e+03 3.568024569469071761e+00 1.295434683253319889e-02
3.572849384458542772e+03 3.552672650795207332e+00 1.289467549463292791e-02
3.576422233843002232e+03 3.540555815668326556e+00 1.290603213353018301e-02
3.579998656076846601e+03 3.527469782517159480e+00 1.291647510521483702e-02
3.583578654732924406e+03 3.514797326410152412e+00 1.288646453630406911e-02
3.587162233387658489e+03 3.512192857630224374e+00 1.274207195414944066e-02
3.590749395621047370e+03 3.511379364857311725e+00 1.272347393302498617e-02
3.594340145016669794e+03 3.508979235876653391e+00 1.278371592144444263e-02
3.597934485161687462e+03 3.509602451499191034e+00 1.246508868171530664e-02
3.601532419646850485e+03 3.516349052247422780e+00 1.227879452081034363e-02
3.605133952066498296e+03 3.525833052503297260e+00 1.156562991017216595e-02
3.608739086018566013e+03 3.527693570962594727e+00 1.170562680667969896e-02
3.612347825104585809e+03 3.526215606542626446e+00 1.153133723801602790e-02
3.615960172929691907e+03 3.525338651696259706e+00 1.128200111998680331e-02
3.619576133102622407e+03 3.532992262135679962e+00 1.136641439370983039e-02
3.623195709235726554e+03 3.536643489039250632e+00 1.120151036973307014e-02
3.626818904944963379e+03 3.540234124824343631e+00 1.126846562239871077e-02
3.630445723849909427e+03 3.545528730768002124e+00 1.104687234021594147e-02
3.634076169573760581e+03 3.549457230630713500e+00 1.100391748772823128e-02
3.637710245743335690e+03 3.541724312843236078e+00 1.082849338490911480e-02
3.641347955989080219e+03 3.537675943626604980e+00 1.099147346002087716e-02
3.644989303945070333e+03 3.530706159276708611e+00 1.106882648128667060e-02
3.648634293249016537e+03 3.523854628370378883e+00 1.100478605603387103e-02
3.652282927542266862e+03 3.519752224985227329e+00 1.092744394396513719e-02
3.655935210469810499e+03 3.516611422195522696e+00 1.090674069388082069e-02
3.659591145680281443e+03 3.510361475350819660e+00 1.083929051769219262e-02
3.663250736825963031e+03 3.512196851433510680e+00 1.089208705266406924e-02
3.666913987562790226e+03 3.506863953352306940e+00 1.075882545832765845e-02
3.670580901550354156e+03 3.500141433214861930e+00 1.074859456465906450e-02
3.674251482451905758e+03 3.492990086857985954e+00 1.080778873515895327e-02
3.677925733934358959e+03 3.490533233456929896e+00 1.086666319573745092e-02
3.681603659668294313e+03 3.498594509351392823e+00 1.259518200419683896e-02
3.685285263327964003e+03 3.474091534595335151e+00 1.379332833169576861e-02
3.688970548591293209e+03 3.451787309125525116e+00 1.463045449200025064e-02
3.692659519139885560e+03 3.434158099246067852e+00 1.472027435415578650e-02
3.696352178659026777e+03 3.429712736253422989e+00 1.463487569456861821e-02
3.700048530837686940e+03 3.424715374730265438e+00 1.468656972092427515e-02
3.703748579368525952e+03 3.418434014558660916e+00 1.446177824095326234e-02
3.707452327947895355e+03 3.419972332329867193e+00 1.435079519791738339e-02
3.711159780275844696e+03 3.423957795644522406e+00 1.433523605409284599e-02
3.714870940056121526e+03 3.432598155325514711e+00 1.424043248777843822e-02
3.718585810996179134e+03 3.433927935372877105e+00 1.420275963734455617e-02
3.722304396807176545e+03 3.444101215029753860e+00 1.405510826639608420e-02
3.726026701203984885e+03 3.450534311774291929e+00 1.407986617114095895e-02
3.729752727905190113e+03 3.453010571362160608e+00 1.403842831154525350e-02
3.733482480633096657e+03 3.452537924950378478e+00 1.407143830665872307e-02
3.737215963113731050e+03 3.453531770083110963e+00 1.402415489236002663e-02
3.740953179076846027e+03 3.450758985999972772e+00 1.393882826473513172e-02
3.744694132255923705e+03 3.449522141660612107e+00 1.393902969387782013e-02
3.748438826388181042e+03 3.449825329856579970e+00 1.387421189537591144e-02
3.752187265214570289e+03 3.441576976335432914e+00 1.387080476832568826e-02
3.755939452479786269e+03 3.440176056064980337e+00 1.371221771237419139e-02
3.759695391932267285e+03 3.437800033134488675e+00 1.389269920032002760e-02
3.763455087324201031e+03 3.447446396647335654e+00 1.394251744355414109e-02
3.767218542411526414e+03 3.463011003909525876e+00 1.313529195216857695e-02
3.770985760953939007e+03 3.468407234833380759e+00 1.607293277814268034e-02
3.774756746714894234e+03 3.463193255614065436e+00 1.554205566706606291e-02
3.778531503461610555e+03 3.492020131391890825e+00 1.488815137569783793e-02
3.782310034965073100e+03 3.551572364086996725e+00 1.583318780054326566e-02
3.786092345000039586e+03 3.627327929117319272e+00 1.808295023351308775e-02
3.789878437345040766e+03 3.700691796526653921e+00 1.953745981011397251e-02
3.793668315782387253e+03 3.766635630463759377e+00 1.969862913986767175e-02
3.797461984098170888e+03 3.819805500283878441e+00 1.976047846634123792e-02
3.801259446082270188e+03 3.879554040720316621e+00 1.955381208277746918e-02
3.805060705528353537e+03 3.932565018139551505e+00 1.954014013517572923e-02
3.808865766233883278e+03 3.971609276025383384e+00 1.923046267823577335e-02
3.812674632000118436e+03 3.988484312704304369e+00 1.908079704376296551e-02
3.816487306632119726e+03 3.973869304641255873e+00 1.911729848259661330e-02
3.820303793938753188e+03 3.936856163583418500e+00 1.910463882238491035e-02
3.824124097732693372e+03 3.880328761739630927e+00 1.885891179194869316e-02
3.827948221830427428e+03 3.800458164810446071e+00 1.827452157455872195e-02
3.831776170052258749e+03 3.712811893622279591e+00 1.802704058125276232e-02
3.835607946222312421e+03 3.619715992974529506e+00 1.773365549626945009e-02
3.839443554168536139e+03 3.533376705285107278e+00 1.782544711862892733e-02
3.843282997722705659e+03 3.465624942857070234e+00 1.735095717191843454e-02
3.847126280720429804e+03 3.409206303611060029e+00 1.645720426097301708e-02
3.850973407001151372e+03 3.350754442861131110e+00 1.623394663011156272e-02
3.854824380408153957e+03 3.268228959657647703e+00 1.402349172212996251e-02
3.858679204788563311e+03 3.206515032912432339e+00 1.394203377717241274e-02
3.862537883993353262e+03 3.167526421682005378e+00 1.386525733846075137e-02
3.866400421877347981e+03 3.144237943426882342e+00 1.230477417285638815e-02
3.870266822299226533e+03 3.124669307228194359e+00 1.152012598211041988e-02
3.874137089121526969e+03 3.092364600630677529e+00 1.141191944397623725e-02
3.878011226210649966e+03 3.053935331821626686e+00 1.101966388666194077e-02
3.881889237436861549e+03 3.031319286755965070e+00 1.104575184446080112e-02
3.885771126674299921e+03 3.009288922398780208e+00 1.132574283727470245e-02
3.889656897800975457e+03 2.985100274696594003e+00 1.119140441860808077e-02
3.893546554698777527e+03 2.949906437413484017e+00 1.114646200732840979e-02
3.897440101253477678e+03 2.913408542372241783e+00 1.125415786399880380e-02
3.901337541354732366e+03 2.884407815620790405e+00 1.114889324412813264e-02
3.905238878896088409e+03 2.849175097610366691e+00 1.123038299366380978e-02
3.909144117774985716e+03 2.810176216024863560e+00 1.143855578814519797e-02
3.913053261892762293e+03 2.775987194918229317e+00 1.126083839785634554e-02
3.916966315154656058e+03 2.743958452404808845e+00 1.089264520268763171e-02
3.920883281469812118e+03 2.719626092664431116e+00 1.051559914943236626e-02
3.924804164751283224e+03 2.704982099668519435e+00 1.047443244122601980e-02
3.928728968916035683e+03 2.705877338854304703e+00 1.016470083530491078e-02
3.932657697884953450e+03 2.708687865737976264e+00 1.034117204067674066e-02
3.936590355582839493e+03 2.710892926237583822e+00 1.047441965494022575e-02
3.940526945938423523e+03 2.719625278044265571e+00 1.019808188789237020e-02
3.944467472884363360e+03 2.729740770698379393e+00 1.032421936682463050e-02
3.948411940357249023e+03 2.745564040176609044e+00 1.017195944038935991e-02
3.952360352297607733e+03 2.747971273102664203e+00 9.293735368297334487e-03
3.956312712649906643e+03 2.763983268205284727e+00 9.486522942603128200e-03
3.960269025362557841e+03 2.776186034854142282e+00 9.600551162680432196e-03
3.964229294387921527e+03 2.781699175569206872e+00 9.503107506281955816e-03
3.968193523682310570e+03 2.779222129032409061e+00 9.495642415051852581e-03
3.972161717205994591e+03 2.769070425422617276e+00 9.783346911934717033e-03
3.976133878923201792e+03 2.763607300694036706e+00 9.504807853871444570e-03
3.980110012802126221e+03 2.750869389493745487e+00 9.315054157129739471e-03
3.984090122814929600e+03 2.732346516090228494e+00 9.065437173059853748e-03
3.988074212937745870e+03 2.715936231102610066e+00 8.947717829087894689e-03
3.992062287150684824e+03 2.702418810977723851e+00 8.774096092101647815e-03
3.996054349437837118e+03 2.685535941513207181e+00 8.486455754552580527e-03
4.000050403787276082e+03 2.674639417527923779e+00 8.243739332760532598e-03
4.004050454191064546e+03 2.672889671006465573e+00 8.110751260590014222e-03
4.008054504645257111e+03 2.666975169221867503e+00 7.858291520265318561e-03
4.012062559149903791e+03 2.661218179534029726e+00 7.340468503523467012e-03
4.016074621709055009e+03 2.651886108430774769e+00 7.160338564104274175e-03
4.020090696330765240e+03 2.641572822373161600e+00 7.214667329897250271e-03
4.024110787027097558e+03 2.632147932278065205e+00 7.118768684243910808e-03
4.028134897814125907e+03 2.619571119530615722e+00 7.100609102776623931e-03
4.032163032711941469e+03 2.612832002574086321e+00 7.335984813316744069e-03
4.036195195744654484e+03 2.605686162262249805e+00 6.925596501851343477e-03
4.040231390940400615e+03 2.591621987130527049e+00 6.969118029781709925e-03
4.044271622331342314e+03 2.581329499082564816e+00 7.106757521298918100e-03
4.048315893953675186e+03 2.571527373810706507e+00 7.439431868048875657e-03
4.052364209847629809e+03 2.562180715714313273e+00 7.343270220696255374e-03
4.056416574057479011e+03 2.553846967679703983e+00 7.432710153642958090e-03
4.060472990631537868e+03 2.552089175301690993e+00 7.788147856827914647e-03
4.064533463622170530e+03 2.541701800655491450e+00 8.071154719496043128e-03
4.068597997085794304e+03 2.525333907567024028e+00 9.315495803363086150e-03
4.072666595082881486e+03 2.517841232364119275e+00 9.372964237388418940e-03
4.076739261677965715e+03 2.522549953661834987e+00 9.294509537759993931e-03
4.080816000939644709e+03 2.538290229653248353e+00 9.569365556732795097e-03
4.084896816940585722e+03 2.551767793589592159e+00 9.797966704967017021e-03
4.088981713757527814e+03 2.564615102200067831e+00 9.994861678432583399e-03
4.093070695471286854e+03 2.581358571947231173e+00 1.016637203335118110e-02
4.097163766166759160e+03 2.589037815263683484e+00 1.006058188203357018e-02
4.101260929932927866e+03 2.593892796613357810e+00 9.961962172952672570e-03
4.105362190862862008e+03 2.587243639455723887e+00 9.840979427342211663e-03
4.109467553053726078e+03 2.575534675647719318e+00 9.652298200820037810e-03
4.113577020606780934e+03 2.546267516494217897e+00 1.000746337885357815e-02
4.117690597627389252e+03 2.518891746521370045e+00 9.722083888022262782e-03
4.121808288225018259e+03 2.486100662911062020e+00 9.618418728369795140e-03
4.125930096513244280e+03 2.450356279870811171e+00 9.246958180882563702e-03
4.130056026609759101e+03 2.424935238979966101e+00 8.868280357557847132e-03
4.134186082636369974e+03 2.408440664523486152e+00 8.903527863765834521e-03
4.138320268719007800e+03 2.404170541065315803e+00 7.755998184597090277e-03
4.142458588987728035e+03 2.401493701081889753e+00 7.534100736670899801e-03
4.146601047576717065e+03 2.390486156794969119e+00 7.119873154361282958e-03
4.150747648624294925e+03 2.385614530833963354e+00 7.122176840817623887e-03
4.154898396272920763e+03 2.382723276016423419e+00 7.056662426493964281e-03
4.159053294669195566e+03 2.375891131677446921e+00 7.028493127226199434e-03
4.163212347963865795e+03 2.363741064732202801e+00 7.365430846533738141e-03
4.167375560311830668e+03 2.349658327314180006e+00 7.411727273888875020e-03
4.171542935872143971e+03 2.342797625498017844e+00 7.084066616389965952e-03
4.175714478808017702e+03 2.331677905713787080e+00 7.142941079946057460e-03
4.179890193286827525e+03 2.324758584632700575e+00 7.162512019156287019e-03
4.184070083480115500e+03 2.315866552558715430e+00 7.129037626554458884e-03
4.188254153563597356e+03 2.310101106367940638e+00 7.176210536335290990e-03
4.192442407717161586e+03 2.298961397232562209e+00 7.229973539949821615e-03
4.196634850124880359e+03 2.293525713889415396e+00 7.023353896956669069e-03
4.200831484975006788e+03 2.285998088501033809e+00 6.954787066465797744e-03
4.205032316459983122e+03 2.276630802457436431e+00 6.972514845877162554e-03
4.209237348776444378e+03 2.264913352798731516e+00 6.807189824082330101e-03
4.213446586125221984e+03 2.249588078514611844e+00 6.899762887502010507e-03
4.217660032711349231e+03 2.234713027460723200e+00 6.741131940477123295e-03
4.221877692744061278e+03 2.221130838123738460e+00 6.889773871977752234e-03
4.226099570436806971e+03 2.207682712012314141e+00 6.807882848701212949e-03
4.230325670007245208e+03 2.194494712613266341e+00 6.823750967095114014e-03
4.234555995677254032e+03 2.182853206289199210e+00 6.704041633750096665e-03
4.238790551672932452e+03 2.175760407196490220e+00 6.807566781627976890e-03
4.243029342224606808e+03 2.163845098847525961e+00 6.823806984043108252e-03
4.247272371566832589e+03 2.149991705044769219e+00 6.660279666576498711e-03
4.251519643938400804e+03 2.142191572824043266e+00 6.479584680842333071e-03
4.255771163582340705e+03 2.132583326285951042e+00 6.507565287935648292e-03
