# starting wavelength: 3459.519
# ending wavelength: 9011.909
# wav flux eflux
3.460383474435829612e+03 4.428344715442779744e+00 2.525573065322955779e-01
3.463843857910266706e+03 4.389540013945419261e+00 1.796335223387089397e-01
3.467307701768178049e+03 4.364018669951251539e+00 1.342517975283034071e-01
3.470775009469947236e+03 4.341000121926046340e+00 1.015142067970814799e-01
3.474245784479418489e+03 4.319577853218151908e+00 7.958638499743923844e-02
3.477720030263898934e+03 4.305728005369829248e+00 6.271387632211877783e-02
3.481197750294164052e+03 4.289989225396219297e+00 5.241505716816587113e-02
3.484678948044459503e+03 4.282274496739334246e+00 4.480489956830490533e-02
3.488163626992504760e+03 4.272713294813137885e+00 3.721693501983392577e-02
3.491651790619498570e+03 4.263904125412429025e+00 3.159108779374838333e-02
3.495143442410119405e+03 4.254678685897860468e+00 2.767315197286897635e-02
3.498638585852530468e+03 4.247475404265873777e+00 2.451407726184087060e-02
3.502137224438384237e+03 4.242444256026774774e+00 2.227664410293687947e-02
3.505639361662823831e+03 4.238531323639293191e+00 2.097982345822736391e-02
3.509145001024487556e+03 4.232615480601164215e+00 1.964972378616475571e-02
3.512654146025513455e+03 4.226238757563395509e+00 1.867754595202125029e-02
3.516166800171540217e+03 4.224936193884781588e+00 1.822935512286182405e-02
3.519682966971712631e+03 4.217303232412527692e+00 1.775095662243884875e-02
3.523202649938685681e+03 4.200943212066011512e+00 1.771929525297580993e-02
3.526725852588625457e+03 4.185452429898181670e+00 1.737279193113615630e-02
3.530252578441215064e+03 4.167225970616725839e+00 1.718395854404008646e-02
3.533782831019657806e+03 4.149320682761439727e+00 1.731855843808846954e-02
3.537316613850678550e+03 4.127866974001225486e+00 1.719843480816039827e-02
3.540853930464530094e+03 4.112204803183979962e+00 1.728638536215533830e-02
3.544394784394995895e+03 4.091950067874289054e+00 1.579641642602673188e-02
3.547939179179392340e+03 4.070651244338969299e+00 1.455885896985837681e-02
3.551487118358572843e+03 4.051571652446745553e+00 1.377960424525835094e-02
3.555038605476932389e+03 4.027193491024225303e+00 1.364233383648032899e-02
3.558593644082410719e+03 4.006734222846690230e+00 1.370128185553970770e-02
3.562152237726494150e+03 3.991408890192295722e+00 1.383131481338599478e-02
3.565714389964221937e+03 3.977120043625911094e+00 1.377580058504785515e-02
3.569280104354187188e+03 3.959615154445580210e+00 1.303930998008860295e-02
3.572849384458542772e+03 3.948235496391725885e+00 1.359582095606482778e-02
3.576422233843002232e+03 3.939173215666625261e+00 1.320014208952072395e-02
3.579998656076846601e+03 3.927670698824878404e+00 1.342154153771485565e-02
3.583578654732924406e+03 3.917850645780694308e+00 1.349862580261343946e-02
3.587162233387658489e+03 3.917242533181145347e+00 1.314605376673015982e-02
3.590749395621047370e+03 3.904785277844818658e+00 1.309013684278043273e-02
3.594340145016669794e+03 3.899508101465721133e+00 1.339764678422116287e-02
3.597934485161687462e+03 3.888418648004675404e+00 1.324086586552212542e-02
3.601532419646850485e+03 3.882312507136568058e+00 1.259496633920745810e-02
3.605133952066498296e+03 3.863688062414591506e+00 1.332442680785136252e-02
3.608739086018566013e+03 3.851935843784990432e+00 1.387880566172837275e-02
3.612347825104585809e+03 3.833209691767189842e+00 1.319663688710564532e-02
3.615960172929691907e+03 3.819822520833773716e+00 1.282650867313389793e-02
3.619576133102622407e+03 3.806922202185424098e+00 1.264175017372939913e-02
3.623195709235726554e+03 3.797335310765967087e+00 1.304976349523313123e-02
3.626818904944963379e+03 3.783618380947858295e+00 1.454367763368858910e-02
3.630445723849909427e+03 3.773022499425528142e+00 1.460425982004953660e-02
3.634076169573760581e+03 3.759389611895771477e+00 1.441141390779013959e-02
3.637710245743335690e+03 3.752157940440528083e+00 1.416222093274422875e-02
3.641347955989080219e+03 3.744519689351731184e+00 1.397956460496536241e-02
3.644989303945070333e+03 3.732226344601064394e+00 1.403415615329353140e-02
3.648634293249016537e+03 3.727671639153033123e+00 1.366830263624645332e-02
3.652282927542266862e+03 3.720057403551185526e+00 1.365072844254495987e-02
3.655935210469810499e+03 3.712856822323398642e+00 1.376776121072456269e-02
3.659591145680281443e+03 3.700482880789880635e+00 1.413883403478908771e-02
3.663250736825963031e+03 3.694198286419003718e+00 1.453417818902072271e-02
3.666913987562790226e+03 3.688212082297599892e+00 1.464915386762633172e-02
3.670580901550354156e+03 3.687825753961645692e+00 1.453749691689011983e-02
3.674251482451905758e+03 3.683258446669240627e+00 1.404942373896114760e-02
3.677925733934358959e+03 3.681463752132517087e+00 1.384003029968970157e-02
3.681603659668294313e+03 3.683262981141891323e+00 1.401911614515547258e-02
3.685285263327964003e+03 3.685221527597316360e+00 1.330435363865942362e-02
3.688970548591293209e+03 3.701462608662445142e+00 1.411531346684407988e-02
3.692659519139885560e+03 3.713189219444150702e+00 1.425133186020923100e-02
3.696352178659026777e+03 3.721213647482350506e+00 1.453588883571279092e-02
3.700048530837686940e+03 3.737904328674462207e+00 1.469424638844181452e-02
3.703748579368525952e+03 3.759481638835606265e+00 1.471516196267708652e-02
3.707452327947895355e+03 3.774327255571437778e+00 1.399586307748504517e-02
3.711159780275844696e+03 3.795187288763069766e+00 1.305663153093413083e-02
3.714870940056121526e+03 3.811266244062283981e+00 1.356534568513273822e-02
3.718585810996179134e+03 3.820889660232278828e+00 1.313803812854572560e-02
3.722304396807176545e+03 3.821672417290530532e+00 1.319424316511557532e-02
3.726026701203984885e+03 3.821250358892928300e+00 1.336121354569923605e-02
3.729752727905190113e+03 3.822635668075534010e+00 1.366704998917951143e-02
3.733482480633096657e+03 3.814276874875949019e+00 1.415908311803313994e-02
3.737215963113731050e+03 3.808386906981649389e+00 1.431291181499815685e-02
3.740953179076846027e+03 3.794629812359916698e+00 1.473163068672521045e-02
3.744694132255923705e+03 3.774235753297954687e+00 1.341473360174262087e-02
3.748438826388181042e+03 3.749117842425619518e+00 1.233382830849162268e-02
3.752187265214570289e+03 3.728513538796913274e+00 1.238525951611376373e-02
3.755939452479786269e+03 3.707337082403402650e+00 1.178143930560597574e-02
3.759695391932267285e+03 3.688824637433440135e+00 1.115019410949638981e-02
3.763455087324201031e+03 3.675307317545372765e+00 1.100512671274102121e-02
3.767218542411526414e+03 3.664304384779777823e+00 1.110216614468173199e-02
3.770985760953939007e+03 3.650966876259944094e+00 1.068698960765117334e-02
3.774756746714894234e+03 3.640392921934280324e+00 1.091185265035501430e-02
3.778531503461610555e+03 3.631052362915341725e+00 1.160596227415445179e-02
3.782310034965073100e+03 3.622894010971466905e+00 1.300725885906609328e-02
3.786092345000039586e+03 3.609141415954593590e+00 1.373367802504261992e-02
3.789878437345040766e+03 3.600921908094990798e+00 1.384983617190057616e-02
3.793668315782387253e+03 3.598894852725014637e+00 1.311409650137274063e-02
3.797461984098170888e+03 3.590093282055308865e+00 1.258860667330689159e-02
3.801259446082270188e+03 3.572059684827487480e+00 1.240295159128536502e-02
3.805060705528353537e+03 3.556746412676425884e+00 1.193595205987399953e-02
3.808865766233883278e+03 3.547795916770625890e+00 1.136359248278610151e-02
3.812674632000118436e+03 3.534054779959602044e+00 1.007585430527123578e-02
3.816487306632119726e+03 3.520971771126764960e+00 9.821156941954883174e-03
3.820303793938753188e+03 3.510489509070993552e+00 9.759340611085630043e-03
3.824124097732693372e+03 3.497946205040932899e+00 9.706898799065531019e-03
3.827948221830427428e+03 3.484983595013505742e+00 9.836805299316875653e-03
3.831776170052258749e+03 3.474141878716317411e+00 1.007461519635914800e-02
3.835607946222312421e+03 3.469804787131338664e+00 9.893822908217062354e-03
3.839443554168536139e+03 3.464108116054402053e+00 9.468345576282439710e-03
3.843282997722705659e+03 3.465327382068425610e+00 9.887100553148498588e-03
3.847126280720429804e+03 3.465400730317407696e+00 9.675936447840500360e-03
3.850973407001151372e+03 3.466019099799732661e+00 9.642499073385935038e-03
3.854824380408153957e+03 3.464344656468043127e+00 9.637079304793445475e-03
3.858679204788563311e+03 3.455775803324239170e+00 9.785226660249410000e-03
3.862537883993353262e+03 3.448564274121606044e+00 9.468366713369136961e-03
3.866400421877347981e+03 3.441835443320747867e+00 9.855616853525700841e-03
3.870266822299226533e+03 3.432622221094537629e+00 1.045927665242701692e-02
3.874137089121526969e+03 3.423951759629217495e+00 1.059455843017972736e-02
3.878011226210649966e+03 3.419916729799087118e+00 1.055218891096367656e-02
3.881889237436861549e+03 3.419484092575936440e+00 1.019622808287655447e-02
3.885771126674299921e+03 3.414881898750679490e+00 1.009639625226376597e-02
3.889656897800975457e+03 3.406856266211467865e+00 9.895846019003038535e-03
3.893546554698777527e+03 3.402365780241189963e+00 1.043010292825133356e-02
3.897440101253477678e+03 3.395927358045438549e+00 1.051064560759876025e-02
3.901337541354732366e+03 3.389999410689584547e+00 1.067234678801471000e-02
3.905238878896088409e+03 3.382653315808869632e+00 1.005474792723833576e-02
3.909144117774985716e+03 3.377810245538015455e+00 9.885666772385476309e-03
3.913053261892762293e+03 3.367731214788566962e+00 1.008771686615171290e-02
3.916966315154656058e+03 3.352835351491158189e+00 1.148758968917260731e-02
3.920883281469812118e+03 3.341320886495890541e+00 1.079531712086232928e-02
3.924804164751283224e+03 3.331971842762613267e+00 1.034624691406284790e-02
3.928728968916035683e+03 3.317023020154999280e+00 1.028104839332828063e-02
3.932657697884953450e+03 3.305545024903214557e+00 1.068733658556633888e-02
3.936590355582839493e+03 3.295615119834329310e+00 1.059674716838350170e-02
3.940526945938423523e+03 3.289148108081863420e+00 1.022506835909380539e-02
3.944467472884363360e+03 3.278153595138701970e+00 9.816703240724193591e-03
3.948411940357249023e+03 3.268733850969947063e+00 9.885249270286403100e-03
3.952360352297607733e+03 3.255952722830862456e+00 1.098029510921122442e-02
3.956312712649906643e+03 3.241422596213018981e+00 1.135944001913078566e-02
3.960269025362557841e+03 3.228025944320733753e+00 1.108836854905126054e-02
3.964229294387921527e+03 3.221781476847914938e+00 1.070706534306806006e-02
3.968193523682310570e+03 3.215888972939056512e+00 1.106388406170525328e-02
3.972161717205994591e+03 3.216973127984823488e+00 1.172304485792196108e-02
3.976133878923201792e+03 3.208557160200465219e+00 1.145735422629700490e-02
3.980110012802126221e+03 3.204765828760846258e+00 1.151916099986232365e-02
3.984090122814929600e+03 3.210445220038945724e+00 1.049114556088416930e-02
3.988074212937745870e+03 3.203195454370467932e+00 1.141525239570994298e-02
3.992062287150684824e+03 3.201873779931104558e+00 1.135084555339280384e-02
3.996054349437837118e+03 3.196579822595411180e+00 1.112549158318650901e-02
4.000050403787276082e+03 3.188709451254327920e+00 1.030969507309822085e-02
4.004050454191064546e+03 3.181671156748381080e+00 9.809597080129971863e-03
4.008054504645257111e+03 3.173542272417203769e+00 9.759743919896313180e-03
4.012062559149903791e+03 3.166331716012506181e+00 9.660854674922883176e-03
4.016074621709055009e+03 3.164947382989781843e+00 9.405842525016897340e-03
4.020090696330765240e+03 3.159594688870456025e+00 9.376062287287371955e-03
4.024110787027097558e+03 3.157413317356343008e+00 9.470373540544725979e-03
4.028134897814125907e+03 3.154813893706323480e+00 9.451206672569881923e-03
4.032163032711941469e+03 3.145788807085672545e+00 9.515899726121908667e-03
4.036195195744654484e+03 3.144606593859954558e+00 9.436934884665255235e-03
4.040231390940400615e+03 3.132645139951546920e+00 8.253310337659911997e-03
4.044271622331342314e+03 3.128181713324384106e+00 8.301233601114075059e-03
4.048315893953675186e+03 3.123719001658252115e+00 8.437200192784969147e-03
4.052364209847629809e+03 3.121130349523680625e+00 8.152909721050333874e-03
4.056416574057479011e+03 3.118230926903838185e+00 7.886784721533056375e-03
4.060472990631537868e+03 3.117211392187380969e+00 7.611862727589356441e-03
4.064533463622170530e+03 3.112396018234165229e+00 6.813087223561493759e-03
4.068597997085794304e+03 3.104311637754955555e+00 6.780131245970310097e-03
4.072666595082881486e+03 3.098096350989596459e+00 6.803363693695639765e-03
4.076739261677965715e+03 3.094564092002844102e+00 6.784523580480070030e-03
4.080816000939644709e+03 3.091570151368971953e+00 6.795102571940834016e-03
4.084896816940585722e+03 3.089414209635507280e+00 6.744869271910451311e-03
4.088981713757527814e+03 3.086407376260063451e+00 6.935202091319526280e-03
4.093070695471286854e+03 3.083715205256076786e+00 7.341205850603393229e-03
4.097163766166759160e+03 3.082718790612303028e+00 7.628979752778048372e-03
4.101260929932927866e+03 3.072133581363564403e+00 7.943822534740739225e-03
4.105362190862862008e+03 3.065422340227029085e+00 6.997214878612064044e-03
4.109467553053726078e+03 3.054713374088855016e+00 6.981633416684331246e-03
4.113577020606780934e+03 3.044049501240475131e+00 6.203726747703105712e-03
4.117690597627389252e+03 3.027793040793559154e+00 6.318503137866345563e-03
4.121808288225018259e+03 3.007928515708267803e+00 7.195444177751413040e-03
4.125930096513244280e+03 2.986039579503326991e+00 7.033170648765111992e-03
4.130056026609759101e+03 2.968165877618252235e+00 6.760815922001881841e-03
4.134186082636369974e+03 2.953217106650425805e+00 6.730101793527047509e-03
4.138320268719007800e+03 2.947590363864216023e+00 6.780260206098930216e-03
4.142458588987728035e+03 2.939883828448842884e+00 6.265474262725377955e-03
4.146601047576717065e+03 2.932340586327416343e+00 5.758739560547442363e-03
4.150747648624294925e+03 2.926745472367141776e+00 5.556842973004220802e-03
4.154898396272920763e+03 2.920464677989277558e+00 6.241525955099872826e-03
4.159053294669195566e+03 2.913902453429693562e+00 6.293033625576957384e-03
4.163212347963865795e+03 2.903444957924323333e+00 6.663987221054671652e-03
4.167375560311830668e+03 2.895699611120049255e+00 6.329403045229722684e-03
4.171542935872143971e+03 2.889829882862748445e+00 6.543335847733829265e-03
4.175714478808017702e+03 2.878068740619349253e+00 6.835493961518737671e-03
4.179890193286827525e+03 2.869010707337841914e+00 6.054512713175998033e-03
4.184070083480115500e+03 2.867310947057553960e+00 7.402752691025237322e-03
4.188254153563597356e+03 2.860712799553412733e+00 7.612371861150867350e-03
4.192442407717161586e+03 2.848747325868595137e+00 8.912125322607244646e-03
4.196634850124880359e+03 2.846563754313813810e+00 9.075106031230087411e-03
4.200831484975006788e+03 2.843148915418749034e+00 8.927521967801827288e-03
4.205032316459983122e+03 2.839045959374224992e+00 8.948811027225150178e-03
4.209237348776444378e+03 2.843472936993969302e+00 9.146958446926624353e-03
4.213446586125221984e+03 2.844113107526526907e+00 9.526692675439610292e-03
4.217660032711349231e+03 2.846077910513190812e+00 9.442214516954792330e-03
4.221877692744061278e+03 2.842644065615411719e+00 9.976488690501116724e-03
4.226099570436806971e+03 2.838403206228283349e+00 9.667175397146954285e-03
4.230325670007245208e+03 2.835052335262941980e+00 1.004202424181339232e-02
4.234555995677254032e+03 2.826387187094940412e+00 9.632023307960776645e-03
4.238790551672932452e+03 2.818280458572330449e+00 9.524773986792332142e-03
4.243029342224606808e+03 2.806673563512785297e+00 9.797210555297666129e-03
4.247272371566832589e+03 2.797314515180508554e+00 9.574414733992668569e-03
4.251519643938400804e+03 2.790057029924358556e+00 9.754685345385484888e-03
4.255771163582340705e+03 2.783259163574815176e+00 9.040890724902168885e-03
4.260026934745924336e+03 2.781872695057797440e+00 9.382062005078085562e-03
4.264286961680671993e+03 2.784606459695528891e+00 8.096955517543191760e-03
4.268551248642354039e+03 2.788490408884023442e+00 7.278443838764416321e-03
4.272819799890998183e+03 2.785021917714507023e+00 7.520716877796915223e-03
4.277092619690890388e+03 2.783688580396579404e+00 6.986983405941699088e-03
4.281369712310583054e+03 2.778890321045244693e+00 6.891845643770898311e-03
4.285651082022895025e+03 2.771533956020479028e+00 6.581742432147355895e-03
4.289936733104918858e+03 2.767745596451710810e+00 6.221261024715791545e-03
4.294226669838025373e+03 2.762698030580706732e+00 6.270990875930380903e-03
4.298520896507864563e+03 2.755077282904210279e+00 6.299230365055186014e-03
4.302819417404373780e+03 2.742721329459171020e+00 6.116044087779375950e-03
4.307122236821779552e+03 2.737730761852831485e+00 6.080586230838440180e-03
4.311429359058603040e+03 2.736397165019721189e+00 5.753720866294294474e-03
4.315740788417662770e+03 2.733877470239340024e+00 5.847930985242971724e-03
4.320056529206081905e+03 2.732431555558799463e+00 5.862077135754073173e-03
4.324376585735290064e+03 2.733628822341725773e+00 6.517103302695459628e-03
4.328700962321026054e+03 2.735718104966743613e+00 6.473136944710531152e-03
4.333029663283348782e+03 2.737474989459526942e+00 6.609643735531759746e-03
4.337362692946633615e+03 2.732473706952915471e+00 6.695874073238582830e-03
4.341700055639581478e+03 2.726522713165837608e+00 6.631080716157410418e-03
4.346041755695222491e+03 2.717363491088132132e+00 6.575788419450575781e-03
4.350387797450919606e+03 2.708674945433389603e+00 6.556997851465539741e-03
4.354738185248371337e+03 2.697314346657090578e+00 6.557652886122413045e-03
4.359092923433621763e+03 2.681306561846803493e+00 5.906231660865846056e-03
4.363452016357056891e+03 2.664080341632391047e+00 5.883811959854330642e-03
4.367815468373414660e+03 2.646224439781557525e+00 5.943462574002863520e-03
4.372183283841789489e+03 2.633894495881954345e+00 5.881558308717661082e-03
4.376555467125633186e+03 2.622664203823900753e+00 6.028651280203837885e-03
4.380932022592760404e+03 2.613615405501330979e+00 6.093279373836717715e-03
4.385312954615354101e+03 2.602436515386989502e+00 5.945166448803931511e-03
4.389698267569970994e+03 2.596846533758878195e+00 5.793976278739518607e-03
4.394087965837542470e+03 2.593011925668089912e+00 5.961452929182834738e-03
4.398482053803381859e+03 2.586246520268796978e+00 5.875400236488856516e-03
4.402880535857186260e+03 2.579323833165361179e+00 5.747279275789305558e-03
4.407283416393044718e+03 2.574125942655645982e+00 5.548559769390060126e-03
4.411690699809440048e+03 2.567154243994274498e+00 5.634804719365235116e-03
4.416102390509250654e+03 2.562713731188041688e+00 5.706622730643718874e-03
4.420518492899761441e+03 2.552595194486072305e+00 5.403095861902342152e-03
4.424939011392662906e+03 2.545085290662609356e+00 5.500301606197794194e-03
4.429363950404056595e+03 2.536628553024754318e+00 4.975639635169492106e-03
4.433793314354462382e+03 2.530451629848524675e+00 4.987958336189267199e-03
4.438227107668818462e+03 2.527440373081465186e+00 4.961636424908572041e-03
4.442665334776488635e+03 2.526326093745739243e+00 4.997309748549678965e-03
4.447108000111265937e+03 2.524544080122091749e+00 5.370957548955052410e-03
4.451555108111379013e+03 2.522817438941922674e+00 5.360726394366833146e-03
4.456006663219492111e+03 2.525524952181989580e+00 5.171621510191177010e-03
4.460462669882713271e+03 2.525251053586883287e+00 5.099709826712883927e-03
4.464923132552597053e+03 2.529453948320912193e+00 4.630967735954046559e-03
4.469388055685150903e+03 2.529437444106347854e+00 4.338435982939617581e-03
4.473857443740837880e+03 2.528862846943008780e+00 4.215786858998738472e-03
4.478331301184580298e+03 2.528482170953092023e+00 3.613100303288328645e-03
4.482809632485766087e+03 2.530058199621747050e+00 3.554603169627921014e-03
4.487292442118253348e+03 2.530543769119477648e+00 3.799584878243023392e-03
4.491779734560373072e+03 2.531529560969596471e+00 3.911362684749776671e-03
4.496271514294934605e+03 2.530465842500009721e+00 4.247858953711968096e-03
4.500767785809231100e+03 2.528812644775962681e+00 4.362417153128858929e-03
4.505268553595042249e+03 2.523387397544443633e+00 4.835611691903807761e-03
