# starting wavelength: 3004.776
# ending wavelength: 9794.148
# wav flux eflux
3.005517802315240260e+03 8.893664038515137094e+00 8.350211400489393476e-02
3.008523320117556523e+03 8.972431379256365247e+00 8.260757038518286299e-02
3.011531843437674979e+03 9.079095481141354895e+00 8.893145528212485773e-02
3.014543375281113640e+03 9.152665912143675087e+00 8.649224134007367504e-02
3.017557918656395941e+03 9.204269379835402276e+00 8.621326282868060908e-02
3.020575476575053472e+03 9.210010277728519767e+00 8.884406441691797274e-02
3.023596052051629158e+03 9.236014850096603723e+00 8.598165001220654802e-02
3.026619648103681811e+03 9.251482223903918722e+00 8.836972245693182348e-02
3.029646267751786581e+03 9.301308025643489685e+00 8.660315648220001661e-02
3.032675914019539505e+03 9.328959572220600904e+00 8.679422945703550718e-02
3.035708589933559779e+03 9.366517690126416440e+00 8.505840521630390894e-02
3.038744298523494763e+03 9.375118480136736210e+00 8.494346164586434600e-02
3.041783042822019070e+03 9.377414029244539151e+00 8.347298075069212175e-02
3.044824825864842296e+03 9.385437906601639568e+00 8.234845424644200718e-02
3.047869650690708113e+03 9.367101990251441634e+00 8.211309481380373032e-02
3.050917520341399722e+03 9.318649015468036367e+00 8.056659490151649172e-02
3.053968437861742132e+03 9.275486410899484113e+00 8.073743592719535844e-02
3.057022406299604881e+03 9.204284549115923753e+00 7.825865717953672807e-02
3.060079428705905229e+03 9.139593203592999870e+00 7.793483200127861166e-02
3.063139508134612242e+03 9.081795502445972446e+00 7.659227759165032623e-02
3.066202647642748161e+03 9.039856469092597990e+00 7.386236247181283965e-02
3.069268850290391583e+03 8.999197149351521929e+00 7.450823494116476375e-02
3.072338119140682920e+03 8.955904046815481578e+00 7.196113183988382678e-02
3.075410457259824852e+03 8.886488880064939977e+00 7.440306983106609318e-02
3.078485867717085512e+03 8.819605889530754084e+00 7.216792332679729249e-02
3.081564353584803939e+03 8.770671950435611208e+00 7.071730659590633183e-02
3.084645917938389630e+03 8.725809726273944023e+00 6.974015238009641238e-02
3.087730563856328899e+03 8.733624061117135184e+00 7.102319494727661608e-02
3.090818294420186248e+03 8.739974127474392063e+00 7.312946693902014350e-02
3.093909112714607545e+03 8.750937014909796474e+00 6.895578498098899056e-02
3.097003021827323209e+03 8.743528314589021022e+00 6.845854868199298393e-02
3.100100024849151396e+03 8.706310972479982979e+00 6.808271522993626645e-02
3.103200124874001631e+03 8.634422583309303789e+00 6.699067375444830996e-02
3.106303324998876633e+03 8.583183614963367347e+00 6.792325111269749416e-02
3.109409628323876859e+03 8.519239549669681111e+00 6.970094312391234004e-02
3.112519037952201415e+03 8.492268764952795479e+00 7.037540509524509158e-02
3.115631556990154877e+03 8.491261021303770917e+00 6.847738646716031163e-02
3.118747188547145925e+03 8.492187225373871939e+00 6.759264625282010441e-02
3.121865935735694165e+03 8.470024040866386272e+00 6.581338315922975746e-02
3.124987801671431043e+03 8.447243107579572197e+00 6.177768563749282821e-02
3.128112789473103476e+03 8.445915496513448417e+00 6.049468038705625716e-02
3.131240902262577492e+03 8.452594299571662972e+00 5.691182662530226005e-02
3.134372143164840963e+03 8.443038470504431459e+00 5.746710997410364730e-02
3.137506515308006783e+03 8.479332195213750367e+00 5.949782087978459921e-02
3.140644021823316052e+03 8.515528598930234949e+00 5.881010044592716035e-02
3.143784665845140353e+03 8.550556346754410342e+00 5.901936878511981899e-02
3.146928450510986750e+03 8.586050268985331968e+00 5.759125932387766655e-02
3.150075378961498700e+03 8.624298073437492107e+00 5.662548915783041648e-02
3.153225454340461056e+03 8.628031839719685792e+00 5.507795662071378329e-02
3.156378679794802792e+03 8.629867549841844010e+00 5.560360588223112188e-02
3.159535058474598372e+03 8.644904742921594831e+00 5.384505743898791719e-02
3.162694593533074112e+03 8.607859104251724958e+00 5.480576126737402715e-02
3.165857288126608182e+03 8.598309497748491737e+00 5.475971586011917774e-02
3.169023145414736064e+03 8.556990267730945732e+00 5.523390912062374480e-02
3.172192168560151458e+03 8.510443655329524404e+00 5.593851804582637699e-02
3.175364360728712654e+03 8.449464096774438104e+00 5.153084360780931655e-02
3.178539725089442527e+03 8.369752902681289797e+00 4.419932562251802088e-02
3.181718264814533086e+03 8.303331153085894201e+00 4.437536758934809700e-02
3.184899983079348658e+03 8.231467997711645168e+00 4.262950265505345560e-02
3.188084883062429071e+03 8.159858628410923131e+00 4.231730977441770791e-02
3.191272967945492383e+03 8.106549460628169612e+00 3.969929689114144039e-02
3.194464240913438971e+03 8.050838281159641951e+00 3.837561189194203110e-02
3.197658705154353811e+03 7.990923321740160290e+00 3.803164279339738690e-02
3.200856363859509202e+03 7.940891314653754307e+00 3.713646391767484040e-02
3.204057220223369768e+03 7.881630617394680627e+00 3.696369712734596386e-02
3.207261277443593826e+03 7.833843087794462257e+00 3.923863095308567639e-02
3.210468538721038840e+03 7.771049799541587255e+00 3.799225427405095168e-02
3.213679007259760965e+03 7.710806480680676422e+00 3.813115460910198457e-02
3.216892686267021418e+03 7.659003709537225646e+00 3.696221786975988771e-02
3.220109578953289656e+03 7.607568157965919120e+00 3.715273712658689192e-02
3.223329688532243836e+03 7.573052702335226982e+00 3.634049693505850970e-02
3.226553018220777176e+03 7.522566870083366553e+00 3.545886598446574417e-02
3.229779571238999324e+03 7.468925230498718371e+00 3.570778863905665901e-02
3.233009350810239084e+03 7.407520259947410146e+00 3.420136648351222025e-02
3.236242360161050783e+03 7.366355674391887653e+00 3.220895751798391604e-02
3.239478602521212906e+03 7.311907262747636693e+00 3.202562538184167834e-02
3.242718081123734919e+03 7.265413517370222785e+00 3.186107781152446028e-02
3.245960799204859995e+03 7.224547991178129180e+00 3.184977257897619873e-02
3.249206760004065927e+03 7.185278961545942700e+00 3.050261932227789352e-02
3.252455966764071036e+03 7.136995877039926661e+00 3.104101326544491182e-02
3.255708422730835991e+03 7.102869845432408624e+00 3.023114334955703808e-02
3.258964131153567905e+03 7.061510381255610369e+00 2.967886791426746496e-02
3.262223095284722604e+03 7.020328281524387037e+00 2.966216814901245780e-02
3.265485318380008266e+03 6.973997501322862114e+00 2.902076183827657224e-02
3.268750803698389518e+03 6.945290754068199846e+00 2.960136770893396010e-02
3.272019554502088795e+03 6.915152990148863310e+00 2.971140362162395451e-02
3.275291574056592253e+03 6.872054441811352277e+00 2.996823064020314939e-02
3.278566865630649772e+03 6.846133733121614995e+00 2.951282114527246231e-02
3.281845432496281319e+03 6.819809782355914507e+00 2.886983386225899784e-02
3.285127277928778767e+03 6.778923611147010142e+00 2.741261145359033188e-02
3.288412405206708627e+03 6.744683828934774361e+00 2.700349774528619864e-02
3.291700817611916591e+03 6.720037664850879722e+00 2.711543642579222410e-02
3.294992518429529355e+03 6.706802478025289282e+00 2.792873875365814787e-02
3.298287510947960072e+03 6.682140414689577312e+00 2.879246892869501834e-02
3.301585798458909267e+03 6.680563816164322155e+00 2.845827429105686132e-02
3.304887384257369376e+03 6.652267313970271267e+00 2.680169229063256858e-02
3.308192271641627485e+03 6.634968606784922507e+00 2.653818141357525834e-02
3.311500463913270323e+03 6.622024364513149131e+00 2.627722275417759129e-02
3.314811964377184722e+03 6.611314307359249298e+00 2.529141079457777885e-02
3.318126776341563072e+03 6.603254866362690656e+00 2.551261449739499962e-02
3.321444903117905596e+03 6.587409447360328407e+00 2.633809549248373669e-02
3.324766348021024896e+03 6.584642507982787052e+00 2.640423929595733452e-02
3.328091114369046863e+03 6.566716635976105110e+00 2.585389358025484696e-02
3.331419205483417045e+03 6.553328915337821137e+00 2.609507591024182172e-02
3.334750624688901553e+03 6.544561217317204083e+00 2.602046658741917137e-02
3.338085375313591612e+03 6.516780617291327182e+00 2.674502541225797295e-02
3.341423460688906289e+03 6.499278220438634790e+00 2.678967974642245189e-02
3.344764884149596128e+03 6.467987989567344442e+00 2.626870170603706062e-02
3.348109649033746791e+03 6.447867506613280675e+00 2.645313430934127796e-02
3.351457758682781787e+03 6.427112915350052802e+00 2.627515209088147202e-02
3.354809216441465651e+03 6.405487027985859783e+00 2.567427518136360109e-02
3.358164025657908041e+03 6.371576278221366962e+00 2.598681201669733251e-02
3.361522189683567376e+03 6.354839037022981252e+00 2.400872821606320554e-02
3.364883711873251741e+03 6.320807778633763974e+00 2.344805632243418189e-02
3.368248595585126168e+03 6.286922675436854568e+00 2.461226138848180561e-02
3.371616844180712633e+03 6.260639886967069856e+00 2.411837196740641148e-02
3.374988461024894150e+03 6.211900882184209216e+00 2.389521784335697785e-02
3.378363449485920228e+03 6.172465309300344316e+00 2.432916315389372502e-02
3.381741812935407324e+03 6.153060491329971349e+00 2.469786115609088131e-02
3.385123554748343849e+03 6.125333470689589888e+00 2.510651967211930888e-02
3.388508678303093347e+03 6.103257537034135538e+00 2.686951150573657285e-02
3.391897186981397681e+03 6.083967033342491781e+00 2.522244646692422404e-02
3.395289084168380214e+03 6.057811921524272947e+00 2.680863596318974404e-02
3.398684373252549449e+03 6.036162749944086414e+00 2.690949219356424116e-02
3.402083057625803121e+03 5.995236963505119476e+00 2.783767062125187472e-02
3.405485140683430018e+03 5.969041111721302251e+00 2.767631955580321726e-02
3.408890625824114522e+03 5.926353880895894655e+00 2.759869947751131258e-02
3.412299516449939802e+03 5.890074446461353475e+00 2.838413488748205149e-02
3.415711815966390986e+03 5.855849750606624049e+00 2.884310840351756930e-02
3.419127527782358356e+03 5.838910462476634144e+00 2.869436879185756004e-02
3.422546655310141887e+03 5.813730436144349589e+00 2.863666422006467746e-02
3.425969201965453522e+03 5.791017555124437166e+00 2.904859897509858707e-02
3.429395171167419903e+03 5.778845876853876184e+00 2.854293458966952052e-02
3.432824566338588284e+03 5.778270610827714648e+00 3.012093434438938705e-02
3.436257390904928343e+03 5.762417364788717578e+00 3.011760108266753333e-02
3.439693648295834464e+03 5.753450357532885917e+00 3.000841486003393704e-02
3.443133341944131189e+03 5.748683283617170403e+00 2.939939864256019969e-02
3.446576475286076402e+03 5.731596543974977642e+00 3.066341496511651790e-02
3.450023051761363604e+03 5.709553996556508970e+00 3.163276479504086719e-02
3.453473074813126004e+03 5.690803119679237021e+00 3.108626674322020542e-02
3.456926547887940615e+03 5.682693737341266704e+00 3.127606657463938983e-02
3.460383474435829612e+03 5.653852998731485613e+00 2.840989660874268519e-02
3.463843857910266706e+03 5.662566482209410168e+00 3.040037584702374313e-02
3.467307701768178049e+03 5.653910460904284285e+00 3.049166316359731149e-02
3.470775009469947236e+03 5.666382019584935925e+00 2.890254356361661447e-02
3.474245784479418489e+03 5.666379128689418287e+00 2.826682493097341931e-02
3.477720030263898934e+03 5.656755822724637284e+00 2.958389407100622814e-02
3.481197750294164052e+03 5.669806791867512352e+00 2.657950901868640775e-02
3.484678948044459503e+03 5.669494345035261951e+00 2.551234100051441231e-02
3.488163626992504760e+03 5.670172595744696231e+00 2.735174747639594617e-02
3.491651790619498570e+03 5.664499957523278617e+00 2.626076011263141913e-02
3.495143442410119405e+03 5.659549658099117586e+00 2.482855706439236754e-02
3.498638585852530468e+03 5.675276909007855863e+00 2.619061452894560355e-02
3.502137224438384237e+03 5.668280794253569788e+00 2.625794919588003706e-02
3.505639361662823831e+03 5.661516583564112359e+00 2.613033542215718527e-02
3.509145001024487556e+03 5.651812196512564945e+00 2.568062968576471580e-02
3.512654146025513455e+03 5.659476580045107674e+00 2.554609589948670170e-02
3.516166800171540217e+03 5.658565355122872731e+00 2.467838722758609535e-02
3.519682966971712631e+03 5.679644358501371393e+00 2.397667414660225801e-02
3.523202649938685681e+03 5.679463361886766926e+00 2.560826796192213622e-02
3.526725852588625457e+03 5.672302392767438306e+00 2.499899921469402042e-02
3.530252578441215064e+03 5.655169059568249779e+00 2.720822564049564865e-02
3.533782831019657806e+03 5.651181019346338985e+00 2.727572807168837307e-02
3.537316613850678550e+03 5.646841886551652756e+00 2.611874994767013694e-02
3.540853930464530094e+03 5.662167684586867367e+00 2.544051052856855649e-02
3.544394784394995895e+03 5.688527243197479599e+00 2.711826231460781611e-02
3.547939179179392340e+03 5.738490255879510116e+00 3.049400711800831498e-02
3.551487118358572843e+03 5.767211283313967485e+00 3.016686434048129750e-02
3.555038605476932389e+03 5.787363657288725705e+00 2.865537387188020479e-02
3.558593644082410719e+03 5.804233023540725789e+00 2.928838973323343031e-02
3.562152237726494150e+03 5.800508703199479754e+00 2.820817141829812247e-02
3.565714389964221937e+03 5.793956906650218563e+00 2.839841921618647264e-02
3.569280104354187188e+03 5.780633978952004703e+00 2.913936413155341493e-02
3.572849384458542772e+03 5.773192920852767251e+00 2.767080582524881344e-02
3.576422233843002232e+03 5.726965315061694817e+00 3.143213775067670718e-02
3.579998656076846601e+03 5.687391051131015729e+00 2.928585762784001109e-02
3.583578654732924406e+03 5.653721830093065392e+00 2.839639843615478915e-02
3.587162233387658489e+03 5.634189718601029462e+00 2.738750071608317752e-02
3.590749395621047370e+03 5.642292892499720658e+00 3.026820454348275180e-02
3.594340145016669794e+03 5.644252641659543102e+00 3.028929513861454773e-02
3.597934485161687462e+03 5.641409911730386639e+00 2.888648880760265672e-02
3.601532419646850485e+03 5.639325821474604261e+00 2.887423880656138017e-02
3.605133952066498296e+03 5.642725175520975966e+00 2.914066393803566718e-02
3.608739086018566013e+03 5.640584941108517825e+00 2.897941410773002824e-02
3.612347825104585809e+03 5.635760362081588148e+00 2.855269971802543508e-02
3.615960172929691907e+03 5.627193801672308204e+00 2.837124792221313793e-02
3.619576133102622407e+03 5.621655066552430746e+00 2.831625193861361106e-02
3.623195709235726554e+03 5.607851485270689551e+00 2.625632102644092150e-02
3.626818904944963379e+03 5.594455842583721861e+00 2.453227364621737155e-02
3.630445723849909427e+03 5.588195610035554317e+00 2.519882887205771721e-02
3.634076169573760581e+03 5.591655840094130525e+00 2.609277532179117218e-02
3.637710245743335690e+03 5.602010695125955841e+00 2.652955262404703418e-02
3.641347955989080219e+03 5.604747948601709773e+00 2.446295802431478969e-02
3.644989303945070333e+03 5.579726009875593640e+00 2.504058003303046356e-02
3.648634293249016537e+03 5.544042912666368395e+00 2.715407752644490025e-02
3.652282927542266862e+03 5.516779275021482576e+00 2.760922317281622879e-02
3.655935210469810499e+03 5.498006145527662980e+00 2.796418233293238367e-02
3.659591145680281443e+03 5.485689007622998048e+00 2.741004190342726313e-02
3.663250736825963031e+03 5.475241596111005471e+00 2.679115962894546010e-02
3.666913987562790226e+03 5.456932557378267212e+00 2.550186751838944693e-02
3.670580901550354156e+03 5.448168919266819010e+00 2.674584417019073776e-02
3.674251482451905758e+03 5.454360766174108477e+00 2.533744260559857298e-02
3.677925733934358959e+03 5.457123495141706471e+00 2.602152930748061546e-02
3.681603659668294313e+03 5.458623461550426548e+00 2.503430993921818004e-02
3.685285263327964003e+03 5.450723695024981552e+00 2.521037422505317468e-02
3.688970548591293209e+03 5.449254467314648132e+00 2.516619975747413224e-02
3.692659519139885560e+03 5.425518832947945569e+00 2.862977123053216805e-02
3.696352178659026777e+03 5.417651212125724314e+00 2.797848719319114344e-02
3.700048530837686940e+03 5.434132872429187522e+00 3.457279412642631083e-02
3.703748579368525952e+03 5.429169060626999332e+00 3.452743306467426221e-02
3.707452327947895355e+03 5.408278523611044442e+00 3.436618883157448179e-02
3.711159780275844696e+03 5.388876318658995856e+00 3.423154338590282675e-02
3.714870940056121526e+03 5.375891555780385467e+00 3.426084593022258457e-02
3.718585810996179134e+03 5.339221292516105777e+00 3.482563937946420163e-02
3.722304396807176545e+03 5.331246641928700569e+00 3.388928682551146931e-02
3.726026701203984885e+03 5.328729787274437690e+00 3.336013009793179634e-02
3.729752727905190113e+03 5.333714777255665673e+00 3.358671788005049286e-02
3.733482480633096657e+03 5.337995918213265689e+00 3.406517549184692045e-02
3.737215963113731050e+03 5.346571552390244619e+00 3.402476141180939273e-02
3.740953179076846027e+03 5.362435159613667679e+00 3.310294242419407895e-02
3.744694132255923705e+03 5.366644975839846232e+00 3.192146189141411433e-02
3.748438826388181042e+03 5.359778763949834435e+00 3.299583543552148113e-02
3.752187265214570289e+03 5.353984710589907436e+00 3.128108756059108653e-02
3.755939452479786269e+03 5.348830495193734436e+00 3.116655366831210319e-02
3.759695391932267285e+03 5.316261444794115221e+00 3.094905183204098992e-02
3.763455087324201031e+03 5.260890211430272245e+00 2.448137474633895957e-02
3.767218542411526414e+03 5.216153815649473557e+00 2.392362146099481085e-02
3.770985760953939007e+03 5.197048504645010780e+00 1.912203958815205870e-02
3.774756746714894234e+03 5.155492956332595078e+00 1.922908469794177774e-02
3.778531503461610555e+03 5.109398131501599494e+00 1.990530589551750898e-02
3.782310034965073100e+03 5.060527479666740547e+00 1.935845824788461067e-02
3.786092345000039586e+03 5.025361292078639686e+00 1.909624940714755442e-02
3.789878437345040766e+03 4.978591496726483712e+00 1.704409756431674375e-02
3.793668315782387253e+03 4.949356637340982523e+00 1.667208079597217243e-02
3.797461984098170888e+03 4.914393860725657426e+00 1.512009259551612243e-02
3.801259446082270188e+03 4.899644290519547418e+00 1.489975093595886750e-02
3.805060705528353537e+03 4.895323884150932336e+00 1.464313583606093212e-02
3.808865766233883278e+03 4.894450435828069601e+00 1.495995769961479087e-02
3.812674632000118436e+03 4.889760507722329841e+00 1.530873071984866288e-02
3.816487306632119726e+03 4.891069544332323105e+00 1.443492422519229018e-02
3.820303793938753188e+03 4.890665663055472123e+00 1.516513717523101760e-02
3.824124097732693372e+03 4.873735709661643156e+00 1.443094609858648104e-02
3.827948221830427428e+03 4.867788126586551911e+00 1.462401271214084329e-02
3.831776170052258749e+03 4.848167124915768511e+00 1.637012269371798320e-02
3.835607946222312421e+03 4.842397070145696425e+00 1.629267277383708232e-02
3.839443554168536139e+03 4.834013284682781908e+00 1.605338741500201075e-02
3.843282997722705659e+03 4.825156735086299165e+00 1.571025993877076324e-02
3.847126280720429804e+03 4.814421223405043193e+00 1.643372807132682800e-02
3.850973407001151372e+03 4.808844405173012149e+00 1.718023274578280718e-02
3.854824380408153957e+03 4.803696928253506471e+00 1.835700713626280817e-02
3.858679204788563311e+03 4.792466040427183493e+00 1.970070829319807426e-02
3.862537883993353262e+03 4.773119690570590379e+00 2.172652325275242421e-02
3.866400421877347981e+03 4.761916018218225410e+00 2.138606730558905572e-02
3.870266822299226533e+03 4.751589738095894688e+00 2.124892813736288869e-02
3.874137089121526969e+03 4.739528571620861719e+00 2.135472489132158105e-02
3.878011226210649966e+03 4.730191917759921871e+00 2.116912190029536511e-02
3.881889237436861549e+03 4.719516329962067935e+00 2.119760730367483206e-02
3.885771126674299921e+03 4.704839490532511270e+00 2.064771850204689257e-02
3.889656897800975457e+03 4.691454691976435498e+00 2.080390855036894776e-02
3.893546554698777527e+03 4.672283185294231700e+00 2.081871843870186298e-02
3.897440101253477678e+03 4.651932315549992758e+00 2.105756036450574104e-02
3.901337541354732366e+03 4.630592500048177129e+00 2.148752547274185298e-02
3.905238878896088409e+03 4.591579872469788270e+00 2.052723253569916501e-02
3.909144117774985716e+03 4.571465763509924507e+00 2.124567667990669151e-02
3.913053261892762293e+03 4.540706670517637988e+00 2.147248127890297870e-02
