# starting wavelength: 3249.390
# ending wavelength: 9061.200
# wav flux eflux
3.252455966764071036e+03 1.449230714272111142e-01 2.117100638802289509e-03
3.255708422730835991e+03 1.468818514352658866e-01 1.578535199627368506e-03
3.258964131153567905e+03 1.485987456264143969e-01 1.291403013047267255e-03
3.262223095284722604e+03 1.502949640092033357e-01 1.113192384265327501e-03
3.265485318380008266e+03 1.521490846226404292e-01 9.781012646848448889e-04
3.268750803698389518e+03 1.543075469716271020e-01 7.887769034066803402e-04
3.272019554502088795e+03 1.566198711344363725e-01 6.522751493684465513e-04
3.275291574056592253e+03 1.590591624595370235e-01 5.888720484315020228e-04
3.278566865630649772e+03 1.616164161554272394e-01 5.221321350085306352e-04
3.281845432496281319e+03 1.641552094057898148e-01 4.483734671881642515e-04
3.285127277928778767e+03 1.665885552804861336e-01 3.931819985717406921e-04
3.288412405206708627e+03 1.688146358741391406e-01 3.637051124989965837e-04
3.291700817611916591e+03 1.708910050615196352e-01 3.333405649703237287e-04
3.294992518429529355e+03 1.728177675551768877e-01 3.122944563430291899e-04
3.298287510947960072e+03 1.745897507406539151e-01 2.960355615084098039e-04
3.301585798458909267e+03 1.762753003598919455e-01 3.229080739627700506e-04
3.304887384257369376e+03 1.775238724664833512e-01 3.095545588936294808e-04
3.308192271641627485e+03 1.784238410280142573e-01 2.970896444754373192e-04
3.311500463913270323e+03 1.790182895028986088e-01 2.879147848546790862e-04
3.314811964377184722e+03 1.792596388717874467e-01 3.117697429325376902e-04
3.318126776341563072e+03 1.790229302271348910e-01 4.325042795801507019e-04
3.321444903117905596e+03 1.786762770566135416e-01 4.743587076026136297e-04
3.324766348021024896e+03 1.781791191566789445e-01 4.922078964838321954e-04
3.328091114369046863e+03 1.775105317899252078e-01 4.746905357059057391e-04
3.331419205483417045e+03 1.768407346959025850e-01 4.335829534342270329e-04
3.334750624688901553e+03 1.759810209531695591e-01 4.145449175705617751e-04
3.338085375313591612e+03 1.749824798308864948e-01 4.145623808061317918e-04
3.341423460688906289e+03 1.738118838013022194e-01 4.582612339079170788e-04
3.344764884149596128e+03 1.727536555293858744e-01 4.705999711484003430e-04
3.348109649033746791e+03 1.718697477253717798e-01 4.541022481319451228e-04
3.351457758682781787e+03 1.712760340700194839e-01 4.023490257323717790e-04
3.354809216441465651e+03 1.709109615765805334e-01 3.949871921173480358e-04
3.358164025657908041e+03 1.708948000490462527e-01 3.961640610637927589e-04
3.361522189683567376e+03 1.710326819802541753e-01 3.884418039474409035e-04
3.364883711873251741e+03 1.714784720263582973e-01 3.953673424819747844e-04
3.368248595585126168e+03 1.722651292418488911e-01 4.416863302401736937e-04
3.371616844180712633e+03 1.733815960003605439e-01 5.535988240920989038e-04
3.374988461024894150e+03 1.745707902698047098e-01 6.260658631455772328e-04
3.378363449485920228e+03 1.757661985923748560e-01 6.347872389812211436e-04
3.381741812935407324e+03 1.770949936349693332e-01 5.800237299977231177e-04
3.385123554748343849e+03 1.783495326809200199e-01 5.411962194630545817e-04
3.388508678303093347e+03 1.795446918554963189e-01 5.121685136218998057e-04
3.391897186981397681e+03 1.807077838516515100e-01 4.815521448779782124e-04
3.395289084168380214e+03 1.817936324089327316e-01 4.614391408572759957e-04
3.398684373252549449e+03 1.828429983276188830e-01 4.518967761526950368e-04
3.402083057625803121e+03 1.837358980110685991e-01 4.500114239733606493e-04
3.405485140683430018e+03 1.844805428699703431e-01 4.469534063990120870e-04
3.408890625824114522e+03 1.850936714615787071e-01 4.355735436269188429e-04
3.412299516449939802e+03 1.856753205007277419e-01 4.265224586129797660e-04
3.415711815966390986e+03 1.861880232953143366e-01 4.380151515978054216e-04
3.419127527782358356e+03 1.866173768768693286e-01 4.324837138191797085e-04
3.422546655310141887e+03 1.869043615769616362e-01 4.208997711651155126e-04
3.425969201965453522e+03 1.871539418318058368e-01 4.166379558959140477e-04
3.429395171167419903e+03 1.871732234813260065e-01 4.113366207772982657e-04
3.432824566338588284e+03 1.870250769294376780e-01 3.992609312974737860e-04
3.436257390904928343e+03 1.868078441252939703e-01 4.019794473741292325e-04
3.439693648295834464e+03 1.868250731773785367e-01 4.134041561575287765e-04
3.443133341944131189e+03 1.869785117876660574e-01 4.172609182150196160e-04
3.446576475286076402e+03 1.874161043067046617e-01 4.007929244219176701e-04
3.450023051761363604e+03 1.879818290118514534e-01 4.168012468051263131e-04
3.453473074813126004e+03 1.886091837269205096e-01 4.459723037466090741e-04
3.456926547887940615e+03 1.891736922330620463e-01 4.586275983472360416e-04
3.460383474435829612e+03 1.897930834198512662e-01 4.767510960878306478e-04
3.463843857910266706e+03 1.904190943532075297e-01 4.908284225670750921e-04
3.467307701768178049e+03 1.909419647604430614e-01 4.821574198269090077e-04
3.470775009469947236e+03 1.913207256474503126e-01 4.903258147138928177e-04
3.474245784479418489e+03 1.918082740567801092e-01 5.039536073403246431e-04
3.477720030263898934e+03 1.922049357283939497e-01 5.395177014699219621e-04
3.481197750294164052e+03 1.927627153453877196e-01 5.690166265633611869e-04
3.484678948044459503e+03 1.934983294632169060e-01 5.907218566691672425e-04
3.488163626992504760e+03 1.943172102980267879e-01 6.124218565439945149e-04
3.491651790619498570e+03 1.952430421353961443e-01 6.128218050428304057e-04
3.495143442410119405e+03 1.961874208397139940e-01 6.002145276793515588e-04
3.498638585852530468e+03 1.974512154888558579e-01 5.672828915396566692e-04
3.502137224438384237e+03 1.988518011172864808e-01 5.332629310735676961e-04
3.505639361662823831e+03 2.005070459373297920e-01 5.309942468510565417e-04
3.509145001024487556e+03 2.024704407976052611e-01 6.255311509736397567e-04
3.512654146025513455e+03 2.045406416354235424e-01 7.523157765843885205e-04
3.516166800171540217e+03 2.066010595814396500e-01 8.528886779396960228e-04
3.519682966971712631e+03 2.084859729109561077e-01 8.718163129108765473e-04
3.523202649938685681e+03 2.101634185113740450e-01 8.207317745187629266e-04
3.526725852588625457e+03 2.116140653891963874e-01 7.307107127507541169e-04
3.530252578441215064e+03 2.126213643867177205e-01 5.844426658927331106e-04
3.533782831019657806e+03 2.133574357427606150e-01 4.476400309689066012e-04
3.537316613850678550e+03 2.134039221751435900e-01 4.238626278886566514e-04
3.540853930464530094e+03 2.129176411459063056e-01 4.402223225959487479e-04
3.544394784394995895e+03 2.119211512112937068e-01 4.423961679517155886e-04
3.547939179179392340e+03 2.103297867875991989e-01 4.591771956282667986e-04
3.551487118358572843e+03 2.080468464703425502e-01 4.668651022496939106e-04
3.555038605476932389e+03 2.057615168798456740e-01 4.844791975714234761e-04
3.558593644082410719e+03 2.034186548420336693e-01 4.654067132581127513e-04
3.562152237726494150e+03 2.010652063886020080e-01 4.648148310235311565e-04
3.565714389964221937e+03 1.989034643624872645e-01 5.285158373171165930e-04
3.569280104354187188e+03 1.972421147990379986e-01 5.286056779233757729e-04
3.572849384458542772e+03 1.961766362140356379e-01 4.681151302405001471e-04
3.576422233843002232e+03 1.957752899162771010e-01 4.304161696338242742e-04
3.579998656076846601e+03 1.960638768408667632e-01 4.726130306020325553e-04
3.583578654732924406e+03 1.969939165021989680e-01 5.334576987834106776e-04
3.587162233387658489e+03 1.986130160023067970e-01 6.214094844314693982e-04
3.590749395621047370e+03 2.004175374882219696e-01 6.218302658244364385e-04
3.594340145016669794e+03 2.030650522899776489e-01 7.169233837800827527e-04
3.597934485161687462e+03 2.058945475749790199e-01 7.401434545978825223e-04
3.601532419646850485e+03 2.087732469826743265e-01 6.977299875964027833e-04
3.605133952066498296e+03 2.115929062545026385e-01 6.701478909324548247e-04
3.608739086018566013e+03 2.146258104320231119e-01 6.579079169756285681e-04
3.612347825104585809e+03 2.174878008803084461e-01 7.151571856955388174e-04
3.615960172929691907e+03 2.203566325711341090e-01 7.714402915443299919e-04
3.619576133102622407e+03 2.233744758546941100e-01 7.509932887419377328e-04
3.623195709235726554e+03 2.265723444182339286e-01 7.631072410535906731e-04
3.626818904944963379e+03 2.294727212090706403e-01 7.405785544791119134e-04
3.630445723849909427e+03 2.319771184550123988e-01 6.924792511953438987e-04
3.634076169573760581e+03 2.346118494264351206e-01 6.658514961941077934e-04
3.637710245743335690e+03 2.375141282334607418e-01 6.848333946727740975e-04
3.641347955989080219e+03 2.403069852265758977e-01 6.716724026683384540e-04
3.644989303945070333e+03 2.427267739126503787e-01 7.451486814628460612e-04
3.648634293249016537e+03 2.455060276432735888e-01 7.754446672066936733e-04
3.652282927542266862e+03 2.484426775165947121e-01 7.657311087507882863e-04
3.655935210469810499e+03 2.514805153099278212e-01 8.540207999782092581e-04
3.659591145680281443e+03 2.540721203634839220e-01 9.335321301435255603e-04
3.663250736825963031e+03 2.558477474493039416e-01 9.263852022162760063e-04
3.666913987562790226e+03 2.571357922687377284e-01 9.633344874757864516e-04
3.670580901550354156e+03 2.578884331209306269e-01 9.840642873241590288e-04
3.674251482451905758e+03 2.580072818771176890e-01 1.105017568609939754e-03
3.677925733934358959e+03 2.579872907767725709e-01 1.168389535595068659e-03
3.681603659668294313e+03 2.582714274132099086e-01 1.166852624763326700e-03
3.685285263327964003e+03 2.588756295052487832e-01 1.157842234854161148e-03
3.688970548591293209e+03 2.597377278843557846e-01 1.176003649335796838e-03
3.692659519139885560e+03 2.606438768914432491e-01 1.227761788437110044e-03
3.696352178659026777e+03 2.613376090338392910e-01 1.264147632826470233e-03
3.700048530837686940e+03 2.616267815991417112e-01 1.263642111288488558e-03
3.703748579368525952e+03 2.617293609018381817e-01 1.263894324006545984e-03
3.707452327947895355e+03 2.615626746823077609e-01 1.317785745044078001e-03
3.711159780275844696e+03 2.618404065870075792e-01 1.290933316615102810e-03
3.714870940056121526e+03 2.619918951701462051e-01 1.159201682866048324e-03
3.718585810996179134e+03 2.611629036109130997e-01 1.045569430322506460e-03
3.722304396807176545e+03 2.591721031372882789e-01 1.115518287377341780e-03
3.726026701203984885e+03 2.566174932080331206e-01 1.390516061248369718e-03
3.729752727905190113e+03 2.533101980151616917e-01 1.427809783949981039e-03
3.733482480633096657e+03 2.497845912504963739e-01 1.158766411557583462e-03
3.737215963113731050e+03 2.473354777902439516e-01 1.071651385673238208e-03
3.740953179076846027e+03 2.465645150168335742e-01 9.787503884597572191e-04
3.744694132255923705e+03 2.473388777729274568e-01 1.024353058187265535e-03
3.748438826388181042e+03 2.492261189337350025e-01 1.064446471594627207e-03
3.752187265214570289e+03 2.525744903961655297e-01 1.158791995860870274e-03
3.755939452479786269e+03 2.570338237038016782e-01 1.207190099907192891e-03
3.759695391932267285e+03 2.620044777962142191e-01 1.228613233929701709e-03
3.763455087324201031e+03 2.673176512129858406e-01 1.176565080085511649e-03
3.767218542411526414e+03 2.730694923049001854e-01 1.157865819496997064e-03
3.770985760953939007e+03 2.787081317789598112e-01 1.126958903311081703e-03
3.774756746714894234e+03 2.842969896074918346e-01 1.084464220297692676e-03
3.778531503461610555e+03 2.896174806240909283e-01 1.087890689500978442e-03
3.782310034965073100e+03 2.937929012250620753e-01 1.323370750190031768e-03
3.786092345000039586e+03 2.969324100746131845e-01 1.695268093243730220e-03
3.789878437345040766e+03 2.982014132684156493e-01 1.700541211113754808e-03
3.793668315782387253e+03 2.974297280101068641e-01 1.549437276258810829e-03
3.797461984098170888e+03 2.946667316458922992e-01 1.605921075391463209e-03
3.801259446082270188e+03 2.901062839558472550e-01 1.854566790396869683e-03
3.805060705528353537e+03 2.845821839145911136e-01 1.982585422535716301e-03
3.808865766233883278e+03 2.785030240882829244e-01 1.968571061807693201e-03
3.812674632000118436e+03 2.720066203557989226e-01 1.756452750237176563e-03
3.816487306632119726e+03 2.655833536522066440e-01 1.483691131922761867e-03
3.820303793938753188e+03 2.599001078111088381e-01 1.366100907213745183e-03
3.824124097732693372e+03 2.553621343460884541e-01 1.313763310750693100e-03
3.827948221830427428e+03 2.524674489696450697e-01 1.368010506707729827e-03
3.831776170052258749e+03 2.517916852660575522e-01 1.339213890086174809e-03
3.835607946222312421e+03 2.531637278371616784e-01 1.214257779856356195e-03
3.839443554168536139e+03 2.560018369727246612e-01 1.053511021187563670e-03
3.843282997722705659e+03 2.596672551555547770e-01 1.025501555245240037e-03
3.847126280720429804e+03 2.638995227608573191e-01 1.053670234913012694e-03
3.850973407001151372e+03 2.686214637628086543e-01 1.256577529358366210e-03
3.854824380408153957e+03 2.735847697114903165e-01 1.430979432498523298e-03
3.858679204788563311e+03 2.784558764354636562e-01 1.322939102597161859e-03
3.862537883993353262e+03 2.830828083539217443e-01 9.991415654570087387e-04
3.866400421877347981e+03 2.869071672754552327e-01 9.312693759302655182e-04
3.870266822299226533e+03 2.896547338317345122e-01 1.227164830488448400e-03
3.874137089121526969e+03 2.918136547647093293e-01 1.382585689093833838e-03
3.878011226210649966e+03 2.939298600076890589e-01 1.186120394495933025e-03
3.881889237436861549e+03 2.967222389386351411e-01 8.513848396465379048e-04
3.885771126674299921e+03 3.005869183495805674e-01 7.310226044014541324e-04
3.889656897800975457e+03 3.055201507052572873e-01 8.046458069925871122e-04
3.893546554698777527e+03 3.112890088282811440e-01 8.115151041851399651e-04
3.897440101253477678e+03 3.176732255575538955e-01 7.941140763646911075e-04
3.901337541354732366e+03 3.245085050461321008e-01 7.756083856599989496e-04
3.905238878896088409e+03 3.318085041516993794e-01 8.346847878454156759e-04
3.909144117774985716e+03 3.384436125771878023e-01 7.948200526038466359e-04
3.913053261892762293e+03 3.437257764177157338e-01 7.902321849795563907e-04
3.916966315154656058e+03 3.475004169064889736e-01 8.371587178948764222e-04
3.920883281469812118e+03 3.499859395948916041e-01 8.752428658704047067e-04
3.924804164751283224e+03 3.513791172399475249e-01 8.455786058116176009e-04
3.928728968916035683e+03 3.515017944247740278e-01 9.147784865829550150e-04
3.932657697884953450e+03 3.504128769441196001e-01 1.085223813373190592e-03
3.936590355582839493e+03 3.486619069773641000e-01 1.543359717852324032e-03
3.940526945938423523e+03 3.472787393647043808e-01 1.986609730692375387e-03
3.944467472884363360e+03 3.466816567938821314e-01 1.849915282563167679e-03
3.948411940357249023e+03 3.486197081993789304e-01 1.348534377407674097e-03
3.952360352297607733e+03 3.532059602794576092e-01 1.325646738135620971e-03
3.956312712649906643e+03 3.601454597371657740e-01 1.765551932813336959e-03
3.960269025362557841e+03 3.695136432191392095e-01 1.995727320541065136e-03
3.964229294387921527e+03 3.803869198903604976e-01 1.843664685827388653e-03
3.968193523682310570e+03 3.909401396937049467e-01 1.623495930281487233e-03
3.972161717205994591e+03 4.011265293419482569e-01 1.554111161288483168e-03
3.976133878923201792e+03 4.109329069163775161e-01 1.536175832245796017e-03
3.980110012802126221e+03 4.206746042167827104e-01 1.458546231693028496e-03
3.984090122814929600e+03 4.297301811099879520e-01 1.369310241099222719e-03
3.988074212937745870e+03 4.379391136618077662e-01 1.168362213647484082e-03
3.992062287150684824e+03 4.454846735014723058e-01 1.038118455556235080e-03
3.996054349437837118e+03 4.524366593688320948e-01 1.036867913433495419e-03
4.000050403787276082e+03 4.589501105088822919e-01 1.072430304203781390e-03
4.004050454191064546e+03 4.647909223810015589e-01 8.882231158639651743e-04
4.008054504645257111e+03 4.694668851785105401e-01 5.979263489729329424e-04
4.012062559149903791e+03 4.725742995192710461e-01 6.787716892097267214e-04
4.016074621709055009e+03 4.744499748610309098e-01 7.093346481045719040e-04
4.020090696330765240e+03 4.753971487845275457e-01 5.496364924562997453e-04
4.024110787027097558e+03 4.757379851736999732e-01 6.458441944012073901e-04
4.028134897814125907e+03 4.750172365586444179e-01 6.374923721127536162e-04
4.032163032711941469e+03 4.735532865846635020e-01 8.332764830177082777e-04
4.036195195744654484e+03 4.721250057799923905e-01 1.049753056659534544e-03
4.040231390940400615e+03 4.710690717418781759e-01 1.170842988128669012e-03
4.044271622331342314e+03 4.705744110683252601e-01 1.076612248683524739e-03
4.048315893953675186e+03 4.710702153097238720e-01 1.147650677972505018e-03
4.052364209847629809e+03 4.719780097566314558e-01 1.289268157171003740e-03
4.056416574057479011e+03 4.732745479826767632e-01 1.489731680494836910e-03
4.060472990631537868e+03 4.744247252019987982e-01 1.528525412659039948e-03
4.064533463622170530e+03 4.750767583191178312e-01 1.439501622971689574e-03
4.068597997085794304e+03 4.752529521493252807e-01 1.333996715630811607e-03
4.072666595082881486e+03 4.747485046238136830e-01 1.333403576862791625e-03
4.076739261677965715e+03 4.737689955639829975e-01 1.402375299108945053e-03
4.080816000939644709e+03 4.721907127625059042e-01 1.508385703608573205e-03
4.084896816940585722e+03 4.702250934832210572e-01 1.452622301560276951e-03
4.088981713757527814e+03 4.684175085643660363e-01 1.105528369607927750e-03
4.093070695471286854e+03 4.673322237195370321e-01 9.264110352774260855e-04
4.097163766166759160e+03 4.674367533977485389e-01 1.196280298115625588e-03
4.101260929932927866e+03 4.684428167479244287e-01 9.956047200339491077e-04
4.105362190862862008e+03 4.692388176491698593e-01 8.886209154317822575e-04
4.109467553053726078e+03 4.701652425756173148e-01 1.097887765945508706e-03
4.113577020606780934e+03 4.716177370965085047e-01 1.166912983484303962e-03
4.117690597627389252e+03 4.735288868244766913e-01 1.097309526292137780e-03
4.121808288225018259e+03 4.760284796369483318e-01 1.164316027192471457e-03
4.125930096513244280e+03 4.788115136351161483e-01 1.319672114485146439e-03
4.130056026609759101e+03 4.813280906269737924e-01 1.366129877661517895e-03
4.134186082636369974e+03 4.838077569606883954e-01 1.329753749888380266e-03
4.138320268719007800e+03 4.858299654101612131e-01 1.269079224446844571e-03
4.142458588987728035e+03 4.873448883124656406e-01 1.250307634119110067e-03
4.146601047576717065e+03 4.886139050588911847e-01 1.212090177708657988e-03
4.150747648624294925e+03 4.892096408647669259e-01 1.223850501981121018e-03
4.154898396272920763e+03 4.890754829132564208e-01 1.329383089054931785e-03
4.159053294669195566e+03 4.884349730761266550e-01 1.331633043168170246e-03
4.163212347963865795e+03 4.879611904885216567e-01 1.033834698344907477e-03
4.167375560311830668e+03 4.884498146779009953e-01 8.341437089074030210e-04
4.171542935872143971e+03 4.902330145705031117e-01 1.080728459290534191e-03
4.175714478808017702e+03 4.929710932717062954e-01 1.134590142681613043e-03
4.179890193286827525e+03 4.956065902296122871e-01 8.744940609297926441e-04
4.184070083480115500e+03 4.974589811243599335e-01 8.667209095010468180e-04
4.188254153563597356e+03 4.989798456282093508e-01 9.115428912118561525e-04
4.192442407717161586e+03 5.005520965195691119e-01 9.088142357934155847e-04
4.196634850124880359e+03 5.020026215438984085e-01 9.084076301699376809e-04
4.200831484975006788e+03 5.033270241148145585e-01 9.210616923810795902e-04
4.205032316459983122e+03 5.044403429778595571e-01 1.009586787048043959e-03
4.209237348776444378e+03 5.055726365861658023e-01 9.809398318107137409e-04
4.213446586125221984e+03 5.071215720278986483e-01 9.233520172442603868e-04
4.217660032711349231e+03 5.089270042500437796e-01 9.025215721496885083e-04
4.221877692744061278e+03 5.112112320115481667e-01 9.818114981489987989e-04
4.226099570436806971e+03 5.140526520536307098e-01 8.891110345015560638e-04
4.230325670007245208e+03 5.167211075634822182e-01 8.403609998866248430e-04
4.234555995677254032e+03 5.189564667861733538e-01 1.237716461864512814e-03
