# starting wavelength: 4505.580
# ending wavelength: 7100.120
# wav flux eflux
4.509773822148638828e+03 4.256598028673099221e-01 2.425653274513669445e-03
4.514283595970789065e+03 4.232563699560151771e-01 1.914659901433200849e-03
4.518797879566761367e+03 4.221100779350535070e-01 1.427332775381119460e-03
4.523316677446328868e+03 4.219396101242905428e-01 1.104197610226663592e-03
4.527839994123776705e+03 4.224528893170048649e-01 8.442088743968090194e-04
4.532367834117902021e+03 4.236365013511672606e-01 6.643445170680950269e-04
4.536900201952022144e+03 4.255428389307744363e-01 5.285610481307843889e-04
4.541437102153975502e+03 4.281104514129850935e-01 4.628313956245597247e-04
4.545978539256130716e+03 4.311481135062942283e-01 4.271656186849739868e-04
4.550524517795388419e+03 4.346378217003222244e-01 3.751852716194990214e-04
4.555075042313184895e+03 4.386386041902666788e-01 3.220944899833671766e-04
4.559630117355500261e+03 4.430792594296324438e-01 2.946415741067033665e-04
4.564189747472856652e+03 4.479088359139343778e-01 2.985767198183034285e-04
4.568753937220330954e+03 4.532604273185536492e-01 2.852945402762089807e-04
4.573322691157552981e+03 4.589076728822351070e-01 3.467834745990659696e-04
4.577896013848711846e+03 4.649953283331126341e-01 4.247412734233345019e-04
4.582473909862562323e+03 4.719070640791768190e-01 4.233660286192953001e-04
4.587056383772426670e+03 4.790518090190303280e-01 4.652004477537250251e-04
4.591643440156200086e+03 4.866168996492818977e-01 4.039011933594646915e-04
4.596235083596357981e+03 4.948880386233474593e-01 3.689480458574791286e-04
4.600831318679955984e+03 5.036121930448830275e-01 3.581983966148962546e-04
4.605432149998637215e+03 5.126641786289278802e-01 3.618920181302808024e-04
4.610037582148637739e+03 5.222348003042296405e-01 3.916965736455671086e-04
4.614647619730787483e+03 5.320641092406408479e-01 4.104285148051335349e-04
4.619262267350520233e+03 5.423002022533230937e-01 4.485819729993596652e-04
4.623881529617872729e+03 5.526725038139815860e-01 5.483979837268536123e-04
4.628505411147491941e+03 5.630087251832538442e-01 6.729791023021346272e-04
4.633133916558640522e+03 5.728482500131766297e-01 6.836648305610577066e-04
4.637767050475200449e+03 5.828646828366441657e-01 8.150040932309230140e-04
4.642404817525677572e+03 5.927867651027459717e-01 7.747888398226069609e-04
4.647047222343205249e+03 6.015921908101359294e-01 6.881597121714009896e-04
4.651694269565549803e+03 6.091918448955959686e-01 6.392093122838398041e-04
4.656345963835116891e+03 6.158605660206372123e-01 6.697242114782318585e-04
4.661002309798953320e+03 6.219049746049434280e-01 6.904272725647078593e-04
4.665663312108753416e+03 6.265267094840452078e-01 8.481766503090300063e-04
4.670328975420864481e+03 6.300782419005706014e-01 9.566213513393649918e-04
4.674999304396286789e+03 6.330988440315865606e-01 1.010639746634565397e-03
4.679674303700684504e+03 6.356017135393629003e-01 9.581742368065322875e-04
4.684353978004386590e+03 6.378156755585048243e-01 8.489266951295171629e-04
4.689038331982392265e+03 6.395009708954327854e-01 7.297965927424293620e-04
4.693727370314376458e+03 6.410628791449017871e-01 6.351325759354374198e-04
4.698421097684692540e+03 6.429667528519724673e-01 6.326854201871079993e-04
4.703119518782378691e+03 6.449589493857091904e-01 6.770406150546202538e-04
4.707822638301162442e+03 6.467286690004190319e-01 7.237357921259944451e-04
4.712530460939465229e+03 6.479724984621280104e-01 7.497056449992258289e-04
4.717242991400406027e+03 6.497182076432276299e-01 6.748122419533952561e-04
4.721960234391808626e+03 6.507943300140234255e-01 4.769525017443729882e-04
4.726682194626201635e+03 6.510890508951217015e-01 3.318496726169809928e-04
4.731408876820829391e+03 6.501878937873750708e-01 2.441706815238877683e-04
4.736140285697651962e+03 6.480926144901745234e-01 2.545538935967602543e-04
4.740876425983350600e+03 6.448546932010896793e-01 2.732684028135121601e-04
4.745617302409335934e+03 6.404504320127224481e-01 3.239331607757778265e-04
4.750362919711747054e+03 6.348975050238365725e-01 2.960712666113702609e-04
4.755113282631459697e+03 6.279420150789497557e-01 2.690332269393508400e-04
4.759868395914093526e+03 6.198048264079818459e-01 3.834458881421882646e-04
4.764628264310008490e+03 6.109570644004809203e-01 3.685258384884028686e-04
4.769392892574320285e+03 6.013822172235933072e-01 5.448926523799692192e-04
4.774162285466896719e+03 5.916599165102125468e-01 7.055491743770675580e-04
4.778936447752364984e+03 5.824952942800295519e-01 7.547733099697302543e-04
4.783715384200118933e+03 5.744853028094520919e-01 6.797244607877930530e-04
4.788499099584319993e+03 5.675866716770526788e-01 6.352141104636345979e-04
4.793287598683906253e+03 5.620331177716638704e-01 5.795383010984878243e-04
4.798080886282591564e+03 5.581010347559491880e-01 5.706964687720487246e-04
4.802878967168876443e+03 5.559871916406270431e-01 5.922951563671100764e-04
4.807681846136046261e+03 5.554721614310343947e-01 6.357558380117632815e-04
4.812489527982183972e+03 5.561608368907049460e-01 7.647703763140138158e-04
4.817302017510168298e+03 5.575581339744296594e-01 8.737698691986951587e-04
4.822119319527679181e+03 5.589889954946865025e-01 9.504051197058984921e-04
4.826941438847208701e+03 5.610205031486802385e-01 1.206285394218242551e-03
4.831768380286057436e+03 5.637012438754752663e-01 1.603963359801788974e-03
4.836600148666345376e+03 5.656263713163888207e-01 1.270699247079895306e-03
4.841436748815013743e+03 5.642031690071461769e-01 1.357656766173797854e-03
4.846278185563829538e+03 5.598300594712032341e-01 8.010236496800855451e-04
4.851124463749395545e+03 5.585655139315707229e-01 9.923545636712164525e-04
4.855975588213146693e+03 5.596521360670574374e-01 4.159461433184018426e-04
4.860831563801360971e+03 5.657739994095315472e-01 6.972054346770517348e-04
4.865692395365163975e+03 5.740971253127948870e-01 7.318612956538886240e-04
4.870558087760530725e+03 5.842520814574865273e-01 1.144383299086266289e-03
4.875428645848292945e+03 5.917939500314425283e-01 1.061123672241614559e-03
4.880304074494142696e+03 5.957916961648461740e-01 1.088588972421409163e-03
4.885184378568638749e+03 5.965506508688598331e-01 2.466583995222051094e-03
4.890069562947209306e+03 5.983720947495919651e-01 2.521233783075441191e-03
4.894959632510157462e+03 5.993568610147151920e-01 3.675436624121716789e-03
4.899854592142669389e+03 5.960028870586576710e-01 3.191407609306967565e-03
4.904754446734813428e+03 5.903167321203601769e-01 2.485291536707159767e-03
4.909659201181550088e+03 5.810450207826211022e-01 8.993002132845673638e-03
4.914568860382732964e+03 5.926445046358779223e-01 7.298283547987044657e-03
4.919483429243117826e+03 6.241251087629748895e-01 9.415393664480353753e-03
4.924402912672362618e+03 6.589467836662182831e-01 6.756846743734535275e-03
4.929327315585036558e+03 6.745437840400191343e-01 5.710895109888141676e-03
4.934256642900622865e+03 6.886991644991664607e-01 4.903607847485886087e-03
4.939190899543525120e+03 7.001326596136278058e-01 4.266525039632053894e-03
4.944130090443070912e+03 7.066387551551933655e-01 3.911237055514426089e-03
4.949074220533515472e+03 7.063426078173186129e-01 3.797115299332261013e-03
4.954023294754050767e+03 6.985521939490311194e-01 3.378250217642911682e-03
4.958977318048806410e+03 6.852813844003655674e-01 2.926885979015412306e-03
4.963936295366856939e+03 6.688125687013606324e-01 2.968016949753777330e-03
4.968900231662225451e+03 6.518170885988382457e-01 3.384529844599455314e-03
4.973869131893889062e+03 6.367741720843970166e-01 3.692866306388176926e-03
4.978843001025784361e+03 6.224659223057794621e-01 3.710837051121858732e-03
4.983821844026811959e+03 6.124374511702339596e-01 3.385893683254090087e-03
4.988805665870840130e+03 6.084033093906964229e-01 2.694473112549430460e-03
4.993794471536712990e+03 6.115511990585809077e-01 2.111372739028410331e-03
4.998788266008251412e+03 6.225447812639124390e-01 2.286592438319146221e-03
5.003787054274261209e+03 6.411666626646744804e-01 2.947539985244843064e-03
5.008790841328536771e+03 6.662044294477124096e-01 3.384089325255290430e-03
5.013799632169867436e+03 6.947166577667146514e-01 2.885717823294873564e-03
5.018813431802038394e+03 7.240255779983568729e-01 1.831548548982423440e-03
5.023832245233842514e+03 7.506829241927751584e-01 1.808955635182852824e-03
5.028856077479077612e+03 7.742071170515121281e-01 1.776282253809660910e-03
5.033884933556558281e+03 7.922435158030255442e-01 1.361035925457238210e-03
5.038918818490116792e+03 8.033881043969512969e-01 1.070053168592876485e-03
5.043957737308608557e+03 8.072649472806529003e-01 1.596522445475778186e-03
5.049001695045918495e+03 8.044114613061507102e-01 2.256826995803265772e-03
5.054050696740966487e+03 7.959676062461186197e-01 2.544242662331830818e-03
5.059104747437709193e+03 7.832773230937688513e-01 2.362760142692289615e-03
5.064163852185148244e+03 7.679383401250765573e-01 1.873211956800597362e-03
5.069228016037335692e+03 7.515640371093944561e-01 1.381253722517498343e-03
5.074297244053374015e+03 7.349859421667138681e-01 1.019708555756916211e-03
5.079371541297429758e+03 7.189029703820477568e-01 8.949945177998592811e-04
5.084450912838728073e+03 7.040191835594757919e-01 9.563901922992877093e-04
5.089535363751569093e+03 6.904682016323079319e-01 1.000313484914750351e-03
5.094624899115322478e+03 6.783116078498112600e-01 9.229402092282255887e-04
5.099719524014439230e+03 6.674216417764367026e-01 7.158471175652018556e-04
5.104819243538455339e+03 6.575581610106999708e-01 3.260169467137992503e-04
5.109924062781995417e+03 6.479423832347830370e-01 2.812618012179254369e-04
5.115033986844779065e+03 6.389205152289636480e-01 3.039469516865790774e-04
5.120149020831625421e+03 6.305527123449947702e-01 3.273742114374594055e-04
5.125269169852458617e+03 6.231696921025726699e-01 2.869338848248584686e-04
5.130394439022313236e+03 6.165437036233745172e-01 2.433608006990139289e-04
5.135524833461337039e+03 6.107254967558934933e-01 3.000092114858679418e-04
5.140660358294800062e+03 6.059777366643755991e-01 5.315970641047494758e-04
5.145801018653096435e+03 6.027279564102381304e-01 9.709045923212717560e-04
5.150946819671751655e+03 6.014584170817638409e-01 1.177235411896357517e-03
5.156097766491425318e+03 6.023772838311303168e-01 1.105134489073879072e-03
5.161253864257918394e+03 6.056210437006526170e-01 1.018291866992251157e-03
5.166415118122177773e+03 6.114138755917283286e-01 1.245911109028124139e-03
5.171581533240301724e+03 6.194028551932300175e-01 1.697423000941960473e-03
5.176753114773543530e+03 6.288689352787514286e-01 1.906477725398885445e-03
5.181929867888318768e+03 6.394097284134262482e-01 1.840457897453782066e-03
5.187111797756208944e+03 6.500501878934410449e-01 1.603669319676431218e-03
5.192298909553966951e+03 6.600399458717013390e-01 1.406884917954122610e-03
5.197491208463522526e+03 6.690796330728264740e-01 1.304604113517683975e-03
5.202688699671987706e+03 6.768708581304729854e-01 1.261379035960609246e-03
5.207891388371661378e+03 6.827270337501544217e-01 1.089907015969539044e-03
5.213099279760034733e+03 6.873840701061126879e-01 1.036629997234216711e-03
5.218312379039796724e+03 6.903499249176563435e-01 9.555514114188114671e-04
5.223530691418837705e+03 6.921554738341297863e-01 9.375624277430685783e-04
5.228754222110258524e+03 6.933370012964369389e-01 8.776654164649487022e-04
5.233982976332370527e+03 6.937081218548992734e-01 9.592507503102086367e-04
5.239216959308704645e+03 6.936375966480220479e-01 1.093794657204310433e-03
5.244456176268015042e+03 6.931932414790918928e-01 1.094217888122426272e-03
5.249700632444284565e+03 6.936700790578300690e-01 8.818548036964478842e-04
5.254950333076731113e+03 6.951202855695441940e-01 9.844337725521206360e-04
5.260205283409809454e+03 6.973850183026139016e-01 1.195435848586631419e-03
5.265465488693221232e+03 7.005756878598160542e-01 1.285410513269731689e-03
5.270730954181915877e+03 7.049172193288800736e-01 1.166162550958471439e-03
5.276001685136099695e+03 7.100967278697311036e-01 1.184141126091266000e-03
5.281277686821237694e+03 7.163605531437420293e-01 1.358904554655658396e-03
5.286558964508059944e+03 7.236385055296730151e-01 1.549089370618725184e-03
5.291845523472569766e+03 7.319877090120643359e-01 1.576166205003209225e-03
5.297137368996044643e+03 7.418266348840406588e-01 1.468902254559099506e-03
5.302434506365042580e+03 7.534197706542539175e-01 1.500711194217283807e-03
5.307736940871409388e+03 7.665692875120176941e-01 1.622609891581466325e-03
5.313044677812282316e+03 7.813562236599788102e-01 1.706638021633851083e-03
5.318357722490096421e+03 7.969910307007277428e-01 1.668989398184678652e-03
5.323676080212588204e+03 8.130727895368675684e-01 1.473966171322887682e-03
5.328999756292802886e+03 8.291217469412709429e-01 1.078626952405670018e-03
5.334328756049097137e+03 8.439411146603073011e-01 8.761494526117606825e-04
5.339663084805148173e+03 8.568326447442413674e-01 8.357425501636941111e-04
5.345002747889954662e+03 8.677270535246688343e-01 5.556978883289798903e-04
5.350347750637846730e+03 8.774065842363233392e-01 5.430009604340777256e-04
5.355698098388485960e+03 8.853722296235930767e-01 5.091223658338319595e-04
5.361053796486876308e+03 8.917625327513812872e-01 5.603879895400592408e-04
5.366414850283365013e+03 8.967907170144462370e-01 6.990170291135348445e-04
5.371781265133649867e+03 9.007289294149054548e-01 8.235753249232241786e-04
5.377153046398785591e+03 9.042051849529447738e-01 7.309886346159313267e-04
5.382530199445186554e+03 9.073510000027553701e-01 6.012815372605108790e-04
5.387912729644633146e+03 9.106445537286773639e-01 4.260294361985155365e-04
5.393300642374279960e+03 9.143466119713656859e-01 2.706152401569238987e-04
5.398693943016655794e+03 9.188237070363900472e-01 3.226062348245759296e-04
5.404092636959673655e+03 9.239795589456616387e-01 3.842381031241411875e-04
5.409496729596635305e+03 9.294766953347541882e-01 3.558096395981449086e-04
5.414906226326233991e+03 9.351424578418306988e-01 3.068559930286085904e-04
5.420321132552561721e+03 9.407378414274498724e-01 3.328470169436374584e-04
5.425741453685116539e+03 9.460232172538228790e-01 4.920125116178973579e-04
5.431167195138803436e+03 9.505599342846097199e-01 5.278395054447895373e-04
5.436598362333943442e+03 9.539482822343136048e-01 4.971061392225248734e-04
5.442034960696279086e+03 9.558695106465431302e-01 4.634122624216550587e-04
5.447476995656978033e+03 9.565420144845372397e-01 4.606431946208597392e-04
5.452924472652636723e+03 9.558609187476363456e-01 3.506190970426936357e-04
5.458377397125291282e+03 9.535916559345491983e-01 3.870384509807814496e-04
5.463835774522417523e+03 9.501931662625107133e-01 6.031868279935559017e-04
5.469299610296941864e+03 9.461808396771067553e-01 8.419702325492063903e-04
5.474768909907241323e+03 9.422912786738872892e-01 1.016534930558333875e-03
5.480243678817149885e+03 9.396580271416858920e-01 1.100841992723122428e-03
5.485723922495968509e+03 9.387470902062616807e-01 1.015661521735566810e-03
5.491209646418466946e+03 9.404890590479975110e-01 8.053599158523603793e-04
5.496700856064887375e+03 9.453254556414024679e-01 5.565826320582368224e-04
5.502197556920953502e+03 9.535971287664876117e-01 4.811043192634889575e-04
5.507699754477876013e+03 9.652460839914006607e-01 5.365518183750282461e-04
5.513207454232356213e+03 9.797442892408134707e-01 6.219291185459383800e-04
5.518720661686590574e+03 9.967052393272284316e-01 8.696492011263024695e-04
5.524239382348278923e+03 1.015369718425235490e+00 1.203552792067121621e-03
5.529763621730628984e+03 1.034569209659762512e+00 1.258489594281065986e-03
5.535293385352360929e+03 1.052843619592104707e+00 1.356835335656349532e-03
5.540828678737715563e+03 1.068843358012371958e+00 1.414729344107623892e-03
5.546369507416455235e+03 1.081371361208193660e+00 1.348840820621765657e-03
5.551915876923872929e+03 1.090085833948297278e+00 1.024827106370457871e-03
5.557467792800798634e+03 1.094150937100730525e+00 9.796420280797249296e-04
5.563025260593602070e+03 1.093359895916464986e+00 1.569315800148991715e-03
5.568588285854197238e+03 1.088844073915196331e+00 1.933871933731742517e-03
5.574156874140053333e+03 1.081360207417381369e+00 2.053340230382227904e-03
5.579731031014194741e+03 1.072393457842210740e+00 1.714888212569029135e-03
5.585310762045211050e+03 1.063181811395933263e+00 1.193435303325844545e-03
5.590896072807257951e+03 1.054442122949615035e+00 6.754198767043314384e-04
5.596486968880067252e+03 1.046993263798631224e+00 6.076238541684644270e-04
5.602083455848949598e+03 1.040997093455726219e+00 6.952187969794870141e-04
5.607685539304799931e+03 1.036474078373244678e+00 6.953551889908748561e-04
5.613293224844106589e+03 1.033281860409873021e+00 5.735053082533766869e-04
5.618906518068952209e+03 1.031192190510926476e+00 4.616206699188875502e-04
5.624525424587023736e+03 1.030066032197602732e+00 3.034417357227803843e-04
5.630149950011612418e+03 1.029536101543071069e+00 1.532426149601321817e-04
5.635780099961625638e+03 1.029236953436964974e+00 1.515355721701076310e-04
5.641415880061589633e+03 1.029217226228215543e+00 2.137283110071695866e-04
5.647057295941652228e+03 1.029169448500249828e+00 2.503829920395398193e-04
5.652704353237596479e+03 1.028898816240007452e+00 2.424544875311521609e-04
5.658357057590835211e+03 1.028459049285375349e+00 2.110897900978632989e-04
5.664015414648428305e+03 1.027708167753186297e+00 2.322474247573725183e-04
5.669679430063079053e+03 1.026536147421540646e+00 3.406720332513619846e-04
5.675349109493143260e+03 1.025305912771791617e+00 3.577459205120936034e-04
5.681024458602638333e+03 1.023742431444710776e+00 3.344442043020721522e-04
5.686705483061243285e+03 1.022218080097400783e+00 2.983827464164298345e-04
5.692392188544306009e+03 1.020707603404364505e+00 2.819296983700982865e-04
5.698084580732852373e+03 1.019223397713699741e+00 2.657335542217019366e-04
5.703782665313587131e+03 1.017954998268682854e+00 2.887468981801030905e-04
5.709486447978903016e+03 1.016775825812629153e+00 2.955836662675802025e-04
5.715195934426883468e+03 1.015668174098974808e+00 2.875920253042566627e-04
5.720911130361312644e+03 1.014506239230660967e+00 3.184039998223802499e-04
5.726632041491675409e+03 1.013277943692764582e+00 3.430581789101926310e-04
5.732358673533169167e+03 1.011874924877433468e+00 3.788481362581199016e-04
5.738091032206703858e+03 1.010068172575174783e+00 4.457523227992539580e-04
5.743829123238912871e+03 1.007840434166751731e+00 5.496403757210323055e-04
5.749572952362153046e+03 1.005501616538334142e+00 5.772626635977563250e-04
5.755322525314517407e+03 1.002722054328623047e+00 5.400663567405022264e-04
5.761077847839834249e+03 9.993742428652405696e-01 6.308461395263223644e-04
5.766838925687675328e+03 9.957580809784518650e-01 7.516674958689197354e-04
5.772605764613364954e+03 9.917333236453304002e-01 8.210715874188231509e-04
5.778378370377980900e+03 9.870418447856547095e-01 7.710413351378961463e-04
5.784156748748360769e+03 9.825532788539763640e-01 8.037926617180124206e-04
5.789940905497111089e+03 9.776629558472715864e-01 7.054037302901780028e-04
5.795730846402610041e+03 9.733536583122207597e-01 7.424081319466465994e-04
5.801526577249013826e+03 9.689937183150478806e-01 7.729567038077070915e-04
5.807328103826264851e+03 9.648124711502346074e-01 1.125266223458525755e-03
5.813135431930093546e+03 9.603913842800904099e-01 1.085555855258970399e-03
5.818948567362025642e+03 9.549286057633177283e-01 8.560084181471171996e-04
5.824767515929389447e+03 9.483841406665932672e-01 9.372422421433967196e-04
5.830592283445320390e+03 9.409069339096772788e-01 9.859705374813127875e-04
5.836422875728768304e+03 9.331480578482139743e-01 9.564872162237119009e-04
5.842259298604498326e+03 9.255570979323698433e-01 1.115050212709626848e-03
5.848101557903105459e+03 9.181206302018701804e-01 1.191157386139735834e-03
5.853949659461010015e+03 9.112285607516817931e-01 1.390720387020040168e-03
5.859803609120473084e+03 9.056910181571418139e-01 2.229996398347519181e-03
5.865663412729595620e+03 9.026149443425641739e-01 3.115665752789558221e-03
5.871529076142326630e+03 9.034044199975154177e-01 3.062949213821202638e-03
