# starting wavelength: 3252.640
# ending wavelength: 9993.720
# wav flux eflux
3.255708422730835991e+03 2.476117155061234032e-01 8.731188601175235431e-03
3.258964131153567905e+03 2.460728412832723644e-01 6.241349858895717771e-03
3.262223095284722604e+03 2.451885178805109367e-01 4.603213776501308661e-03
3.265485318380008266e+03 2.450486659089570474e-01 3.489888711146291612e-03
3.268750803698389518e+03 2.460157234788290237e-01 2.667239410565024321e-03
3.272019554502088795e+03 2.480788434882292559e-01 2.280350550925418565e-03
3.275291574056592253e+03 2.501855884613607417e-01 1.889761362985286144e-03
3.278566865630649772e+03 2.522887004520811827e-01 1.541545756640614814e-03
3.281845432496281319e+03 2.545449369939184470e-01 1.280407647165037605e-03
3.285127277928778767e+03 2.569020963520703971e-01 1.112384330426306224e-03
3.288412405206708627e+03 2.593817038922818785e-01 9.651435692878034336e-04
3.291700817611916591e+03 2.619981259733816237e-01 8.488119481405940201e-04
3.294992518429529355e+03 2.647380910352244987e-01 7.634697234789398611e-04
3.298287510947960072e+03 2.678021906237976757e-01 7.718256562237295077e-04
3.301585798458909267e+03 2.707118407971325080e-01 7.205458693621063452e-04
3.304887384257369376e+03 2.734488036185828141e-01 6.893874437699421985e-04
3.308192271641627485e+03 2.761533694822969065e-01 6.569202615638093136e-04
3.311500463913270323e+03 2.784287587868842784e-01 6.563309874884372657e-04
3.314811964377184722e+03 2.805475213487811370e-01 6.738493009813144351e-04
3.318126776341563072e+03 2.826307201989645135e-01 6.997102707660647148e-04
3.321444903117905596e+03 2.845002306062096031e-01 7.714253900868747564e-04
3.324766348021024896e+03 2.864847082433951142e-01 7.728598954711664911e-04
3.328091114369046863e+03 2.885747450501282563e-01 7.489273573690293688e-04
3.331419205483417045e+03 2.906470984429034288e-01 7.162867285731451799e-04
3.334750624688901553e+03 2.924762939223533587e-01 6.971457510741132027e-04
3.338085375313591612e+03 2.943080232485720815e-01 6.613768584907223904e-04
3.341423460688906289e+03 2.965394784069836365e-01 6.542556518110382658e-04
3.344764884149596128e+03 2.988757656969585064e-01 6.499340073864739347e-04
3.348109649033746791e+03 3.015855418644136088e-01 6.665460417021297707e-04
3.351457758682781787e+03 3.039729562073109070e-01 6.581827121151491780e-04
3.354809216441465651e+03 3.066006426921908945e-01 6.644871046400266336e-04
3.358164025657908041e+03 3.090335739824165984e-01 6.594911922575169864e-04
3.361522189683567376e+03 3.113763642489288941e-01 6.532971727091577965e-04
3.364883711873251741e+03 3.138072563004803972e-01 6.286732501939892815e-04
3.368248595585126168e+03 3.167882616125392570e-01 6.970792989525127813e-04
3.371616844180712633e+03 3.195951946052977832e-01 6.976420682872689055e-04
3.374988461024894150e+03 3.223799431147436056e-01 6.878459743251238078e-04
3.378363449485920228e+03 3.250576542573277994e-01 6.790365318558966128e-04
3.381741812935407324e+03 3.277135508492365346e-01 6.668810892975181922e-04
3.385123554748343849e+03 3.305335333749093718e-01 6.318032306354660291e-04
3.388508678303093347e+03 3.331933350255605886e-01 6.201519826159663422e-04
3.391897186981397681e+03 3.356508649829522128e-01 6.440454750913879875e-04
3.395289084168380214e+03 3.381264398965645457e-01 6.211572642346673521e-04
3.398684373252549449e+03 3.406580578051591202e-01 6.205189579922198648e-04
3.402083057625803121e+03 3.430087866635074256e-01 6.114770283185397065e-04
3.405485140683430018e+03 3.450733740878499378e-01 5.848401322000327043e-04
3.408890625824114522e+03 3.474297368343600700e-01 6.402828112397597688e-04
3.412299516449939802e+03 3.497468165290391617e-01 7.318258577256457923e-04
3.415711815966390986e+03 3.518754637070583557e-01 7.375532292246148253e-04
3.419127527782358356e+03 3.537312223316075310e-01 6.426276642493102854e-04
3.422546655310141887e+03 3.550571397655045702e-01 6.571740874071588289e-04
3.425969201965453522e+03 3.562653061894855977e-01 6.721240378924177913e-04
3.429395171167419903e+03 3.572094227487050411e-01 7.069454778846061835e-04
3.432824566338588284e+03 3.580604959562397327e-01 7.329383969019480837e-04
3.436257390904928343e+03 3.587776307745931814e-01 7.561597511216654709e-04
3.439693648295834464e+03 3.593653102173799962e-01 7.728599720721926860e-04
3.443133341944131189e+03 3.602980502973293087e-01 7.929214223196421815e-04
3.446576475286076402e+03 3.610154390166100957e-01 8.111080575839205425e-04
3.450023051761363604e+03 3.618217818482053483e-01 7.809326703032061934e-04
3.453473074813126004e+03 3.625063600234947336e-01 7.143832180328301470e-04
3.456926547887940615e+03 3.636592514864352976e-01 6.618393035827221157e-04
3.460383474435829612e+03 3.652493136623289893e-01 6.700693581250673865e-04
3.463843857910266706e+03 3.672186125897036746e-01 7.593109779099802264e-04
3.467307701768178049e+03 3.694383916248301092e-01 8.525117295768852577e-04
3.470775009469947236e+03 3.715940465938881165e-01 8.851912459864689489e-04
3.474245784479418489e+03 3.737786986912928211e-01 8.974538813450536751e-04
3.477720030263898934e+03 3.760379910281562155e-01 8.816988420131105899e-04
3.481197750294164052e+03 3.784723836010561726e-01 8.149736962378388442e-04
3.484678948044459503e+03 3.811072715172587611e-01 6.547138897827622451e-04
3.488163626992504760e+03 3.835789511993892842e-01 6.267542737039057685e-04
3.491651790619498570e+03 3.860048908786289368e-01 6.140280881666426846e-04
3.495143442410119405e+03 3.883030704224039176e-01 6.187084296213216312e-04
3.498638585852530468e+03 3.906680937453996250e-01 6.123354883583951571e-04
3.502137224438384237e+03 3.926633846256472049e-01 6.001285829520157725e-04
3.505639361662823831e+03 3.946518341761923732e-01 5.679084858855640945e-04
3.509145001024487556e+03 3.964978195267944705e-01 5.688497005596224263e-04
3.512654146025513455e+03 3.983506752535479478e-01 5.593000268151546855e-04
3.516166800171540217e+03 3.998777063345159144e-01 5.437122331055664398e-04
3.519682966971712631e+03 4.016594865601549325e-01 5.222187457997165463e-04
3.523202649938685681e+03 4.038768295473348369e-01 5.250505053918859974e-04
3.526725852588625457e+03 4.062891873912806151e-01 5.332645981355849888e-04
3.530252578441215064e+03 4.087277477271303860e-01 5.546507181788088055e-04
3.533782831019657806e+03 4.111380561979103843e-01 5.712142346720956764e-04
3.537316613850678550e+03 4.137165425755749415e-01 5.910586763712443771e-04
3.540853930464530094e+03 4.164054817063040925e-01 5.967957544900441254e-04
3.544394784394995895e+03 4.188837834465256038e-01 5.576347914735664763e-04
3.547939179179392340e+03 4.211677390321243997e-01 5.675467390457108498e-04
3.551487118358572843e+03 4.232472688704174146e-01 6.469486525945713183e-04
3.555038605476932389e+03 4.253452938952343998e-01 6.937230946719610651e-04
3.558593644082410719e+03 4.276460343252302954e-01 6.757444601660798694e-04
3.562152237726494150e+03 4.298989392240096796e-01 6.088970515536737188e-04
3.565714389964221937e+03 4.325019807947980688e-01 6.402559429349955486e-04
3.569280104354187188e+03 4.352913366564313269e-01 6.870040525112835810e-04
3.572849384458542772e+03 4.380451047206577742e-01 6.706440018980773694e-04
3.576422233843002232e+03 4.405499885008619665e-01 6.715489220347932442e-04
3.579998656076846601e+03 4.430967517517336862e-01 6.957724788910305555e-04
3.583578654732924406e+03 4.456637849200625889e-01 6.974854015005485953e-04
3.587162233387658489e+03 4.482274025352219193e-01 6.912288416327029865e-04
3.590749395621047370e+03 4.508382295838679887e-01 6.879771931077520008e-04
3.594340145016669794e+03 4.535612989906971926e-01 6.891226247305086644e-04
3.597934485161687462e+03 4.564809674585879051e-01 6.895558473994108485e-04
3.601532419646850485e+03 4.596721142522819381e-01 6.897293553380087284e-04
3.605133952066498296e+03 4.630393665903722034e-01 7.097988874483864615e-04
3.608739086018566013e+03 4.665959321666903747e-01 7.085321723417344151e-04
3.612347825104585809e+03 4.701610717589237987e-01 7.372935029439539297e-04
3.615960172929691907e+03 4.736289131568136579e-01 7.410307353857321791e-04
3.619576133102622407e+03 4.771865395298295343e-01 6.659192414224506668e-04
3.623195709235726554e+03 4.814350640751711152e-01 6.182443219066261365e-04
3.626818904944963379e+03 4.861242235837738290e-01 6.427319769984336621e-04
3.630445723849909427e+03 4.912634538645685445e-01 7.723754615888097676e-04
3.634076169573760581e+03 4.967254967764653251e-01 9.301561606789457513e-04
3.637710245743335690e+03 5.021170495701148262e-01 9.367058801711822735e-04
3.641347955989080219e+03 5.073776769904163597e-01 8.358542987006752209e-04
3.644989303945070333e+03 5.125188331612038350e-01 7.106223031241862883e-04
3.648634293249016537e+03 5.173827663595733650e-01 7.145731264689742131e-04
3.652282927542266862e+03 5.216904074811289371e-01 7.485075762288184937e-04
3.655935210469810499e+03 5.255694384930584828e-01 7.641521308318555876e-04
3.659591145680281443e+03 5.293005886517631042e-01 7.576290607396597276e-04
3.663250736825963031e+03 5.329481380691446502e-01 7.613636905992569610e-04
3.666913987562790226e+03 5.361917248913784517e-01 7.621354830044507192e-04
3.670580901550354156e+03 5.393243867521064772e-01 7.856165667628538197e-04
3.674251482451905758e+03 5.417599918393674052e-01 7.785709601456084405e-04
3.677925733934358959e+03 5.435428429350365187e-01 7.488268410450618986e-04
3.681603659668294313e+03 5.452278326440331835e-01 7.460752154911470769e-04
3.685285263327964003e+03 5.468048316474151127e-01 7.596077416341558142e-04
3.688970548591293209e+03 5.481072975816806414e-01 7.802007567581186170e-04
3.692659519139885560e+03 5.490134251246101549e-01 7.801331465451546120e-04
3.696352178659026777e+03 5.498131887978068288e-01 7.675639840714265291e-04
3.700048530837686940e+03 5.506445721246707725e-01 7.230439596663237661e-04
3.703748579368525952e+03 5.512027189974498809e-01 7.137668691465291716e-04
3.707452327947895355e+03 5.517439751413696358e-01 6.701331827638647544e-04
3.711159780275844696e+03 5.515770853881805103e-01 7.315497228066069517e-04
3.714870940056121526e+03 5.512809838574482812e-01 7.127382270246778980e-04
3.718585810996179134e+03 5.512196544931314834e-01 5.887588781884364568e-04
3.722304396807176545e+03 5.514617930454726036e-01 5.716197741591623298e-04
3.726026701203984885e+03 5.523138116762356109e-01 5.732785352506520509e-04
3.729752727905190113e+03 5.537726249162555625e-01 5.708712779291305866e-04
3.733482480633096657e+03 5.557789269144046695e-01 5.388082187963519083e-04
3.737215963113731050e+03 5.577143781271740597e-01 5.970710417749001790e-04
3.740953179076846027e+03 5.601417384603223359e-01 6.082906418762282132e-04
3.744694132255923705e+03 5.631046535653391194e-01 5.876483062981644259e-04
3.748438826388181042e+03 5.664276570759293472e-01 5.823012214192455896e-04
3.752187265214570289e+03 5.703863908774917668e-01 5.901901890732377375e-04
3.755939452479786269e+03 5.749665294161185880e-01 5.895172134647734324e-04
3.759695391932267285e+03 5.800691207557393536e-01 6.074441592763433692e-04
3.763455087324201031e+03 5.857429420079441895e-01 7.214979847385567368e-04
3.767218542411526414e+03 5.913877933700318890e-01 8.336218795317693487e-04
3.770985760953939007e+03 5.965404260306623740e-01 8.525879561829749487e-04
3.774756746714894234e+03 6.015849737919009010e-01 8.557326545658922642e-04
3.778531503461610555e+03 6.065143210304220212e-01 8.543059667565969500e-04
3.782310034965073100e+03 6.105822291971985116e-01 8.093219152279328274e-04
3.786092345000039586e+03 6.135119187368973659e-01 8.397031349800659905e-04
3.789878437345040766e+03 6.156665555510708598e-01 8.082821751675307734e-04
3.793668315782387253e+03 6.169702530948227848e-01 7.256996711797508888e-04
3.797461984098170888e+03 6.171068450158597729e-01 7.093036172568423139e-04
3.801259446082270188e+03 6.157929208198994475e-01 7.090812107773340322e-04
3.805060705528353537e+03 6.134659344550039695e-01 6.338295311950028392e-04
3.808865766233883278e+03 6.104205379668321552e-01 5.857582506795482166e-04
3.812674632000118436e+03 6.073646100112747304e-01 6.305992599222948669e-04
3.816487306632119726e+03 6.041275225494920909e-01 6.399907027973422442e-04
3.820303793938753188e+03 6.012883910758348716e-01 6.551167074298937113e-04
3.824124097732693372e+03 5.987854041616603729e-01 5.222215443737753459e-04
3.827948221830427428e+03 5.973711850826162184e-01 5.360927418089522127e-04
3.831776170052258749e+03 5.967697748920886003e-01 5.459943530080865791e-04
3.835607946222312421e+03 5.967808807184258324e-01 5.721975388029143777e-04
3.839443554168536139e+03 5.974404610114024683e-01 5.885877616725976140e-04
3.843282997722705659e+03 5.989291512622362257e-01 6.673297996484360431e-04
3.847126280720429804e+03 6.012448911101007099e-01 7.616851609396189547e-04
3.850973407001151372e+03 6.039565617508806383e-01 5.877311785066511663e-04
3.854824380408153957e+03 6.065242884933127465e-01 4.514476483799414823e-04
3.858679204788563311e+03 6.087699487131221776e-01 4.586664152334165418e-04
3.862537883993353262e+03 6.106386660865584792e-01 5.118908282099348577e-04
3.866400421877347981e+03 6.124537491250617860e-01 5.186781693501132072e-04
3.870266822299226533e+03 6.136640361639287278e-01 5.114245996256954656e-04
3.874137089121526969e+03 6.147807467748278576e-01 5.298658422045763932e-04
3.878011226210649966e+03 6.154191286536357941e-01 5.245886782148489590e-04
3.881889237436861549e+03 6.158769561139973980e-01 5.349656234028975395e-04
3.885771126674299921e+03 6.162715033105585771e-01 5.494149335251606245e-04
3.889656897800975457e+03 6.162109376617709300e-01 6.142937237502773965e-04
3.893546554698777527e+03 6.160146047877947950e-01 9.232900878798657156e-04
3.897440101253477678e+03 6.161464841867378972e-01 1.035880705744786270e-03
3.901337541354732366e+03 6.169036586182217174e-01 1.029595434986234868e-03
3.905238878896088409e+03 6.186969476428572090e-01 1.044312984304596962e-03
3.909144117774985716e+03 6.214646889298334198e-01 1.315741412281967292e-03
3.913053261892762293e+03 6.242872051001219225e-01 1.566974240365429875e-03
3.916966315154656058e+03 6.271482425501322400e-01 1.834178801587818585e-03
3.920883281469812118e+03 6.293508944026456886e-01 1.987727309606335691e-03
3.924804164751283224e+03 6.319414376993114368e-01 2.049176568980529568e-03
3.928728968916035683e+03 6.344990185017012063e-01 1.812905059371996324e-03
3.932657697884953450e+03 6.360505742340701874e-01 2.178542845710505858e-03
3.936590355582839493e+03 6.368014796159882085e-01 2.692064919111925112e-03
3.940526945938423523e+03 6.365709079361016043e-01 2.794898828612815602e-03
3.944467472884363360e+03 6.377974802315490299e-01 2.524295419291551750e-03
3.948411940357249023e+03 6.421575122695136750e-01 1.959122182452753633e-03
3.952360352297607733e+03 6.488968958140888255e-01 2.023666145381806773e-03
3.956312712649906643e+03 6.575606917818793695e-01 2.448868374956828051e-03
3.960269025362557841e+03 6.691640814433363893e-01 2.809226933934987677e-03
3.964229294387921527e+03 6.827275809994672873e-01 2.234021596787596868e-03
3.968193523682310570e+03 6.953566187572191026e-01 1.610607532629436010e-03
3.972161717205994591e+03 7.063248739389261788e-01 1.364061615948193888e-03
3.976133878923201792e+03 7.153413335330364164e-01 1.172307736510434925e-03
3.980110012802126221e+03 7.221267085802874908e-01 1.119147980106344198e-03
3.984090122814929600e+03 7.266423040936369482e-01 1.152974391500664973e-03
3.988074212937745870e+03 7.295392718562468959e-01 1.005794199861012464e-03
3.992062287150684824e+03 7.303438759900867661e-01 7.922387574245953875e-04
3.996054349437837118e+03 7.302439493828521977e-01 8.033576122112407814e-04
4.000050403787276082e+03 7.296135435335436847e-01 8.915916615795323229e-04
4.004050454191064546e+03 7.286624426664313203e-01 9.032252243810061929e-04
4.008054504645257111e+03 7.275178770525192462e-01 8.049084080107668949e-04
4.012062559149903791e+03 7.269785862408185695e-01 7.783245571390295155e-04
4.016074621709055009e+03 7.266786958905512295e-01 7.351026198591261145e-04
4.020090696330765240e+03 7.267010869980528032e-01 5.693345892307117564e-04
4.024110787027097558e+03 7.279228377520067239e-01 7.488909474800207588e-04
4.028134897814125907e+03 7.297449499324819566e-01 5.957427196950022862e-04
4.032163032711941469e+03 7.316694394814378111e-01 5.734285021241762896e-04
4.036195195744654484e+03 7.340350207706793917e-01 5.579705768531074625e-04
4.040231390940400615e+03 7.366194944674853140e-01 6.062491805010793633e-04
4.044271622331342314e+03 7.391836077006090910e-01 6.504471351770462753e-04
4.048315893953675186e+03 7.418006113662716228e-01 8.002630236944556366e-04
4.052364209847629809e+03 7.434977622528270436e-01 7.842689037540306711e-04
4.056416574057479011e+03 7.447281402149588114e-01 8.082588439444735083e-04
4.060472990631537868e+03 7.449971191410407201e-01 8.021284460873105791e-04
4.064533463622170530e+03 7.448342365211153560e-01 7.484189013418914667e-04
4.068597997085794304e+03 7.437612044200512251e-01 9.005352732107687296e-04
4.072666595082881486e+03 7.422758305479488783e-01 1.023853143478309228e-03
4.076739261677965715e+03 7.409250357217168625e-01 9.458726754948615974e-04
4.080816000939644709e+03 7.396848721318934894e-01 8.873656078974331146e-04
4.084896816940585722e+03 7.386209413974456073e-01 8.242919030302172257e-04
4.088981713757527814e+03 7.382473538787318601e-01 8.042086760550456537e-04
4.093070695471286854e+03 7.387891085012248116e-01 7.809133053430156787e-04
4.097163766166759160e+03 7.405690572256096171e-01 8.580358070024927649e-04
4.101260929932927866e+03 7.432453276521105989e-01 6.632904186971389990e-04
4.105362190862862008e+03 7.462124905403760833e-01 6.858303851149307340e-04
4.109467553053726078e+03 7.496982765486678302e-01 6.669232842023694674e-04
4.113577020606780934e+03 7.538290414570775200e-01 7.235924734712924529e-04
4.117690597627389252e+03 7.585193928378586303e-01 8.770185230641122306e-04
4.121808288225018259e+03 7.629590094515988907e-01 8.995090890208395787e-04
4.125930096513244280e+03 7.675510819558952758e-01 8.290813457053564442e-04
4.130056026609759101e+03 7.713742762817754617e-01 9.075732402784682977e-04
4.134186082636369974e+03 7.755121501367631121e-01 9.624792232687468321e-04
4.138320268719007800e+03 7.794364931150389308e-01 1.085601337326690726e-03
4.142458588987728035e+03 7.835045615724720580e-01 1.072031297860292619e-03
4.146601047576717065e+03 7.877516412712829430e-01 9.501704651991910904e-04
4.150747648624294925e+03 7.921852092098694564e-01 8.986374314680974518e-04
4.154898396272920763e+03 7.973027978317716036e-01 1.000543335963061846e-03
4.159053294669195566e+03 8.020904916123837713e-01 9.842629071299755904e-04
4.163212347963865795e+03 8.065922219519142677e-01 9.777058787791385874e-04
4.167375560311830668e+03 8.110027457113030414e-01 9.652526689768771428e-04
4.171542935872143971e+03 8.154483305055978404e-01 8.977378080942469141e-04
4.175714478808017702e+03 8.194602054806040536e-01 7.568803135374748770e-04
4.179890193286827525e+03 8.218612476125873867e-01 7.754730792188653478e-04
4.184070083480115500e+03 8.230516559418245004e-01 7.946116737808673345e-04
4.188254153563597356e+03 8.237715821800475346e-01 7.378454310165816861e-04
4.192442407717161586e+03 8.243196937453630690e-01 7.178301370447119807e-04
4.196634850124880359e+03 8.247904640968430900e-01 7.336462329755387250e-04
4.200831484975006788e+03 8.247359859729251896e-01 7.589537193424448049e-04
4.205032316459983122e+03 8.249364167689837712e-01 7.305880041843394040e-04
4.209237348776444378e+03 8.247181706417668900e-01 8.047398868563270446e-04
4.213446586125221984e+03 8.247848601225207243e-01 8.862904417194705439e-04
4.217660032711349231e+03 8.255806781327097443e-01 7.672230209411722273e-04
4.221877692744061278e+03 8.271728640644064878e-01 7.147596657392536875e-04
4.226099570436806971e+03 8.298629589751584934e-01 7.380764578733975617e-04
4.230325670007245208e+03 8.333125876485903971e-01 7.343087082048272785e-04
4.234555995677254032e+03 8.376381017387460881e-01 6.781904326701581210e-04
4.238790551672932452e+03 8.420977822626731779e-01 6.886595675445333908e-04
