# starting wavelength: 4505.580
# ending wavelength: 7093.030
# wav flux eflux
4.509773822148638828e+03 5.120344446010058892e-01 7.745544255086094648e-03
4.514283595970789065e+03 4.937892147330886217e-01 6.286149414881678048e-03
4.518797879566761367e+03 4.808016366264969976e-01 4.941738870026480754e-03
4.523316677446328868e+03 4.736789186196346813e-01 3.813182567227986399e-03
4.527839994123776705e+03 4.708434022531196583e-01 2.911300985095294745e-03
4.532367834117902021e+03 4.716931488669520722e-01 2.335139803413510164e-03
4.536900201952022144e+03 4.750521030348563989e-01 1.890406114159034730e-03
4.541437102153975502e+03 4.802535761551481874e-01 1.626762605755411239e-03
4.545978539256130716e+03 4.863709484560170271e-01 1.836317453882794050e-03
4.550524517795388419e+03 4.925335722082767043e-01 2.259013020302453982e-03
4.555075042313184895e+03 4.995995593023683790e-01 1.975384029237081673e-03
4.559630117355500261e+03 5.058028520765313063e-01 2.155068227398272522e-03
4.564189747472856652e+03 5.118781967067238536e-01 2.308046741783462141e-03
4.568753937220330954e+03 5.183308679230940186e-01 2.310552968633848049e-03
4.573322691157552981e+03 5.251792341776923001e-01 2.258657133168358137e-03
4.577896013848711846e+03 5.327121482193294399e-01 2.227973641006885438e-03
4.582473909862562323e+03 5.398648699437492704e-01 2.197984605872168023e-03
4.587056383772426670e+03 5.470949945898144762e-01 2.155297602433140294e-03
4.591643440156200086e+03 5.532190570482393710e-01 1.889141466409718353e-03
4.596235083596357981e+03 5.597740999814427854e-01 1.798980994176666926e-03
4.600831318679955984e+03 5.659590136397508742e-01 1.732253510897540207e-03
4.605432149998637215e+03 5.722737234065300438e-01 1.733776883134674355e-03
4.610037582148637739e+03 5.783744111248680930e-01 1.662080923225732433e-03
4.614647619730787483e+03 5.844389828634720674e-01 1.710024960476154649e-03
4.619262267350520233e+03 5.915033731151976282e-01 1.676511964818567808e-03
4.623881529617872729e+03 5.986924614503081887e-01 1.644129597176063190e-03
4.628505411147491941e+03 6.058854137969215126e-01 1.608065307536937424e-03
4.633133916558640522e+03 6.130241296104252946e-01 1.524780358522243896e-03
4.637767050475200449e+03 6.199074350969087099e-01 1.548643772536660449e-03
4.642404817525677572e+03 6.269443684243655168e-01 2.006927591944198449e-03
4.647047222343205249e+03 6.328866661543572913e-01 2.299424764760494514e-03
4.651694269565549803e+03 6.370592092551378149e-01 2.348734525832100843e-03
4.656345963835116891e+03 6.394625114369700825e-01 2.322894719865048040e-03
4.661002309798953320e+03 6.405626058925671940e-01 2.381372354674637405e-03
4.665663312108753416e+03 6.407262544999534626e-01 2.376586541256058178e-03
4.670328975420864481e+03 6.389404530743921784e-01 2.545354308264746734e-03
4.674999304396286789e+03 6.362028038635157978e-01 2.934135068506043761e-03
4.679674303700684504e+03 6.329273824915760960e-01 3.491264784749755195e-03
4.684353978004386590e+03 6.315553983393691340e-01 3.620108336855500011e-03
4.689038331982392265e+03 6.284723782485668320e-01 3.807439179075642038e-03
4.693727370314376458e+03 6.250708145418537587e-01 3.274180787974094627e-03
4.698421097684692540e+03 6.243693252496596013e-01 2.691562670355399870e-03
4.703119518782378691e+03 6.259624400555626744e-01 2.381547341560339825e-03
4.707822638301162442e+03 6.301949570663755162e-01 2.689246040811258190e-03
4.712530460939465229e+03 6.349578715515943328e-01 2.813212984980520588e-03
4.717242991400406027e+03 6.447903674023491849e-01 3.183266788668035526e-03
4.721960234391808626e+03 6.547188139937851759e-01 3.038304792689051469e-03
4.726682194626201635e+03 6.643305253383857689e-01 2.631089618569620956e-03
4.731408876820829391e+03 6.725116980394584276e-01 1.894186924327189835e-03
4.736140285697651962e+03 6.782437409929272798e-01 1.464574852844198428e-03
4.740876425983350600e+03 6.811945418892012549e-01 1.097370207441023633e-03
4.745617302409335934e+03 6.794207454012017866e-01 1.454297431788054325e-03
4.750362919711747054e+03 6.747764677929659616e-01 1.580019918936581558e-03
4.755113282631459697e+03 6.691045365386990573e-01 1.554676893318212216e-03
4.759868395914093526e+03 6.620120045624019456e-01 1.311785037072112732e-03
4.764628264310008490e+03 6.540182762892687851e-01 1.014556640454319361e-03
4.769392892574320285e+03 6.459684731704576910e-01 8.523526827059038679e-04
4.774162285466896719e+03 6.383181225852851970e-01 8.424904260979311282e-04
4.778936447752364984e+03 6.321134560205085018e-01 8.485047318559384068e-04
4.783715384200118933e+03 6.269682047698518224e-01 9.038435059049846655e-04
4.788499099584319993e+03 6.226880815916689960e-01 9.141210910650305688e-04
4.793287598683906253e+03 6.199342466256303474e-01 8.834218667503486964e-04
4.798080886282591564e+03 6.178575479385522984e-01 9.351917198393129788e-04
4.802878967168876443e+03 6.166906610666745836e-01 9.340269424007672508e-04
4.807681846136046261e+03 6.164470531491709204e-01 1.126189704224547696e-03
4.812489527982183972e+03 6.167531316342439451e-01 1.329099682005274339e-03
4.817302017510168298e+03 6.169712723243108154e-01 1.451755224099593152e-03
4.822119319527679181e+03 6.167397762137357686e-01 1.538748780870534405e-03
4.826941438847208701e+03 6.169582857337808646e-01 1.739804155310645164e-03
4.831768380286057436e+03 6.175304113162971564e-01 1.899291237971219553e-03
4.836600148666345376e+03 6.154333982773487755e-01 1.567683932112467126e-03
4.841436748815013743e+03 6.101364431072424654e-01 1.832564912300225449e-03
4.846278185563829538e+03 6.052158844341191113e-01 1.674648736103456119e-03
4.851124463749395545e+03 6.026828169103980448e-01 1.561886554081782152e-03
4.855975588213146693e+03 6.041838499950161756e-01 1.521299338770375296e-03
4.860831563801360971e+03 6.109156405030158332e-01 9.156658679282480119e-04
4.865692395365163975e+03 6.173329755623990778e-01 9.810609453331361682e-04
4.870558087760530725e+03 6.255084922469784647e-01 1.188386864134513554e-03
4.875428645848292945e+03 6.330916139765987438e-01 1.331110034312634697e-03
4.880304074494142696e+03 6.365923063356123679e-01 1.203307852833502634e-03
4.885184378568638749e+03 6.358938404916939513e-01 1.914967710496477031e-03
4.890069562947209306e+03 6.344010481573830740e-01 1.895978561247104767e-03
4.894959632510157462e+03 6.326396800871750825e-01 2.613076149318058119e-03
4.899854592142669389e+03 6.295204043080769862e-01 2.602242439315655739e-03
4.904754446734813428e+03 6.278758747156129028e-01 2.322796029158470145e-03
4.909659201181550088e+03 6.274527876872638688e-01 2.719042889628338084e-03
4.914568860382732964e+03 6.334761083859443698e-01 1.758435593138754941e-03
4.919483429243117826e+03 6.496665728917517812e-01 1.442368347754461591e-03
4.924402912672362618e+03 6.827799480132179522e-01 6.804548212360243646e-03
4.929327315585036558e+03 7.047690797184659184e-01 7.202841411332575397e-03
4.934256642900622865e+03 7.237203469511325205e-01 6.881478928782639240e-03
4.939190899543525120e+03 7.371858828570431177e-01 5.642731987889328289e-03
4.944130090443070912e+03 7.433640359526106911e-01 4.533600970993360846e-03
4.949074220533515472e+03 7.416278193047612932e-01 4.629002183050931300e-03
4.954023294754050767e+03 7.305549060448853771e-01 5.767744026369216702e-03
4.958977318048806410e+03 7.134011764105657738e-01 5.747892969907021123e-03
4.963936295366856939e+03 6.946146510930427675e-01 4.660151429161523556e-03
4.968900231662225451e+03 6.757648225223995553e-01 3.309956741842203301e-03
4.973869131893889062e+03 6.590413391489955419e-01 3.201723975114714304e-03
4.978843001025784361e+03 6.447723710983374046e-01 3.262092727964108988e-03
4.983821844026811959e+03 6.340269085664724802e-01 3.073701452705473666e-03
4.988805665870840130e+03 6.272789828843755577e-01 3.438454330521051143e-03
4.993794471536712990e+03 6.256135723586419006e-01 4.165507038592278395e-03
4.998788266008251412e+03 6.291703054954441710e-01 4.589414574356004591e-03
5.003787054274261209e+03 6.399636278362829112e-01 4.048612446348071395e-03
5.008790841328536771e+03 6.603713005261728775e-01 4.171303526589355791e-03
5.013799632169867436e+03 6.877039064402080681e-01 5.811486926121288421e-03
5.018813431802038394e+03 7.188895780518069767e-01 7.446617905867246659e-03
5.023832245233842514e+03 7.508754077662533888e-01 7.929338612225507454e-03
5.028856077479077612e+03 7.808556334678118382e-01 7.249363143654377444e-03
5.033884933556558281e+03 8.053649582306391386e-01 5.864187300343066261e-03
5.038918818490116792e+03 8.212396569241612321e-01 4.811064427788464687e-03
5.043957737308608557e+03 8.278720887161790110e-01 5.222750056271457074e-03
5.049001695045918495e+03 8.241727002370157207e-01 6.217951774723887680e-03
5.054050696740966487e+03 8.133250121068862359e-01 5.837754931386113753e-03
5.059104747437709193e+03 7.989337842429804493e-01 4.442658069806573219e-03
5.064163852185148244e+03 7.831360850375004290e-01 2.768683463306154807e-03
5.069228016037335692e+03 7.688436930714535045e-01 1.797810522427084178e-03
5.074297244053374015e+03 7.572367521139455881e-01 2.003757453530571712e-03
5.079371541297429758e+03 7.481760732063973407e-01 2.480897132826562820e-03
5.084450912838728073e+03 7.406187785051940864e-01 2.248246311691725566e-03
5.089535363751569093e+03 7.337676313136980433e-01 1.578721658540551027e-03
5.094624899115322478e+03 7.261780155237316237e-01 1.268239273405429154e-03
5.099719524014439230e+03 7.177349369991855577e-01 1.232067849620546978e-03
5.104819243538455339e+03 7.080855459970715193e-01 1.092860808522639650e-03
5.109924062781995417e+03 6.975149555107476029e-01 1.422617765278797299e-03
5.115033986844779065e+03 6.864064951861544861e-01 1.653723791469339241e-03
5.120149020831625421e+03 6.751773379490145777e-01 1.470271549914255616e-03
5.125269169852458617e+03 6.645516839872370740e-01 1.291588394444939149e-03
5.130394439022313236e+03 6.550016655491681661e-01 1.295646956876854569e-03
5.135524833461337039e+03 6.463713650211505568e-01 1.509571416700327155e-03
5.140660358294800062e+03 6.390682398307965251e-01 1.798924297487161563e-03
5.145801018653096435e+03 6.328982921051061750e-01 1.848876605811609810e-03
5.150946819671751655e+03 6.284417020624988304e-01 2.199744808546782483e-03
5.156097766491425318e+03 6.263178334610279840e-01 2.844815901414292705e-03
5.161253864257918394e+03 6.260034385490547137e-01 3.280528314414093288e-03
5.166415118122177773e+03 6.282810001505195752e-01 3.341742562722016096e-03
5.171581533240301724e+03 6.342843594698326370e-01 3.183497082575291199e-03
5.176753114773543530e+03 6.442346640313969530e-01 3.621076129999343304e-03
5.181929867888318768e+03 6.573384489172097167e-01 4.934309100367259213e-03
5.187111797756208944e+03 6.724111755336170670e-01 5.647518975752258315e-03
5.192298909553966951e+03 6.876641850438790504e-01 5.254549178202764029e-03
5.197491208463522526e+03 7.018666356217380109e-01 3.834624071600276941e-03
5.202688699671987706e+03 7.110623298966937123e-01 3.864280394181203622e-03
5.207891388371661378e+03 7.158949771832326947e-01 5.126505827756115338e-03
5.213099279760034733e+03 7.194186945850681303e-01 5.375852484728821726e-03
5.218312379039796724e+03 7.233845447575507626e-01 4.600934231064988424e-03
5.223530691418837705e+03 7.290260419533257652e-01 4.052996124767147684e-03
5.228754222110258524e+03 7.352217666314341260e-01 4.725054310908411229e-03
5.233982976332370527e+03 7.405936193583594340e-01 5.031254627492328692e-03
5.239216959308704645e+03 7.447337239970160949e-01 4.577192374814788474e-03
5.244456176268015042e+03 7.470185514967794260e-01 3.785790223968514556e-03
5.249700632444284565e+03 7.458921851388655710e-01 4.056773843388384801e-03
5.254950333076731113e+03 7.435341608465314556e-01 5.117858130014242730e-03
5.260205283409809454e+03 7.415357766914730808e-01 5.752964209641751175e-03
5.265465488693221232e+03 7.406953043654872504e-01 5.437115681072203152e-03
5.270730954181915877e+03 7.420309916752128032e-01 4.691486416561995755e-03
5.276001685136099695e+03 7.466268483992967164e-01 4.797646512057373094e-03
5.281277686821237694e+03 7.542500607048202577e-01 5.395078776313281220e-03
5.286558964508059944e+03 7.645206112509268515e-01 5.813584284356507204e-03
5.291845523472569766e+03 7.775474576933406601e-01 5.737037503493788715e-03
5.297137368996044643e+03 7.920249296952942553e-01 4.539702679316455144e-03
5.302434506365042580e+03 8.048612702531672269e-01 3.803422120444391319e-03
5.307736940871409388e+03 8.143222973914742147e-01 4.154677454040898478e-03
5.313044677812282316e+03 8.208096525751632511e-01 4.241571903323470248e-03
5.318357722490096421e+03 8.252516714070970982e-01 3.495614059192164811e-03
5.323676080212588204e+03 8.302961242629174343e-01 2.843599449195516760e-03
5.328999756292802886e+03 8.362876747600743732e-01 2.512435773405010970e-03
5.334328756049097137e+03 8.434726307206551477e-01 2.424967634875461759e-03
5.339663084805148173e+03 8.529688326213957783e-01 2.268891338128980421e-03
5.345002747889954662e+03 8.635852549030569314e-01 1.203772352454163816e-03
5.350347750637846730e+03 8.733844310897428409e-01 1.237739667285394762e-03
5.355698098388485960e+03 8.814735051243575148e-01 1.478917095842123466e-03
5.361053796486876308e+03 8.878531428334485165e-01 1.730862948072381564e-03
5.366414850283365013e+03 8.920080543145655350e-01 1.688009906874250472e-03
5.371781265133649867e+03 8.943746708571121973e-01 1.488651577066147161e-03
5.377153046398785591e+03 8.948819258482098027e-01 1.536634039681311669e-03
5.382530199445186554e+03 8.935399105528880614e-01 2.216214222076860144e-03
5.387912729644633146e+03 8.915304484248948169e-01 2.940691522186050528e-03
5.393300642374279960e+03 8.910358716665990331e-01 3.320801342557596833e-03
5.398693943016655794e+03 8.932627514917501621e-01 2.844616119122283984e-03
5.404092636959673655e+03 8.991560927055641805e-01 2.274956307778425862e-03
5.409496729596635305e+03 9.089128718898067394e-01 2.327299434630397332e-03
5.414906226326233991e+03 9.224676247469525414e-01 2.989643849061579886e-03
5.420321132552561721e+03 9.388679881035986163e-01 3.659360282380865609e-03
5.425741453685116539e+03 9.564288559663084444e-01 3.645401596204564387e-03
5.431167195138803436e+03 9.728104766934249081e-01 3.005574686564797642e-03
5.436598362333943442e+03 9.859183773672191009e-01 2.092867045015702528e-03
5.442034960696279086e+03 9.948990955425831562e-01 1.860864078391370269e-03
5.447476995656978033e+03 9.994047571904185467e-01 2.353637389280356217e-03
5.452924472652636723e+03 1.000621949941550515e+00 2.696032180587636107e-03
5.458377397125291282e+03 9.989347031500572793e-01 2.679777366503760007e-03
5.463835774522417523e+03 9.962773099563361212e-01 2.224349981864458259e-03
5.469299610296941864e+03 9.941667280888561997e-01 1.343571498716116799e-03
5.474768909907241323e+03 9.938010112714653621e-01 1.429876795385632421e-03
5.480243678817149885e+03 9.952777630416067556e-01 1.810728928041072106e-03
5.485723922495968509e+03 9.979361885296229584e-01 1.701888533562201725e-03
5.491209646418466946e+03 1.001392243720456321e+00 1.686739169047064141e-03
5.496700856064887375e+03 1.006262131993894249e+00 2.071700271405909569e-03
5.502197556920953502e+03 1.013396461040259044e+00 2.692315365353993399e-03
5.507699754477876013e+03 1.022985470588725576e+00 3.076319647223960292e-03
5.513207454232356213e+03 1.035677366506048358e+00 2.803164784419936474e-03
5.518720661686590574e+03 1.051573815864057515e+00 2.758755325398281558e-03
5.524239382348278923e+03 1.070223202933442419e+00 3.696234958874910093e-03
5.529763621730628984e+03 1.090089868045363453e+00 4.681178159922688188e-03
5.535293385352360929e+03 1.109240251149896883e+00 4.923442485574822634e-03
5.540828678737715563e+03 1.125355026076099385e+00 4.517543878387444978e-03
5.546369507416455235e+03 1.136824283329685548e+00 3.711351474463280616e-03
5.551915876923872929e+03 1.142295993575278779e+00 3.238719730829957462e-03
5.557467792800798634e+03 1.141223319425545668e+00 3.915246688760230971e-03
5.563025260593602070e+03 1.133997914561871267e+00 4.395560871616874775e-03
5.568588285854197238e+03 1.122349932553725838e+00 3.978760661262270223e-03
5.574156874140053333e+03 1.108915392527963339e+00 3.094055706011947324e-03
5.579731031014194741e+03 1.096251581384943607e+00 1.761140183311580122e-03
5.585310762045211050e+03 1.086176757821461614e+00 1.297447366355715045e-03
5.590896072807257951e+03 1.079087784569114028e+00 1.904184920602729203e-03
5.596486968880067252e+03 1.074457449916705887e+00 2.300162590291335036e-03
5.602083455848949598e+03 1.070808782825167782e+00 1.795063144235377285e-03
5.607685539304799931e+03 1.067544245805411407e+00 1.279906590609109938e-03
5.613293224844106589e+03 1.063950679219237028e+00 1.080427115533734829e-03
5.618906518068952209e+03 1.060032093397712760e+00 1.119878332999482739e-03
5.624525424587023736e+03 1.056070146347412031e+00 1.259551694819282652e-03
5.630149950011612418e+03 1.052317012605440860e+00 1.227163984544529969e-03
5.635780099961625638e+03 1.048670349620206554e+00 1.122940420436876292e-03
5.641415880061589633e+03 1.045050727784750277e+00 9.814580939638069441e-04
5.647057295941652228e+03 1.041867221262338772e+00 9.837961482807554021e-04
5.652704353237596479e+03 1.038961118105023118e+00 1.003509958436420591e-03
5.658357057590835211e+03 1.036249823821826510e+00 1.147803158313283681e-03
5.664015414648428305e+03 1.033403029490364666e+00 1.113166370303243433e-03
5.669679430063079053e+03 1.030357551597038679e+00 8.456147166744438148e-04
5.675349109493143260e+03 1.026772255558094260e+00 7.914382308450494501e-04
5.681024458602638333e+03 1.022251029473141504e+00 8.997894899365640976e-04
5.686705483061243285e+03 1.017375259126257259e+00 9.649130276992665687e-04
5.692392188544306009e+03 1.012565606603375246e+00 9.842997472311637748e-04
5.698084580732852373e+03 1.008804750551006491e+00 9.978510033331231769e-04
5.703782665313587131e+03 1.006319069456740989e+00 9.557534522026155718e-04
5.709486447978903016e+03 1.004312736996308519e+00 8.481354530420733354e-04
5.715195934426883468e+03 1.003386610537874590e+00 9.969972581780855818e-04
5.720911130361312644e+03 1.002790151153412079e+00 1.086411605127453371e-03
5.726632041491675409e+03 1.000966820220613229e+00 1.557366945143617582e-03
5.732358673533169167e+03 9.978871597852772002e-01 1.691685741751957663e-03
5.738091032206703858e+03 9.930923360948914480e-01 1.554248439072184254e-03
5.743829123238912871e+03 9.857547692548735974e-01 1.301763488854758158e-03
5.749572952362153046e+03 9.753134451412917016e-01 1.397312133494049528e-03
5.755322525314517407e+03 9.630457769896023645e-01 1.957407279516313291e-03
5.761077847839834249e+03 9.511400165194990874e-01 2.652412050143119950e-03
5.766838925687675328e+03 9.409255120305781706e-01 3.545267857109173082e-03
5.772605764613364954e+03 9.270661117918685967e-01 3.602578311867478834e-03
5.778378370377980900e+03 9.104081683887691456e-01 2.410829887618073410e-03
5.784156748748360769e+03 9.012017597360594268e-01 3.124964687943205914e-03
5.789940905497111089e+03 9.007830342619652653e-01 3.511365103622495799e-03
5.795730846402610041e+03 9.014091211025322403e-01 2.566067364879952208e-03
5.801526577249013826e+03 8.982461057343307242e-01 1.984688864360881124e-03
5.807328103826264851e+03 8.927791756759692055e-01 1.561701757532968186e-03
5.813135431930093546e+03 8.855799760344544858e-01 9.400554107978068745e-04
5.818948567362025642e+03 8.781451577513769147e-01 7.661890405749647399e-04
5.824767515929389447e+03 8.699339130917493890e-01 7.393244403830631032e-04
5.830592283445320390e+03 8.608761526962195321e-01 7.103603126195111653e-04
5.836422875728768304e+03 8.518721009111324127e-01 6.819212827060262784e-04
5.842259298604498326e+03 8.432206618929651842e-01 6.354639144783340516e-04
5.848101557903105459e+03 8.364754422408471335e-01 8.716617376619587802e-04
5.853949659461010015e+03 8.316626199427182842e-01 9.386279847385754424e-04
5.859803609120473084e+03 8.308414479282780762e-01 1.027010539443599674e-03
5.865663412729595620e+03 8.369833304613826241e-01 2.219773694815471623e-03
5.871529076142326630e+03 8.525196752494402785e-01 4.025263241768527352e-03
