# starting wavelength: 3150.240
# ending wavelength: 8775.960
# wav flux eflux
3.153225454340461056e+03 2.992688726027749047e-01 8.882589067697193100e-03
3.156378679794802792e+03 2.992950196727326428e-01 6.665389769385011293e-03
3.159535058474598372e+03 2.977797023128627707e-01 4.920871594410764806e-03
3.162694593533074112e+03 2.962241198267004383e-01 3.744853255507091423e-03
3.165857288126608182e+03 2.939096488065310320e-01 2.854813357912094375e-03
3.169023145414736064e+03 2.914274779496925927e-01 2.226849901326922315e-03
3.172192168560151458e+03 2.886804208043407538e-01 1.767498803074141417e-03
3.175364360728712654e+03 2.859152898512966612e-01 1.431100634342781898e-03
3.178539725089442527e+03 2.831468197288659061e-01 1.230212942789512534e-03
3.181718264814533086e+03 2.807590628825166745e-01 1.184674665529391940e-03
3.184899983079348658e+03 2.789205396449724872e-01 1.134649052111857308e-03
3.188084883062429071e+03 2.776493255499847268e-01 1.146475892978074179e-03
3.191272967945492383e+03 2.765858362701005824e-01 1.035095917453166805e-03
3.194464240913438971e+03 2.756226255329259356e-01 9.482284114416513268e-04
3.197658705154353811e+03 2.748979365180577727e-01 8.827800096942321805e-04
3.200856363859509202e+03 2.743629877049815757e-01 8.365786574709223626e-04
3.204057220223369768e+03 2.738940323901325469e-01 7.978525351302928788e-04
3.207261277443593826e+03 2.734724402435061430e-01 7.663287820469525183e-04
3.210468538721038840e+03 2.729420823062686519e-01 7.493382673828656321e-04
3.213679007259760965e+03 2.726749356171447314e-01 7.366481187558495672e-04
3.216892686267021418e+03 2.725506725449720058e-01 7.300639800850637585e-04
3.220109578953289656e+03 2.724140368298443859e-01 7.109464951217864042e-04
3.223329688532243836e+03 2.721439829109848496e-01 7.238416950822497030e-04
3.226553018220777176e+03 2.719455054132149940e-01 7.409311342216680796e-04
3.229779571238999324e+03 2.717773497608687028e-01 7.542968049494050940e-04
3.233009350810239084e+03 2.718783438605307246e-01 7.626779929721123202e-04
3.236242360161050783e+03 2.719231734309753290e-01 7.745569369476313802e-04
3.239478602521212906e+03 2.719656632275141983e-01 8.070663444453260492e-04
3.242718081123734919e+03 2.714300589136821595e-01 7.929461668268411806e-04
3.245960799204859995e+03 2.711369045788210586e-01 7.893260439041791454e-04
3.249206760004065927e+03 2.708007950949346543e-01 7.865593556587275551e-04
3.252455966764071036e+03 2.704026546361365524e-01 8.100144744159142821e-04
3.255708422730835991e+03 2.701719466552192084e-01 8.033192513268160593e-04
3.258964131153567905e+03 2.699504837926625100e-01 7.795987786314566726e-04
3.262223095284722604e+03 2.695811107740218038e-01 7.922687601522991228e-04
3.265485318380008266e+03 2.692254149310669420e-01 7.870199567475182545e-04
3.268750803698389518e+03 2.688141189680983145e-01 7.796590246818354978e-04
3.272019554502088795e+03 2.688392369703444529e-01 7.556111704150326710e-04
3.275291574056592253e+03 2.690192971956127943e-01 7.206867247579842092e-04
3.278566865630649772e+03 2.690271166203659359e-01 7.226293947909859499e-04
3.281845432496281319e+03 2.691007687287803041e-01 7.146655910170928664e-04
3.285127277928778767e+03 2.691965002225683024e-01 6.666392183271018521e-04
3.288412405206708627e+03 2.692984742945995214e-01 6.193810690688035308e-04
3.291700817611916591e+03 2.698166950568724465e-01 5.364855947794705321e-04
3.294992518429529355e+03 2.705464745661716464e-01 5.120911716194080296e-04
3.298287510947960072e+03 2.716448015918583869e-01 4.988998222200446758e-04
3.301585798458909267e+03 2.732137202983825897e-01 5.162649405379064575e-04
3.304887384257369376e+03 2.751005383632141865e-01 5.361870325486649703e-04
3.308192271641627485e+03 2.768609131650882627e-01 5.457730158688083770e-04
3.311500463913270323e+03 2.790563898316822389e-01 5.451605651729394186e-04
3.314811964377184722e+03 2.814869173682336134e-01 5.347109669947909712e-04
3.318126776341563072e+03 2.839411843671847957e-01 5.070647915601744988e-04
3.321444903117905596e+03 2.863651332889390333e-01 4.748681069984154253e-04
3.324766348021024896e+03 2.887141387198308151e-01 4.646182828161564285e-04
3.328091114369046863e+03 2.912674775470353583e-01 4.214591343975686538e-04
3.331419205483417045e+03 2.935618855658368997e-01 4.154831605980000876e-04
3.334750624688901553e+03 2.958806950438072625e-01 3.856729513284854328e-04
3.338085375313591612e+03 2.982419471815745404e-01 3.890486209784258182e-04
3.341423460688906289e+03 3.005858338509443395e-01 4.112476614111088263e-04
3.344764884149596128e+03 3.029916844114465824e-01 4.279416919947506056e-04
3.348109649033746791e+03 3.049610421216401024e-01 4.041756266770960113e-04
3.351457758682781787e+03 3.066107391160723949e-01 4.112077719823556128e-04
3.354809216441465651e+03 3.080618018680657544e-01 3.955822525847494026e-04
3.358164025657908041e+03 3.094920415049395856e-01 3.824687714950126887e-04
3.361522189683567376e+03 3.104991711919409814e-01 4.059827101052655945e-04
3.364883711873251741e+03 3.113410755264463536e-01 4.162601890692307059e-04
3.368248595585126168e+03 3.120336149339016374e-01 4.232438029187888151e-04
3.371616844180712633e+03 3.125751418725504216e-01 4.198222618691324235e-04
3.374988461024894150e+03 3.130291226305441099e-01 4.232113550246308933e-04
3.378363449485920228e+03 3.132729058680313039e-01 4.464659869794214246e-04
3.381741812935407324e+03 3.136168742924869135e-01 4.544208533424001360e-04
3.385123554748343849e+03 3.139582994732783017e-01 4.615156464755621715e-04
3.388508678303093347e+03 3.140524326870299809e-01 5.601891324031987559e-04
3.391897186981397681e+03 3.141277026818380391e-01 6.703732794817265396e-04
3.395289084168380214e+03 3.144293277070858705e-01 6.415400224796260304e-04
3.398684373252549449e+03 3.151587972463467668e-01 6.254015266373456417e-04
3.402083057625803121e+03 3.159506754152437979e-01 5.637633514702325866e-04
3.405485140683430018e+03 3.172069271042450289e-01 5.926183462362319019e-04
3.408890625824114522e+03 3.191055323455286863e-01 8.304740204960678329e-04
3.412299516449939802e+03 3.211483128860528891e-01 9.691433060697994973e-04
3.415711815966390986e+03 3.230938779904916069e-01 9.739198831648341898e-04
3.419127527782358356e+03 3.250797183145826552e-01 9.151465327152866333e-04
3.422546655310141887e+03 3.269797813970886646e-01 9.066976271095389221e-04
3.425969201965453522e+03 3.287806243310328891e-01 8.900530545122259211e-04
3.429395171167419903e+03 3.302596166922321386e-01 9.046861175980023314e-04
3.432824566338588284e+03 3.315540914473347756e-01 9.678867815997339863e-04
3.436257390904928343e+03 3.325045225911596458e-01 1.045652823037323403e-03
3.439693648295834464e+03 3.336337259737562344e-01 1.098576427366406349e-03
3.443133341944131189e+03 3.348064442895242743e-01 1.144234391182299493e-03
3.446576475286076402e+03 3.362592132621146090e-01 1.128402312160538658e-03
3.450023051761363604e+03 3.376114829653857896e-01 1.048667762865616686e-03
3.453473074813126004e+03 3.390560540700956471e-01 1.023360665463637171e-03
3.456926547887940615e+03 3.407914203803676934e-01 1.089557828311234818e-03
3.460383474435829612e+03 3.422521596907672214e-01 1.094958072753228614e-03
3.463843857910266706e+03 3.434753532360727557e-01 1.080987360609235882e-03
3.467307701768178049e+03 3.447130307716925746e-01 1.035295053621062547e-03
3.470775009469947236e+03 3.457805986411048305e-01 9.413504869312064880e-04
3.474245784479418489e+03 3.467411204231011790e-01 8.660310770931924692e-04
3.477720030263898934e+03 3.473826381165959210e-01 8.359877907596700419e-04
3.481197750294164052e+03 3.482503566759248548e-01 7.924852607378699877e-04
3.484678948044459503e+03 3.485297962074667133e-01 8.221154086747365199e-04
3.488163626992504760e+03 3.483130003871977021e-01 8.301860914630218450e-04
3.491651790619498570e+03 3.480561951771123930e-01 7.300627948550384144e-04
3.495143442410119405e+03 3.480029930940247151e-01 6.677597594902097379e-04
3.498638585852530468e+03 3.476387889947187837e-01 5.434310378803376826e-04
3.502137224438384237e+03 3.475588703883189523e-01 5.847791253173571921e-04
3.505639361662823831e+03 3.477576189529512085e-01 6.334942747084361912e-04
3.509145001024487556e+03 3.477971104637013755e-01 6.523091616884354321e-04
3.512654146025513455e+03 3.475101887765748021e-01 6.356667040946262530e-04
3.516166800171540217e+03 3.472984932760523336e-01 5.873691812388663830e-04
3.519682966971712631e+03 3.470574574025117043e-01 5.534697549208220449e-04
3.523202649938685681e+03 3.464898688807726557e-01 8.094017233300722283e-04
3.526725852588625457e+03 3.461010133762146279e-01 8.639529169121109870e-04
3.530252578441215064e+03 3.455789499799255537e-01 9.703659486638184506e-04
3.533782831019657806e+03 3.455129766977014238e-01 9.613247410767629441e-04
3.537316613850678550e+03 3.453874621567913916e-01 9.593676902059375747e-04
3.540853930464530094e+03 3.456017416953601762e-01 1.179962301159799684e-03
3.544394784394995895e+03 3.458062312031877084e-01 1.330283400001824228e-03
3.547939179179392340e+03 3.461344790241010494e-01 1.586642883476161022e-03
3.551487118358572843e+03 3.464669756743983808e-01 1.657701532595137837e-03
3.555038605476932389e+03 3.470876426024361860e-01 1.716464535383772265e-03
3.558593644082410719e+03 3.470039270922654628e-01 1.764396399070301217e-03
3.562152237726494150e+03 3.462224497477555119e-01 2.204693610210215014e-03
3.565714389964221937e+03 3.456197081459050913e-01 2.516515285387050348e-03
3.569280104354187188e+03 3.451316596477410625e-01 2.608346394482824113e-03
3.572849384458542772e+03 3.456315539366363598e-01 2.468073710446757729e-03
3.576422233843002232e+03 3.466253063997751238e-01 2.210463025073688970e-03
3.579998656076846601e+03 3.488090928578482797e-01 2.100510074237612029e-03
3.583578654732924406e+03 3.519642317254634833e-01 2.098433226217826832e-03
3.587162233387658489e+03 3.555895508182326248e-01 2.041972525607833270e-03
3.590749395621047370e+03 3.595807843330002807e-01 1.895166540117739157e-03
3.594340145016669794e+03 3.638411422650060789e-01 1.755328078973763086e-03
3.597934485161687462e+03 3.687001270663691210e-01 1.429490957826844155e-03
3.601532419646850485e+03 3.734744936203082677e-01 1.226762331480281323e-03
3.605133952066498296e+03 3.781944773423091544e-01 1.095394696018249080e-03
3.608739086018566013e+03 3.827213028163464759e-01 9.528827305235573926e-04
3.612347825104585809e+03 3.871060581248169652e-01 8.467382466791021495e-04
3.615960172929691907e+03 3.909739268231815501e-01 6.449466956343468662e-04
3.619576133102622407e+03 3.942932826834222304e-01 6.345255414725964023e-04
3.623195709235726554e+03 3.971849783324384320e-01 6.331670643575158623e-04
3.626818904944963379e+03 3.994350473364324250e-01 6.136572944819840281e-04
3.630445723849909427e+03 4.014312150818806213e-01 5.140677380630925180e-04
3.634076169573760581e+03 4.026877381237748965e-01 4.493639202688419661e-04
3.637710245743335690e+03 4.033908874540024780e-01 3.992022162780968085e-04
3.641347955989080219e+03 4.033527976108355340e-01 4.912917251792555491e-04
3.644989303945070333e+03 4.024550406687575355e-01 7.846020687224340142e-04
3.648634293249016537e+03 4.014324383209270652e-01 7.667890883576155290e-04
3.652282927542266862e+03 4.000963353411057244e-01 7.481391865912555630e-04
3.655935210469810499e+03 3.985369583052744136e-01 9.096799223778427677e-04
3.659591145680281443e+03 3.966625578281380848e-01 1.013931931461974859e-03
3.663250736825963031e+03 3.945414400750610895e-01 1.268687554906844329e-03
3.666913987562790226e+03 3.927359230742342722e-01 1.607855384383913852e-03
3.670580901550354156e+03 3.908699349333516482e-01 1.785680699986684277e-03
3.674251482451905758e+03 3.890601718243252849e-01 2.005323614283420399e-03
3.677925733934358959e+03 3.867732158313995083e-01 2.334914678318009400e-03
3.681603659668294313e+03 3.839722786392262277e-01 2.739601225025180276e-03
3.685285263327964003e+03 3.807894431914857769e-01 3.080909212886295562e-03
3.688970548591293209e+03 3.779805876271951637e-01 3.479130399082929447e-03
3.692659519139885560e+03 3.752786065048311359e-01 3.887408313674724399e-03
3.696352178659026777e+03 3.724300789326457917e-01 4.258096343109486412e-03
3.700048530837686940e+03 3.712142053499435934e-01 4.787820026947261186e-03
3.703748579368525952e+03 3.711167380354052359e-01 5.324570102154430572e-03
3.707452327947895355e+03 3.746791530982160334e-01 5.481685760284103065e-03
3.711159780275844696e+03 3.777473407190541921e-01 5.548025115932139588e-03
3.714870940056121526e+03 3.809287374086026690e-01 5.546471942488796075e-03
3.718585810996179134e+03 3.788691432131077175e-01 5.731661350097469118e-03
3.722304396807176545e+03 3.714843530843602859e-01 2.378003638422051830e-03
3.726026701203984885e+03 3.717821439366783554e-01 2.578147445312155891e-03
3.729752727905190113e+03 3.736512735624267778e-01 2.536667504739549463e-03
3.733482480633096657e+03 3.740802856294495049e-01 2.516057288296905375e-03
3.737215963113731050e+03 3.745509493014811397e-01 1.593551682696913666e-03
3.740953179076846027e+03 3.740417818055497556e-01 1.781504832871824403e-03
3.744694132255923705e+03 3.739170459546259373e-01 1.489766610797296645e-03
3.748438826388181042e+03 3.747296634469677867e-01 1.411841143834384124e-03
3.752187265214570289e+03 3.756260933084924480e-01 1.452868811878352262e-03
3.755939452479786269e+03 3.759972259353473456e-01 1.414977756299398313e-03
3.759695391932267285e+03 3.760173695581206510e-01 1.288189408211655581e-03
3.763455087324201031e+03 3.757940715318163205e-01 1.188536269586893410e-03
3.767218542411526414e+03 3.752757276558500443e-01 1.217828962183124634e-03
3.770985760953939007e+03 3.751640207147250994e-01 1.245054318445756088e-03
3.774756746714894234e+03 3.754769678524859655e-01 1.345850304118228428e-03
3.778531503461610555e+03 3.771983352984356608e-01 1.271298629711295177e-03
3.782310034965073100e+03 3.801656420631694955e-01 1.213484626810626106e-03
3.786092345000039586e+03 3.839211686592791106e-01 1.039603903205665262e-03
3.789878437345040766e+03 3.893794189854107302e-01 1.158654123835648397e-03
3.793668315782387253e+03 3.956531467288776915e-01 1.216759261509076095e-03
3.797461984098170888e+03 4.032900463146925074e-01 1.218573895566225918e-03
3.801259446082270188e+03 4.117998310107728877e-01 9.029117808092212635e-04
3.805060705528353537e+03 4.205720462141424032e-01 6.506810528418624636e-04
3.808865766233883278e+03 4.290390265818203042e-01 9.154777285367252408e-04
3.812674632000118436e+03 4.377428926978432222e-01 8.687682929616649240e-04
3.816487306632119726e+03 4.469577831348019448e-01 8.476618595439700584e-04
3.820303793938753188e+03 4.564302929522650043e-01 1.003389664481502738e-03
3.824124097732693372e+03 4.659371119959875296e-01 1.222383050476055256e-03
3.827948221830427428e+03 4.752091398435042691e-01 1.244349475826127260e-03
3.831776170052258749e+03 4.843931192978950806e-01 1.304834724547134688e-03
3.835607946222312421e+03 4.938963911945384866e-01 1.353784447223993969e-03
3.839443554168536139e+03 5.034224163550422571e-01 1.575761349382940940e-03
3.843282997722705659e+03 5.133485650166061953e-01 1.725394408630861673e-03
3.847126280720429804e+03 5.235140574838368366e-01 1.628984797042500781e-03
3.850973407001151372e+03 5.349306514749205821e-01 1.633648937812978231e-03
3.854824380408153957e+03 5.472852792673218447e-01 1.877094406883500141e-03
3.858679204788563311e+03 5.602336049262020001e-01 1.991385506319079141e-03
3.862537883993353262e+03 5.746837051817175190e-01 2.016921596793618942e-03
3.866400421877347981e+03 5.900090318143954571e-01 1.989110670846322600e-03
3.870266822299226533e+03 6.068073860388641938e-01 1.827425659208047450e-03
3.874137089121526969e+03 6.241849563016649283e-01 1.913635298926248240e-03
3.878011226210649966e+03 6.416237485945052166e-01 2.153819081063135764e-03
3.881889237436861549e+03 6.597590514149770380e-01 1.763237677392802405e-03
3.885771126674299921e+03 6.798307766548978837e-01 1.274707052238590330e-03
3.889656897800975457e+03 7.025576837993530166e-01 1.299800336830062367e-03
3.893546554698777527e+03 7.270611150362289443e-01 1.295907212408934413e-03
3.897440101253477678e+03 7.535626996146280732e-01 1.107486560921320216e-03
3.901337541354732366e+03 7.810194375367007780e-01 1.024551864133210147e-03
3.905238878896088409e+03 8.096218837830460036e-01 9.760750217608761634e-04
3.909144117774985716e+03 8.386443373550835911e-01 8.734189418763936563e-04
3.913053261892762293e+03 8.667266938995227266e-01 8.726049752287932514e-04
3.916966315154656058e+03 8.942308468734719851e-01 1.263664396078957673e-03
3.920883281469812118e+03 9.196352996216189402e-01 1.451464074681172670e-03
3.924804164751283224e+03 9.423897842612919407e-01 1.396087617471572203e-03
3.928728968916035683e+03 9.621340843830126222e-01 1.033296970951820201e-03
3.932657697884953450e+03 9.779345954838345456e-01 8.639055405730979931e-04
3.936590355582839493e+03 9.893895418417522070e-01 9.631562792169021548e-04
3.940526945938423523e+03 9.968700983944231986e-01 1.262871582372031287e-03
3.944467472884363360e+03 1.001207131276655948e+00 1.412752951128085554e-03
3.948411940357249023e+03 1.002983162175517640e+00 1.340243551362513014e-03
3.952360352297607733e+03 1.002532014641259517e+00 1.099603323036474085e-03
3.956312712649906643e+03 1.001364502504977327e+00 8.079893746484730034e-04
3.960269025362557841e+03 1.000336204291716991e+00 5.011764938796404046e-04
3.964229294387921527e+03 1.000205578285530583e+00 5.968697042541009799e-04
3.968193523682310570e+03 1.000622324792780793e+00 8.280594883146422157e-04
3.972161717205994591e+03 1.001246485822269827e+00 8.496207655837537684e-04
3.976133878923201792e+03 1.001989759647719636e+00 8.092755068189804802e-04
3.980110012802126221e+03 1.002609752817033684e+00 6.194463608904484438e-04
3.984090122814929600e+03 1.002743945596412445e+00 5.685710588627157286e-04
3.988074212937745870e+03 1.002570154743799957e+00 5.507329645802375813e-04
3.992062287150684824e+03 1.001963314684098938e+00 5.943969210682817231e-04
3.996054349437837118e+03 1.000000385174197204e+00 6.690045110342051401e-04
4.000050403787276082e+03 9.964399324932399216e-01 7.531362270915483185e-04
4.004050454191064546e+03 9.911301863531298828e-01 8.315183708410975793e-04
4.008054504645257111e+03 9.837474710321832960e-01 7.884037868002550685e-04
4.012062559149903791e+03 9.738691835525008500e-01 8.127782782664099174e-04
4.016074621709055009e+03 9.621003137374128933e-01 8.485268645646971237e-04
4.020090696330765240e+03 9.486760324897052232e-01 9.071293998040636701e-04
4.024110787027097558e+03 9.337477572500214595e-01 1.073322893588600935e-03
4.028134897814125907e+03 9.174591663046330892e-01 1.227793730202521956e-03
4.032163032711941469e+03 9.007261632497998161e-01 1.077226017927539149e-03
4.036195195744654484e+03 8.841027579781476353e-01 7.673567080815104887e-04
4.040231390940400615e+03 8.686540425994579984e-01 5.445143205167760547e-04
4.044271622331342314e+03 8.546467273660337538e-01 6.678281981693290131e-04
4.048315893953675186e+03 8.418437614172563643e-01 7.315412832766372223e-04
4.052364209847629809e+03 8.304114488965969043e-01 7.026313145524849726e-04
4.056416574057479011e+03 8.195033284955024477e-01 6.050341847088400822e-04
4.060472990631537868e+03 8.088213913105999353e-01 6.163202165435188555e-04
4.064533463622170530e+03 7.986698729984836875e-01 6.185026151004466462e-04
4.068597997085794304e+03 7.886908191195538542e-01 7.017863826835763754e-04
4.072666595082881486e+03 7.782276109650392293e-01 9.629348239599196417e-04
4.076739261677965715e+03 7.671082285933685796e-01 1.122175580848990429e-03
4.080816000939644709e+03 7.551992673674654544e-01 1.065102137716368320e-03
4.084896816940585722e+03 7.417870059937218263e-01 1.044389322313652715e-03
4.088981713757527814e+03 7.270091385918252547e-01 1.196142051187872816e-03
4.093070695471286854e+03 7.121112211429115879e-01 1.397282130296261101e-03
4.097163766166759160e+03 6.970945706928172170e-01 1.784151406141804095e-03
4.101260929932927866e+03 6.828830620616490599e-01 1.792336058884237606e-03
4.105362190862862008e+03 6.699293416874597673e-01 1.541799131906342567e-03
