# starting wavelength: 2864.870
# ending wavelength: 8364.840
# wav flux eflux
2.867594001198737260e+03 3.974980214526253164e+00 1.169019499176200509e-02
2.870461595199936710e+03 3.943332422593787800e+00 9.509092418314331330e-03
2.873332056795137760e+03 3.909317686482546073e+00 8.181120117561368685e-03
2.876205388851934003e+03 3.872850442216998257e+00 7.293395042552525999e-03
2.879081594240786671e+03 3.835812564955372483e+00 6.322214426282760438e-03
2.881960675835028724e+03 3.801310293475748114e+00 5.997296496304056063e-03
2.884842636510864395e+03 3.770931842799261080e+00 6.489814330596779986e-03
2.887727479147376471e+03 3.743952930393972700e+00 6.792942703705669855e-03
2.890615206626524468e+03 3.719845111769115586e+00 6.928152917044774241e-03
2.893505821833151913e+03 3.695148889810418336e+00 6.641012759615001933e-03
2.896399327654986337e+03 3.676599728919804022e+00 7.052778620711453589e-03
2.899295726982642009e+03 3.660577296460316266e+00 7.699639512378630285e-03
2.902195022709625846e+03 3.645555457265465371e+00 8.258742763566492492e-03
2.905097217732336503e+03 3.631256507814770274e+00 8.603506564405711751e-03
2.908002314950069831e+03 3.617333743102626453e+00 8.716503408519482576e-03
2.910910317265020694e+03 3.605449578564167812e+00 9.234686113095431220e-03
2.913821227582286610e+03 3.592731049665518483e+00 9.105132798656727713e-03
2.916735048809870023e+03 3.581175794342818186e+00 6.672965505400715522e-03
2.919651783858680574e+03 3.562243110739156116e+00 6.313630032097888346e-03
2.922571435642540564e+03 3.539749346375839600e+00 7.266501995070015832e-03
2.925494007078184040e+03 3.516388013019073888e+00 7.862285173433613064e-03
2.928419501085263164e+03 3.492473566711911559e+00 8.090505715389486804e-03
2.931347920586349119e+03 3.466839196731646755e+00 8.163952675229752681e-03
2.934279268506936660e+03 3.440250493796024323e+00 8.059265656996536520e-03
2.937213547775444567e+03 3.412393317367437451e+00 7.870350619862947344e-03
2.940150761323221104e+03 3.383722560266980484e+00 7.663041953748219934e-03
2.943090912084544925e+03 3.354634206707071353e+00 7.533471983286083550e-03
2.946034002996630534e+03 3.324746625099147757e+00 7.467877338647002303e-03
2.948980036999628283e+03 3.292337244141828378e+00 7.495659456353850544e-03
2.951929017036628920e+03 3.261387541989170469e+00 7.632696074683056192e-03
2.954880946053666321e+03 3.229680210221388847e+00 7.640470579248168428e-03
2.957835826999721121e+03 3.198761952394857389e+00 7.563874597523928718e-03
2.960793662826721629e+03 3.167512120003793008e+00 7.805350236340729934e-03
2.963754456489549284e+03 3.136373310104422441e+00 8.265142493313729771e-03
2.966718210946040017e+03 3.108082401056544430e+00 8.660510993528491852e-03
2.969684929156986982e+03 3.083589123699641110e+00 8.967168666477865271e-03
2.972654614086145102e+03 3.063062908954826469e+00 9.503970749754614769e-03
2.975627268700231980e+03 3.043874571017280317e+00 9.649340570220708499e-03
2.978602895968933353e+03 3.027346578797861287e+00 9.344399531808777332e-03
2.981581498864903097e+03 3.015006066694517983e+00 8.762407219546226519e-03
2.984563080363769132e+03 3.008021156667378460e+00 8.435388826934814288e-03
2.987547643444133882e+03 3.005917449691739574e+00 8.429473996960961529e-03
2.990535191087578823e+03 3.007709368342043277e+00 8.505639150171918905e-03
2.993525726278667662e+03 3.012926587074694851e+00 8.630782900437280331e-03
2.996519252004947248e+03 3.022344611927669789e+00 9.070196169987060006e-03
2.999515771256953030e+03 3.035990983557907974e+00 9.679816800679854824e-03
3.002515287028211333e+03 3.052702916607049399e+00 1.001946906674323207e-02
3.005517802315240260e+03 3.068944617260975338e+00 1.007544048553397908e-02
3.008523320117556523e+03 3.089640675545900272e+00 9.823297705858413317e-03
3.011531843437674979e+03 3.111833684012197843e+00 8.727789001518831621e-03
3.014543375281113640e+03 3.134773606983276117e+00 5.970199455632240956e-03
3.017557918656395941e+03 3.154171439839051683e+00 4.377227420827322669e-03
3.020575476575053472e+03 3.168813271585153579e+00 4.692606595868237772e-03
3.023596052051629158e+03 3.179336250149060739e+00 5.350652036384728576e-03
3.026619648103681811e+03 3.186370216506914765e+00 5.559828159959700165e-03
3.029646267751786581e+03 3.192537357361764805e+00 5.337879743858975519e-03
3.032675914019539505e+03 3.195811149405523466e+00 4.641825361883901782e-03
3.035708589933559779e+03 3.196901662486016260e+00 3.887030450543083829e-03
3.038744298523494763e+03 3.195895682820919514e+00 3.236328859897602897e-03
3.041783042822019070e+03 3.193816512739064084e+00 3.438024060954482375e-03
3.044824825864842296e+03 3.190794842818187149e+00 4.017976541473708245e-03
3.047869650690708113e+03 3.185577957402286664e+00 4.020979044752328625e-03
3.050917520341399722e+03 3.177348309298665185e+00 3.390653017439767061e-03
3.053968437861742132e+03 3.165339910950486058e+00 3.117138688039086409e-03
3.057022406299604881e+03 3.149842834803512570e+00 3.143541387354183148e-03
3.060079428705905229e+03 3.132236459725846078e+00 3.238631188928561225e-03
3.063139508134612242e+03 3.111634585152042387e+00 3.276270268594907130e-03
3.066202647642748161e+03 3.088613239475540340e+00 3.374087859928478692e-03
3.069268850290391583e+03 3.063230551032902760e+00 3.484791361949440575e-03
3.072338119140682920e+03 3.035831784500415242e+00 3.499249245311139740e-03
3.075410457259824852e+03 3.006651879772331171e+00 3.473334234017201247e-03
3.078485867717085512e+03 2.975644868762538753e+00 3.407712659032990313e-03
3.081564353584803939e+03 2.943190350377320907e+00 3.371458476622405526e-03
3.084645917938389630e+03 2.910417268962055104e+00 3.082022554682305095e-03
3.087730563856328899e+03 2.877202349000298476e+00 2.684844203412185566e-03
3.090818294420186248e+03 2.844537195488574532e+00 2.462304941527515036e-03
3.093909112714607545e+03 2.813690403283546804e+00 2.498941223991023395e-03
3.097003021827323209e+03 2.785359915731505431e+00 2.508045880808375434e-03
3.100100024849151396e+03 2.760026955086158917e+00 2.533573430892370297e-03
3.103200124874001631e+03 2.737579370058599082e+00 2.616466942001557071e-03
3.106303324998876633e+03 2.717490560107774122e+00 2.559545700044738199e-03
3.109409628323876859e+03 2.699230457789295823e+00 2.511206123092019418e-03
3.112519037952201415e+03 2.682173039551885019e+00 2.503735148604148506e-03
3.115631556990154877e+03 2.666923080483532882e+00 2.564657675500146838e-03
3.118747188547145925e+03 2.653183168409825488e+00 2.524370167214814650e-03
3.121865935735694165e+03 2.642209102698279910e+00 2.508842943022395692e-03
3.124987801671431043e+03 2.633770628896416888e+00 2.520053323608785999e-03
3.128112789473103476e+03 2.627298751542762378e+00 2.592670819390760148e-03
3.131240902262577492e+03 2.622697855306500792e+00 2.710165310167944770e-03
3.134372143164840963e+03 2.621387605116029640e+00 2.687258388442575942e-03
3.137506515308006783e+03 2.620734067812613866e+00 2.404372921421956636e-03
3.140644021823316052e+03 2.619524387989582426e+00 2.233766085812425618e-03
3.143784665845140353e+03 2.617411057769751359e+00 2.210903072354457235e-03
3.146928450510986750e+03 2.614746596204742701e+00 2.198944429219629008e-03
3.150075378961498700e+03 2.610960673595769777e+00 2.245890994092049949e-03
3.153225454340461056e+03 2.606626915873918371e+00 2.285775386650962422e-03
3.156378679794802792e+03 2.601382380899054603e+00 2.290189722446866420e-03
3.159535058474598372e+03 2.595890058414966894e+00 2.296414681867951519e-03
3.162694593533074112e+03 2.590370262628839626e+00 2.282678530119330168e-03
3.165857288126608182e+03 2.584538521721264637e+00 2.283518868579812247e-03
3.169023145414736064e+03 2.577916221152452447e+00 2.280091983809342734e-03
3.172192168560151458e+03 2.570700234722699484e+00 2.357976877837666182e-03
3.175364360728712654e+03 2.562493191725722319e+00 2.379996934424847936e-03
3.178539725089442527e+03 2.553085897927811043e+00 2.393233337252386860e-03
3.181718264814533086e+03 2.543169005193231857e+00 2.184755191203609399e-03
3.184899983079348658e+03 2.533678842416124954e+00 1.875922790844738574e-03
3.188084883062429071e+03 2.525801457570131525e+00 1.842295660944454636e-03
3.191272967945492383e+03 2.519769110140235302e+00 1.753715664268445896e-03
3.194464240913438971e+03 2.514052825157321980e+00 1.634234921148689694e-03
3.197658705154353811e+03 2.508764079220942911e+00 1.654996491821298038e-03
3.200856363859509202e+03 2.503703318047012516e+00 1.699962309823115905e-03
3.204057220223369768e+03 2.499734831564662141e+00 1.587413354428772981e-03
3.207261277443593826e+03 2.497198258592243647e+00 1.502438168225604274e-03
3.210468538721038840e+03 2.495852220358473428e+00 1.456414888451823021e-03
3.213679007259760965e+03 2.495776050276100388e+00 1.475757898990674938e-03
3.216892686267021418e+03 2.497012214080837289e+00 1.547276016273239907e-03
3.220109578953289656e+03 2.499673988682776571e+00 1.474879870774400623e-03
3.223329688532243836e+03 2.502953678708922602e+00 1.333604855660897124e-03
3.226553018220777176e+03 2.507245278990740456e+00 1.268184461088878775e-03
3.229779571238999324e+03 2.512100583536392762e+00 1.250746759076501805e-03
3.233009350810239084e+03 2.517523125785149141e+00 1.231741729591289032e-03
3.236242360161050783e+03 2.522444102147107348e+00 1.229804280756049625e-03
3.239478602521212906e+03 2.527393081759853555e+00 1.246655974953563353e-03
3.242718081123734919e+03 2.532185655719911832e+00 1.363548960818313383e-03
3.245960799204859995e+03 2.537135440973872669e+00 1.332758524986936812e-03
3.249206760004065927e+03 2.541681659156271422e+00 1.115003932898372529e-03
3.252455966764071036e+03 2.545234135683694721e+00 1.230506132933460164e-03
3.255708422730835991e+03 2.547696612346300515e+00 1.609234424422020500e-03
3.258964131153567905e+03 2.549675812090704596e+00 1.815377761196419011e-03
3.262223095284722604e+03 2.552114977106239468e+00 1.704876691759972789e-03
3.265485318380008266e+03 2.555455132765000137e+00 1.567477338700281860e-03
3.268750803698389518e+03 2.559851315974059460e+00 1.644257731274012795e-03
3.272019554502088795e+03 2.564741051147649387e+00 1.750934483657745578e-03
3.275291574056592253e+03 2.569223499509649233e+00 1.791930250825566435e-03
3.278566865630649772e+03 2.573697247326370174e+00 1.868244378981716910e-03
3.281845432496281319e+03 2.578034430070193395e+00 1.950481490627914601e-03
3.285127277928778767e+03 2.581748192972748601e+00 1.978399038820457742e-03
3.288412405206708627e+03 2.585253419987456169e+00 1.820675434043711243e-03
3.291700817611916591e+03 2.587699565447864281e+00 1.698255061324566596e-03
3.294992518429529355e+03 2.589105543015812305e+00 1.612488159552304774e-03
3.298287510947960072e+03 2.589182991770730968e+00 1.642337467453793779e-03
3.301585798458909267e+03 2.587002841196555547e+00 1.492934621259916139e-03
3.304887384257369376e+03 2.583672102846185759e+00 1.525344855737148985e-03
3.308192271641627485e+03 2.578671260244255414e+00 1.657253693635876409e-03
3.311500463913270323e+03 2.571449751526029726e+00 1.717549012647094381e-03
3.314811964377184722e+03 2.562603249489929791e+00 1.785711081942414815e-03
3.318126776341563072e+03 2.551778072728981162e+00 1.645049114581592902e-03
3.321444903117905596e+03 2.538975880427145615e+00 1.674564965267663456e-03
3.324766348021024896e+03 2.524710402910856466e+00 1.858743756935259421e-03
3.328091114369046863e+03 2.508976137013559704e+00 2.100789524268522734e-03
3.331419205483417045e+03 2.492192255124912936e+00 2.109585482022697123e-03
3.334750624688901553e+03 2.475343326398512289e+00 1.756066001422569882e-03
3.338085375313591612e+03 2.458397085888539557e+00 1.542611830223072954e-03
3.341423460688906289e+03 2.442309264579416439e+00 1.429070728027675204e-03
3.344764884149596128e+03 2.427235654746383808e+00 1.435671773972462635e-03
3.348109649033746791e+03 2.413094825191080428e+00 1.426098604908162398e-03
3.351457758682781787e+03 2.401048953228299698e+00 1.380477221807029737e-03
3.354809216441465651e+03 2.390367474921571311e+00 1.127014070918062189e-03
3.358164025657908041e+03 2.380197109895828778e+00 1.012774529378912807e-03
3.361522189683567376e+03 2.370278989078547394e+00 1.031058921939661827e-03
3.364883711873251741e+03 2.360705777279770157e+00 1.042217140261753614e-03
3.368248595585126168e+03 2.351726144007021624e+00 1.011143850089494828e-03
3.371616844180712633e+03 2.343239539096333868e+00 1.146286329032046884e-03
3.374988461024894150e+03 2.334933287200739560e+00 1.302508223304426347e-03
3.378363449485920228e+03 2.326469740879592685e+00 1.278857425492622253e-03
3.381741812935407324e+03 2.317649733929547207e+00 1.162297694571197285e-03
3.385123554748343849e+03 2.308371647705804275e+00 1.012100931302601162e-03
3.388508678303093347e+03 2.298009628167459351e+00 1.419729002493537928e-03
3.391897186981397681e+03 2.287334831307540117e+00 1.598433869245420016e-03
3.395289084168380214e+03 2.277393083591915612e+00 1.574919534930424104e-03
3.398684373252549449e+03 2.267178719166676792e+00 1.317918402180913743e-03
3.402083057625803121e+03 2.257970387535395140e+00 1.043572319889197368e-03
3.405485140683430018e+03 2.250398262119017723e+00 1.194307031784929210e-03
3.408890625824114522e+03 2.243431351874130009e+00 1.283129885637194264e-03
3.412299516449939802e+03 2.236889856029034895e+00 1.353311619600723863e-03
3.415711815966390986e+03 2.230435258453324465e+00 1.384481094940476177e-03
3.419127527782358356e+03 2.224148786063821603e+00 1.193705114226473098e-03
3.422546655310141887e+03 2.217564223850674754e+00 9.480436954638505470e-04
3.425969201965453522e+03 2.210325888484209855e+00 8.605849729747408819e-04
3.429395171167419903e+03 2.201780425495110993e+00 8.474273619483681848e-04
3.432824566338588284e+03 2.192011184149758485e+00 7.239525799575461090e-04
3.436257390904928343e+03 2.181403983657620671e+00 6.277108908736827317e-04
3.439693648295834464e+03 2.170741195458127937e+00 7.748780763613242768e-04
3.443133341944131189e+03 2.159446549135798588e+00 9.309539310153085645e-04
3.446576475286076402e+03 2.147179708104068219e+00 8.756229815635149837e-04
3.450023051761363604e+03 2.134308021549736090e+00 8.391191124782893104e-04
3.453473074813126004e+03 2.120794898556261909e+00 1.037857212514741584e-03
3.456926547887940615e+03 2.106717324081496034e+00 1.251742309421287986e-03
3.460383474435829612e+03 2.093054296863909425e+00 1.267241174413002601e-03
3.463843857910266706e+03 2.080514755742578270e+00 1.078781326737069269e-03
3.467307701768178049e+03 2.069073206442536783e+00 9.679735487446734093e-04
3.470775009469947236e+03 2.059022943182364784e+00 1.133024944037450913e-03
3.474245784479418489e+03 2.049759677228808474e+00 1.273572789643483789e-03
3.477720030263898934e+03 2.041342568043853500e+00 1.379292823727677276e-03
3.481197750294164052e+03 2.033015465259389920e+00 1.265365774632177696e-03
3.484678948044459503e+03 2.024279590707564136e+00 1.134528762374023168e-03
3.488163626992504760e+03 2.014682672878290948e+00 9.683388041723845104e-04
3.491651790619498570e+03 2.004132317127758522e+00 8.358982328266135239e-04
3.495143442410119405e+03 1.992307273846009252e+00 1.060361239790552548e-03
3.498638585852530468e+03 1.979377949042989471e+00 1.213193674543386639e-03
3.502137224438384237e+03 1.966229757712071535e+00 8.259609902764544114e-04
3.505639361662823831e+03 1.954458530188778242e+00 7.725080384261845271e-04
3.509145001024487556e+03 1.943056991429865432e+00 7.380314992381420327e-04
3.512654146025513455e+03 1.932509439078819558e+00 6.992175029277097019e-04
3.516166800171540217e+03 1.923411181322682850e+00 7.144386131429130348e-04
3.519682966971712631e+03 1.915539254754497822e+00 7.163158303332099871e-04
3.523202649938685681e+03 1.908375831197887340e+00 7.407285509222707618e-04
3.526725852588625457e+03 1.902362086603505142e+00 7.549531989407211492e-04
3.530252578441215064e+03 1.897782893372174540e+00 7.486077990229122710e-04
3.533782831019657806e+03 1.893997315504892587e+00 8.274774395833103639e-04
3.537316613850678550e+03 1.890838189768862865e+00 9.651025321322386809e-04
3.540853930464530094e+03 1.887606138066058925e+00 1.101402337198248513e-03
3.544394784394995895e+03 1.884182639239938784e+00 1.134075806352736549e-03
3.547939179179392340e+03 1.880096251001807550e+00 1.091684962668599884e-03
3.551487118358572843e+03 1.875438067957467592e+00 9.839637090892970703e-04
3.555038605476932389e+03 1.869955022468087424e+00 1.200898527754017293e-03
3.558593644082410719e+03 1.864067314187187074e+00 1.461461205919877123e-03
3.562152237726494150e+03 1.858228188384900337e+00 1.481006941315911275e-03
3.565714389964221937e+03 1.852862568364317619e+00 1.181355509879852351e-03
3.569280104354187188e+03 1.848529767918895894e+00 9.643235161687810060e-04
3.572849384458542772e+03 1.845752385868454137e+00 9.650621765153055568e-04
3.576422233843002232e+03 1.844001902622728561e+00 9.574611690783235533e-04
3.579998656076846601e+03 1.843701780729740669e+00 9.795682615459946029e-04
3.583578654732924406e+03 1.844879439180330927e+00 8.217918917592210385e-04
3.587162233387658489e+03 1.847097040839573934e+00 7.272806050372854257e-04
3.590749395621047370e+03 1.850023000748816981e+00 7.674143813037190764e-04
3.594340145016669794e+03 1.853843092523361546e+00 7.571141708896179153e-04
3.597934485161687462e+03 1.858335041360622997e+00 9.050610429963165497e-04
3.601532419646850485e+03 1.862968734130250548e+00 1.176992481864573385e-03
3.605133952066498296e+03 1.867064357519711004e+00 1.230903770850315425e-03
3.608739086018566013e+03 1.870414981697895218e+00 1.175725113543477866e-03
3.612347825104585809e+03 1.873122929051056929e+00 1.066275201616387639e-03
3.615960172929691907e+03 1.874692496075017756e+00 1.044487389352125387e-03
3.619576133102622407e+03 1.875259555265222700e+00 1.053309665638691621e-03
3.623195709235726554e+03 1.874370699739597690e+00 1.041226246152920009e-03
3.626818904944963379e+03 1.872370378554830239e+00 9.465369791021335626e-04
3.630445723849909427e+03 1.869635137976437989e+00 8.325457658416289021e-04
3.634076169573760581e+03 1.866415461117620023e+00 8.114962378014071304e-04
3.637710245743335690e+03 1.862753279714566501e+00 8.312125235684804641e-04
3.641347955989080219e+03 1.858651568123495856e+00 8.272212375915495705e-04
3.644989303945070333e+03 1.854657401381410553e+00 7.964273263991577525e-04
3.648634293249016537e+03 1.850684460316677438e+00 8.833758522036016777e-04
3.652282927542266862e+03 1.846849253349710285e+00 9.836746689912002472e-04
3.655935210469810499e+03 1.843294938601130140e+00 8.962209379796084617e-04
3.659591145680281443e+03 1.840655045611876428e+00 7.086837833881152191e-04
3.663250736825963031e+03 1.838949418523206703e+00 7.380014155924020285e-04
3.666913987562790226e+03 1.838274890311866638e+00 8.904646074401776842e-04
3.670580901550354156e+03 1.838347808886965806e+00 8.355729332134502300e-04
3.674251482451905758e+03 1.838545939291108322e+00 7.315336011988642691e-04
3.677925733934358959e+03 1.839008445590331720e+00 6.462393149959225246e-04
3.681603659668294313e+03 1.839511751133160899e+00 5.198193832561482037e-04
3.685285263327964003e+03 1.839367870731416943e+00 6.063133654636099299e-04
3.688970548591293209e+03 1.839114988670133899e+00 6.888171624173108172e-04
3.692659519139885560e+03 1.838577734385726359e+00 6.658585508763383270e-04
3.696352178659026777e+03 1.837999501891885989e+00 5.007627153329391239e-04
3.700048530837686940e+03 1.837600067467448195e+00 5.453728948481751824e-04
3.703748579368525952e+03 1.837219815538503109e+00 7.729353172807829032e-04
3.707452327947895355e+03 1.836530282194600572e+00 8.069234311153542167e-04
3.711159780275844696e+03 1.834850688088607296e+00 7.093991154885682417e-04
3.714870940056121526e+03 1.832390237630015628e+00 5.822072443806699475e-04
3.718585810996179134e+03 1.828888550310960648e+00 5.635174582559432073e-04
3.722304396807176545e+03 1.824246985875868088e+00 7.160344327633213221e-04
3.726026701203984885e+03 1.818909294130197418e+00 7.353081647495483689e-04
3.729752727905190113e+03 1.813385100397450600e+00 7.086743814513613406e-04
3.733482480633096657e+03 1.807681844170913044e+00 6.409684935330634903e-04
