# starting wavelength: 2579.440
# ending wavelength: 6463.390
# wav flux eflux
2.581900656032661573e+03 1.956534354313138158e+00 1.201246955404404460e-01
2.584482556688695240e+03 1.897445957808336914e+00 9.989504876392861499e-02
2.587067039245384876e+03 1.811500808991369116e+00 1.138125600439534452e-01
2.589654106284630871e+03 1.754841517609964097e+00 8.796989200593659242e-02
2.592243760390916577e+03 1.724406547738199347e+00 6.866079302668899598e-02
2.594836004151308316e+03 1.707350162865407528e+00 6.012525904498252499e-02
2.597430840155460373e+03 1.681690538131112911e+00 4.857414844514850588e-02
2.600028270995616822e+03 1.657499936920312500e+00 4.013307106689085330e-02
2.602628299266613340e+03 1.632545507355677605e+00 3.495874362143544523e-02
2.605230927565880847e+03 1.605889570997901750e+00 3.017560337330605150e-02
2.607836158493447329e+03 1.579128321950928449e+00 2.648095327984350059e-02
2.610443994651941921e+03 1.555355780432286616e+00 2.371395116468600489e-02
2.613054438646594463e+03 1.534629053429605650e+00 2.143331371196583596e-02
2.615667493085241858e+03 1.512637577521721122e+00 1.972935924759494988e-02
2.618283160578328079e+03 1.502968001264876508e+00 1.925425109669416657e-02
2.620901443738907346e+03 1.491393345822609184e+00 1.824659249143391337e-02
2.623522345182646859e+03 1.477172714262636521e+00 1.720005572827398160e-02
2.626145867527830433e+03 1.461452487563959179e+00 1.638091733124953306e-02
2.628772013395359409e+03 1.448577210429765838e+00 1.573355888052269808e-02
2.631400785408755382e+03 1.434738495155443827e+00 1.527419065310890549e-02
2.634032186194165206e+03 1.418928629628129601e+00 1.534368507739867181e-02
2.636666218380360078e+03 1.407531349859246106e+00 1.487052197827094628e-02
2.639302884598741457e+03 1.396900402838398225e+00 1.429817582529184332e-02
2.641942187483341058e+03 1.391343417760251722e+00 1.340861032412492444e-02
2.644584129670825405e+03 1.386592088546372725e+00 1.241454877292321596e-02
2.647228713800496735e+03 1.386397681488148903e+00 1.197900646814389035e-02
2.649875942514298458e+03 1.388659924407190882e+00 1.212255215760501235e-02
2.652525818456813340e+03 1.400437490351268188e+00 1.237428902829429411e-02
2.655178344275271229e+03 1.410053161845729708e+00 1.173477141493549543e-02
2.657833522619547239e+03 1.418119581141861429e+00 1.170748761890846174e-02
2.660491356142167660e+03 1.431419507403789204e+00 1.143956696852339860e-02
2.663151847498310872e+03 1.449922319167378459e+00 1.105091140396368028e-02
2.665814999345810065e+03 1.470283503930539970e+00 1.069392054219032301e-02
2.668480814345156887e+03 1.490291659170117633e+00 9.890665881814916099e-03
2.671149295159502799e+03 1.514191722919808525e+00 8.943776933935790319e-03
2.673820444454663175e+03 1.542583061875625328e+00 8.594490117491228320e-03
2.676494264899118662e+03 1.576653888602458808e+00 8.853815945859070877e-03
2.679170759164018818e+03 1.614970901362738465e+00 9.116723075638417592e-03
2.681849929923183481e+03 1.656041585277330253e+00 7.735626988308636973e-03
2.684531779853107764e+03 1.694947517057788122e+00 7.385052498485446953e-03
2.687216311632961606e+03 1.735426186128212755e+00 7.520646377715703088e-03
2.689903527944595680e+03 1.771749852139838710e+00 7.637351301179121262e-03
2.692593431472540942e+03 1.811135394996226999e+00 7.201217248342946242e-03
2.695286024904014539e+03 1.846483309751442592e+00 7.027675008419143575e-03
2.697981310928919356e+03 1.876431280062087259e+00 6.845747323354039841e-03
2.700679292239849019e+03 1.902527726537641684e+00 6.778126728078740296e-03
2.703379971532089712e+03 1.924095440896984588e+00 7.117607976381435525e-03
2.706083351503622907e+03 1.944735545614177941e+00 7.217959632016537549e-03
2.708789434855127183e+03 1.964361160047930932e+00 6.767525535407103131e-03
2.711498224289983227e+03 1.979090188992477239e+00 6.987283265136530301e-03
2.714209722514274290e+03 1.990804116357238751e+00 7.165497747656380222e-03
2.716923932236789369e+03 2.001193001538876359e+00 7.031428452059821158e-03
2.719640856169027302e+03 2.011174974053393516e+00 6.747416445950540388e-03
2.722360497025197219e+03 2.018499075918229746e+00 6.201123774527105871e-03
2.725082857522223094e+03 2.025102551353312297e+00 5.332255509576879979e-03
2.727807940379746015e+03 2.032214601892686545e+00 5.046126360789415441e-03
2.730535748320126913e+03 2.037728855436967024e+00 4.848938874437712029e-03
2.733266284068447931e+03 2.044849199787516891e+00 4.778851813783846492e-03
2.735999550352517417e+03 2.051990545289672507e+00 4.698580729437344672e-03
2.738735549902870844e+03 2.061605228030072290e+00 4.506596152934532092e-03
2.741474285452774438e+03 2.073443898195985735e+00 3.924535370471459762e-03
2.744215759738227916e+03 2.083961974208587531e+00 4.066653808696051031e-03
2.746959975497967207e+03 2.097556270132513667e+00 3.833270806449656353e-03
2.749706935473466274e+03 2.112819117754424436e+00 3.645278565696948980e-03
2.752456642408940297e+03 2.128800992142712456e+00 3.655920845863421410e-03
2.755209099051350222e+03 2.144724041667266157e+00 3.571346592159267783e-03
2.757964308150402758e+03 2.160641664897599235e+00 3.542993453315211247e-03
2.760722272458554016e+03 2.176931055503976253e+00 3.604289055969118766e-03
2.763482994731013605e+03 2.193578564828856159e+00 3.658008480652883733e-03
2.766246477725745535e+03 2.208102917827702960e+00 3.828770998257103285e-03
2.769012724203471862e+03 2.223005759528856817e+00 3.966923441802536199e-03
2.771781736927676320e+03 2.237131531461311607e+00 3.956380686726289342e-03
2.774553518664604780e+03 2.253347710525881009e+00 4.198080455950587916e-03
2.777328072183270706e+03 2.267439175248569416e+00 4.021283527813019482e-03
2.780105400255454697e+03 2.277950992664657281e+00 3.869980446007487314e-03
2.782885505655710858e+03 2.284401067351669923e+00 3.884605449941878636e-03
2.785668391161367708e+03 2.288067934892116462e+00 4.036677118634389438e-03
2.788454059552529998e+03 2.289478836899183634e+00 4.091188780913721651e-03
2.791242513612083258e+03 2.285966602982623552e+00 4.083804014198859009e-03
2.794033756125696527e+03 2.276109974637420486e+00 4.096123584453561194e-03
2.796827789881823264e+03 2.261770376554578466e+00 4.182770270833992103e-03
2.799624617671705892e+03 2.243825043153251375e+00 4.496779359805531083e-03
2.802424242289378526e+03 2.224284514500113108e+00 4.532225091399054960e-03
2.805226666531668798e+03 2.200364933584807670e+00 4.635991777038382319e-03
2.808031893198201487e+03 2.175600583479377459e+00 4.828001893364012274e-03
2.810839925091400346e+03 2.147780659660343705e+00 5.121877652770088357e-03
2.813650765016492642e+03 2.117605587603921258e+00 5.260384379195974860e-03
2.816464415781510070e+03 2.086523733364765043e+00 5.155225460203068620e-03
2.819280880197292845e+03 2.053275025447917290e+00 5.137374641121241273e-03
2.822100161077491066e+03 2.021776759232615017e+00 4.945739455905791629e-03
2.824922261238569263e+03 1.991020405111775471e+00 4.913687547649089188e-03
2.827747183499808671e+03 1.962641878323543310e+00 4.993227521074139821e-03
2.830574930683309503e+03 1.936840246066916515e+00 4.968444750460550285e-03
2.833405505613993682e+03 1.914601575141709144e+00 4.820717532203658284e-03
2.836238911119608929e+03 1.894291104232686429e+00 4.810177921203070105e-03
2.839075150030729219e+03 1.876577964824717615e+00 4.868289690757345890e-03
2.841914225180761150e+03 1.861359827353604501e+00 4.924562364056602089e-03
2.844756139405942577e+03 1.846540401410208476e+00 4.389680667817965828e-03
2.847600895545349431e+03 1.838839020159334092e+00 4.607400556181692058e-03
2.850448496440895724e+03 1.835723090634196142e+00 4.638441045634713981e-03
2.853298944937337637e+03 1.834457864842484742e+00 4.505624896461850673e-03
2.856152243882275798e+03 1.834543589359597382e+00 3.296610870722967851e-03
2.859008396126159369e+03 1.842099511147628155e+00 3.390394891115324025e-03
2.861867404522286051e+03 1.857995785335066596e+00 3.569707098030977521e-03
2.864729271926809361e+03 1.876985734018795648e+00 3.620173699459028425e-03
2.867594001198737260e+03 1.900221062987677234e+00 4.493813205557364680e-03
2.870461595199936710e+03 1.926217009364787014e+00 5.917055843047113947e-03
2.873332056795137760e+03 1.951568473104377199e+00 6.273912216213164972e-03
2.876205388851934003e+03 1.982172216636949091e+00 9.161350786727412779e-03
2.879081594240786671e+03 2.003829818952066688e+00 8.991560677640878310e-03
2.881960675835028724e+03 2.018883306176602943e+00 8.933595107551949022e-03
2.884842636510864395e+03 2.029036328414776325e+00 9.735344962492271589e-03
2.887727479147376471e+03 2.038972678685502249e+00 1.007012738728635913e-02
2.890615206626524468e+03 2.040696809214494145e+00 1.184280736939699596e-02
2.893505821833151913e+03 2.041562909134518655e+00 1.347754408098204501e-02
2.896399327654986337e+03 2.033584342448358395e+00 1.376466647745895090e-02
2.899295726982642009e+03 2.032275856994436136e+00 1.245355359716911539e-02
2.902195022709625846e+03 2.035568744640140704e+00 1.266170732713502167e-02
2.905097217732336503e+03 2.039740414895196086e+00 1.359139638504111222e-02
2.908002314950069831e+03 2.046004875062733763e+00 1.578388539048948547e-02
2.910910317265020694e+03 2.055685976966100448e+00 1.729413035168930746e-02
2.913821227582286610e+03 2.064919632661670335e+00 1.814295626614217255e-02
2.916735048809870023e+03 2.071707951211749332e+00 1.718510056031974029e-02
2.919651783858680574e+03 2.072988077628632020e+00 1.530447621162647764e-02
2.922571435642540564e+03 2.060437333816098171e+00 1.587976156519697868e-02
2.925494007078184040e+03 2.042268343472811054e+00 1.683684462320798533e-02
2.928419501085263164e+03 2.012501035060385579e+00 1.807887957844216478e-02
2.931347920586349119e+03 1.971593242992669026e+00 1.725036162177063376e-02
2.934279268506936660e+03 1.919321913552230141e+00 1.234447457974423464e-02
2.937213547775444567e+03 1.882416312844855666e+00 8.929098263540744679e-03
2.940150761323221104e+03 1.867805728264718912e+00 4.548158767034393528e-03
2.943090912084544925e+03 1.851469314751400086e+00 4.713980042324860190e-03
2.946034002996630534e+03 1.842251941707786056e+00 3.998403652972881694e-03
2.948980036999628283e+03 1.842125307155501490e+00 5.126352894755604496e-03
2.951929017036628920e+03 1.843487987100129288e+00 5.221738695384371687e-03
2.954880946053666321e+03 1.842765428468069455e+00 5.276700193593062208e-03
2.957835826999721121e+03 1.839937519216016559e+00 5.423514457695337299e-03
2.960793662826721629e+03 1.835332037772403169e+00 4.775651219734118602e-03
2.963754456489549284e+03 1.827249204917189340e+00 5.027446065567016745e-03
2.966718210946040017e+03 1.816799472831398754e+00 5.232421694260569293e-03
2.969684929156986982e+03 1.804440887656466375e+00 5.339100914672198495e-03
2.972654614086145102e+03 1.790297014538023923e+00 5.179221279275939525e-03
2.975627268700231980e+03 1.775159996275487151e+00 5.666069140728431652e-03
2.978602895968933353e+03 1.759956747360055473e+00 5.560510136123574497e-03
2.981581498864903097e+03 1.749890981962211489e+00 5.114276534677313774e-03
2.984563080363769132e+03 1.743420774963489572e+00 5.325032223264036108e-03
2.987547643444133882e+03 1.746735776851160660e+00 5.298778975115017893e-03
2.990535191087578823e+03 1.755806004303802403e+00 5.381348159304947913e-03
2.993525726278667662e+03 1.772611617471112622e+00 6.328190622514390760e-03
2.996519252004947248e+03 1.792243824395187035e+00 6.025004048078964024e-03
2.999515771256953030e+03 1.813219679557983799e+00 6.402325562260364512e-03
3.002515287028211333e+03 1.830982210327047222e+00 6.798991307948158182e-03
3.005517802315240260e+03 1.842329358361593172e+00 6.981329340592006515e-03
3.008523320117556523e+03 1.850561439634104133e+00 5.665250530725790719e-03
3.011531843437674979e+03 1.851670462371559411e+00 6.086521074584622451e-03
3.014543375281113640e+03 1.846571257249341791e+00 7.405315350972995446e-03
3.017557918656395941e+03 1.838312018405475534e+00 8.174866413506353541e-03
3.020575476575053472e+03 1.828602074086849827e+00 6.696054934680941047e-03
3.023596052051629158e+03 1.819265289921924600e+00 4.929474974825439650e-03
3.026619648103681811e+03 1.816099580880253805e+00 6.126301578186736999e-03
3.029646267751786581e+03 1.814772637422199519e+00 6.191892618053915394e-03
3.032675914019539505e+03 1.812488619987233207e+00 6.547951069971772939e-03
3.035708589933559779e+03 1.815451778472706446e+00 6.525441963721762863e-03
3.038744298523494763e+03 1.823368800258020173e+00 6.233674981538484851e-03
3.041783042822019070e+03 1.830831870245009929e+00 6.100343837051170823e-03
3.044824825864842296e+03 1.841940346981487675e+00 5.987065101322598497e-03
3.047869650690708113e+03 1.852958604270052101e+00 5.982796295191184291e-03
3.050917520341399722e+03 1.865230511966906146e+00 6.711280896345424990e-03
3.053968437861742132e+03 1.873499650809406614e+00 7.180014903416923923e-03
3.057022406299604881e+03 1.880409437581041399e+00 7.172789586711393606e-03
3.060079428705905229e+03 1.882916364630144779e+00 6.333330230066395485e-03
3.063139508134612242e+03 1.878744576372709307e+00 6.234574859083362279e-03
3.066202647642748161e+03 1.868700383896324757e+00 6.917824251174435786e-03
3.069268850290391583e+03 1.855648752606521290e+00 6.954220270683357345e-03
3.072338119140682920e+03 1.835740099018416949e+00 6.721644220278510419e-03
3.075410457259824852e+03 1.816297955146217502e+00 5.946390535531240196e-03
3.078485867717085512e+03 1.795490612746970971e+00 5.695266079667922476e-03
3.081564353584803939e+03 1.774031287586668171e+00 5.540413137323123467e-03
3.084645917938389630e+03 1.758165503382232764e+00 4.816038556310631158e-03
3.087730563856328899e+03 1.740895062826445683e+00 5.684306183895063320e-03
3.090818294420186248e+03 1.725231537425924389e+00 6.115647905705585280e-03
3.093909112714607545e+03 1.717601291395099761e+00 6.073523970279450478e-03
3.097003021827323209e+03 1.715644717798103347e+00 7.071988606191842788e-03
3.100100024849151396e+03 1.713127813783327680e+00 7.423519156759240088e-03
3.103200124874001631e+03 1.709445704571945557e+00 7.397437097154206317e-03
3.106303324998876633e+03 1.707771983451915609e+00 7.701601280638127080e-03
3.109409628323876859e+03 1.704137737185982937e+00 7.211566445016145445e-03
3.112519037952201415e+03 1.699523204060672033e+00 6.689469478443959768e-03
3.115631556990154877e+03 1.691786488451901382e+00 6.392172104440211472e-03
3.118747188547145925e+03 1.680661164239538374e+00 6.669374952492052727e-03
3.121865935735694165e+03 1.666279520034007700e+00 6.305042702362099322e-03
3.124987801671431043e+03 1.649852419400891224e+00 5.779179437721660741e-03
3.128112789473103476e+03 1.635120941151598339e+00 5.366538884666545439e-03
3.131240902262577492e+03 1.620266341486222172e+00 4.761515343672822857e-03
3.134372143164840963e+03 1.610161431518771558e+00 4.401325459421684058e-03
3.137506515308006783e+03 1.600171229025458830e+00 4.475174868878938582e-03
3.140644021823316052e+03 1.592833431747112005e+00 5.038521053828946307e-03
3.143784665845140353e+03 1.591039671493722496e+00 5.023689319727431615e-03
3.146928450510986750e+03 1.589054252102382936e+00 4.938616020581627387e-03
3.150075378961498700e+03 1.594215803169193313e+00 4.328260343891493847e-03
3.153225454340461056e+03 1.605120961154250958e+00 5.443203949901874797e-03
3.156378679794802792e+03 1.618471708444195523e+00 5.547782330085135674e-03
3.159535058474598372e+03 1.631145588059517149e+00 5.492910194549381966e-03
3.162694593533074112e+03 1.643372797283654041e+00 5.532181519856758933e-03
3.165857288126608182e+03 1.653974881713708989e+00 4.497645489591176396e-03
3.169023145414736064e+03 1.659620894671650193e+00 4.228102093672359008e-03
3.172192168560151458e+03 1.660784689154850113e+00 3.597157609028576834e-03
3.175364360728712654e+03 1.650734311095599427e+00 4.637245551111723006e-03
3.178539725089442527e+03 1.634591695038500658e+00 5.691038395715585126e-03
3.181718264814533086e+03 1.614948037494763788e+00 6.341973364818428820e-03
3.184899983079348658e+03 1.594532736682073626e+00 5.379319004697944752e-03
3.188084883062429071e+03 1.577730174927073570e+00 4.730299733917689951e-03
3.191272967945492383e+03 1.566012790454120118e+00 4.643839892972508737e-03
3.194464240913438971e+03 1.557424629276596528e+00 4.543625463242845913e-03
3.197658705154353811e+03 1.553646662676474444e+00 4.650094422444192924e-03
3.200856363859509202e+03 1.553581017385997187e+00 4.658623129982140260e-03
3.204057220223369768e+03 1.556948960521600256e+00 4.411456627261407110e-03
3.207261277443593826e+03 1.562584812798325062e+00 4.349866104544540535e-03
3.210468538721038840e+03 1.573763458654330094e+00 4.051878493478576655e-03
3.213679007259760965e+03 1.583611799695855193e+00 3.341699490700353672e-03
3.216892686267021418e+03 1.591555917302658330e+00 3.223026596083682343e-03
3.220109578953289656e+03 1.596871812695530801e+00 3.159874004549736038e-03
3.223329688532243836e+03 1.600633320043225449e+00 3.506875838260127120e-03
3.226553018220777176e+03 1.600926614558841887e+00 3.768397650030123631e-03
3.229779571238999324e+03 1.596235142309199162e+00 4.032036921017233960e-03
3.233009350810239084e+03 1.590707185532879819e+00 4.107046720463466277e-03
3.236242360161050783e+03 1.581285687511865712e+00 4.971250587452524967e-03
3.239478602521212906e+03 1.572242628959778177e+00 5.452369983336329343e-03
3.242718081123734919e+03 1.567228634103565277e+00 4.611392374369956658e-03
3.245960799204859995e+03 1.564915586201747866e+00 4.012814974379843268e-03
3.249206760004065927e+03 1.566808365265661473e+00 3.877428479755136697e-03
3.252455966764071036e+03 1.574042368169962236e+00 4.191935224282342630e-03
3.255708422730835991e+03 1.583160248707917939e+00 4.086864031943291710e-03
3.258964131153567905e+03 1.598177004003642487e+00 4.174726892233857241e-03
3.262223095284722604e+03 1.613489813011253826e+00 3.687523416327162691e-03
3.265485318380008266e+03 1.627517709317042538e+00 3.780002790218439483e-03
3.268750803698389518e+03 1.642770834438824989e+00 3.818517358194147091e-03
3.272019554502088795e+03 1.659635696844787622e+00 3.698375823737928836e-03
3.275291574056592253e+03 1.674648227680986645e+00 3.427659812931600509e-03
3.278566865630649772e+03 1.688637353763449589e+00 3.131922506572702714e-03
3.281845432496281319e+03 1.702097679833062704e+00 2.970568836884302129e-03
3.285127277928778767e+03 1.716437694814245463e+00 2.976928643204641671e-03
3.288412405206708627e+03 1.729227758828376871e+00 2.546517817842117257e-03
3.291700817611916591e+03 1.738650494221005482e+00 2.699562337285967353e-03
3.294992518429529355e+03 1.747868164321905837e+00 2.599989855123839393e-03
3.298287510947960072e+03 1.753829676493685819e+00 2.810807920063745045e-03
3.301585798458909267e+03 1.758518780411177262e+00 2.613175468986504279e-03
3.304887384257369376e+03 1.764654484061226603e+00 2.619366981077718773e-03
3.308192271641627485e+03 1.769083272160699050e+00 2.582708610172646316e-03
3.311500463913270323e+03 1.772308259529664642e+00 2.674680541668742872e-03
3.314811964377184722e+03 1.774715383874057251e+00 3.097097239486961990e-03
3.318126776341563072e+03 1.772751136877735112e+00 3.047548110538897664e-03
3.321444903117905596e+03 1.771230786497251852e+00 2.342684073853597542e-03
3.324766348021024896e+03 1.764414127167394764e+00 2.291108884095894183e-03
3.328091114369046863e+03 1.753793350259000627e+00 2.334435242015562260e-03
3.331419205483417045e+03 1.740459956712244072e+00 2.353089733614189411e-03
3.334750624688901553e+03 1.725318371442717380e+00 2.311278317315837178e-03
3.338085375313591612e+03 1.707703246022210797e+00 2.173439865515702611e-03
3.341423460688906289e+03 1.687976076310815587e+00 1.954434598463677605e-03
3.344764884149596128e+03 1.668181500014133567e+00 2.107080906564444064e-03
3.348109649033746791e+03 1.648282952424544590e+00 2.179046894100217929e-03
3.351457758682781787e+03 1.627274121251870653e+00 2.050792871788005133e-03
3.354809216441465651e+03 1.604870394207583262e+00 2.821366185824272701e-03
3.358164025657908041e+03 1.584069138218272554e+00 3.691773600340458091e-03
3.361522189683567376e+03 1.565251465600167702e+00 3.727181498941760287e-03
