# starting wavelength: 2650.000
# ending wavelength: 7752.940
# wav flux eflux
2.652525818456813340e+03 1.716713103417890629e+00 3.093864074060182282e-02
2.655178344275271229e+03 1.737477927079367213e+00 2.369171255479851634e-02
2.657833522619547239e+03 1.768073372720882164e+00 2.088473802931654910e-02
2.660491356142167660e+03 1.802878602150743914e+00 1.860983795526753234e-02
2.663151847498310872e+03 1.838222452559602260e+00 1.646271710736067762e-02
2.665814999345810065e+03 1.872193735112027468e+00 1.447973242076185975e-02
2.668480814345156887e+03 1.904195041756410633e+00 1.212047701190674745e-02
2.671149295159502799e+03 1.935197861342053738e+00 1.015945384461175958e-02
2.673820444454663175e+03 1.965308722454957246e+00 8.747030350614144745e-03
2.676494264899118662e+03 1.994173425636006858e+00 7.829945696849253262e-03
2.679170759164018818e+03 2.023010656068922497e+00 6.980642831122991186e-03
2.681849929923183481e+03 2.051688858413396765e+00 6.330196912677732608e-03
2.684531779853107764e+03 2.080592077063096568e+00 5.826114348012609474e-03
2.687216311632961606e+03 2.110159553794071829e+00 5.487671040209946872e-03
2.689903527944595680e+03 2.138788671212510817e+00 5.249899354420485727e-03
2.692593431472540942e+03 2.168137361524755669e+00 5.115617479724970940e-03
2.695286024904014539e+03 2.196853519532940169e+00 5.008318866510896340e-03
2.697981310928919356e+03 2.224309876583367540e+00 4.866447927460292901e-03
2.700679292239849019e+03 2.251252253925024593e+00 4.763509064682361002e-03
2.703379971532089712e+03 2.276294935183529322e+00 4.707143847519192417e-03
2.706083351503622907e+03 2.300887707368675095e+00 4.723213857191293184e-03
2.708789434855127183e+03 2.324995386436162548e+00 4.789573419231408363e-03
2.711498224289983227e+03 2.348962454754209173e+00 4.877274493969799979e-03
2.714209722514274290e+03 2.372367595872419077e+00 5.034487922558609184e-03
2.716923932236789369e+03 2.395206100709900365e+00 4.760115202764131533e-03
2.719640856169027302e+03 2.417746367962787080e+00 4.131496190981706271e-03
2.722360497025197219e+03 2.438649107785583858e+00 3.551373114196098787e-03
2.725082857522223094e+03 2.456725527099163031e+00 3.566185261515237345e-03
2.727807940379746015e+03 2.472110936386770152e+00 3.770589591078881992e-03
2.730535748320126913e+03 2.486308452858668971e+00 3.823619814751835766e-03
2.733266284068447931e+03 2.498087062972146999e+00 3.598185338386767664e-03
2.735999550352517417e+03 2.507491278169379001e+00 2.471340590956822795e-03
2.738735549902870844e+03 2.516397607155173244e+00 2.040400998235626043e-03
2.741474285452774438e+03 2.525533794442190061e+00 1.859171203012632053e-03
2.744215759738227916e+03 2.534081557121291350e+00 1.845845231584589867e-03
2.746959975497967207e+03 2.543109983520046136e+00 1.916929704473726041e-03
2.749706935473466274e+03 2.550928053618800373e+00 1.911984999153142203e-03
2.752456642408940297e+03 2.559637373598551147e+00 1.882407599075586017e-03
2.755209099051350222e+03 2.567625635675000240e+00 1.797900077705400987e-03
2.757964308150402758e+03 2.574408895099401295e+00 1.798448163695233817e-03
2.760722272458554016e+03 2.580520596909710918e+00 1.823953291759080123e-03
2.763482994731013605e+03 2.586434383549200966e+00 1.889512388406852129e-03
2.766246477725745535e+03 2.592288352204162205e+00 1.952883703545530087e-03
2.769012724203471862e+03 2.597507895083665197e+00 2.333945632364560919e-03
2.771781736927676320e+03 2.602768603161765615e+00 2.306508483215354097e-03
2.774553518664604780e+03 2.608053594028931776e+00 2.038465344283346779e-03
2.777328072183270706e+03 2.614307484563914041e+00 1.969651447855288659e-03
2.780105400255454697e+03 2.621135204992424139e+00 1.900136530514889583e-03
2.782885505655710858e+03 2.628284208018435653e+00 1.887242334710338134e-03
2.785668391161367708e+03 2.636004453219058963e+00 1.860729713047879407e-03
2.788454059552529998e+03 2.643726668059907858e+00 1.856331167084627511e-03
2.791242513612083258e+03 2.652443401853636917e+00 2.003134702009155832e-03
2.794033756125696527e+03 2.659957794015211707e+00 1.990953960776687976e-03
2.796827789881823264e+03 2.669510678399192649e+00 2.670545640920500563e-03
2.799624617671705892e+03 2.678392397253781088e+00 3.049206078062019574e-03
2.802424242289378526e+03 2.687494670735650182e+00 3.457915045106430517e-03
2.805226666531668798e+03 2.695398219713910137e+00 3.636918969987078341e-03
2.808031893198201487e+03 2.701488266968373075e+00 3.344000808449759578e-03
2.810839925091400346e+03 2.705296459215431604e+00 3.073415040067991807e-03
2.813650765016492642e+03 2.708603261134290729e+00 2.670496164571441178e-03
2.816464415781510070e+03 2.708412449268851052e+00 2.906309669048429654e-03
2.819280880197292845e+03 2.705324893989850654e+00 3.687670136943284500e-03
2.822100161077491066e+03 2.702029283519493230e+00 3.964804284320343035e-03
2.824922261238569263e+03 2.698426598411414190e+00 4.007376409074020311e-03
2.827747183499808671e+03 2.693437427889966429e+00 3.951631370832092184e-03
2.830574930683309503e+03 2.687304930426566152e+00 3.845823115319356011e-03
2.833405505613993682e+03 2.681271199214970036e+00 3.339775831181027773e-03
2.836238911119608929e+03 2.677054887603858457e+00 3.106726982148747072e-03
2.839075150030729219e+03 2.673412090607854896e+00 3.020067365649486361e-03
2.841914225180761150e+03 2.670330273088802109e+00 3.050769966601772631e-03
2.844756139405942577e+03 2.668211362572803225e+00 3.149917272669117661e-03
2.847600895545349431e+03 2.665703791291508029e+00 3.238539834637183500e-03
2.850448496440895724e+03 2.664637961885922390e+00 3.202755783736429326e-03
2.853298944937337637e+03 2.663756625755979268e+00 3.117610495394116613e-03
2.856152243882275798e+03 2.663542836981134698e+00 3.012291293365578632e-03
2.859008396126159369e+03 2.663727248796045277e+00 2.979220639004669796e-03
2.861867404522286051e+03 2.664781517027510649e+00 2.920917914370820684e-03
2.864729271926809361e+03 2.667481499684537738e+00 2.754779214532875574e-03
2.867594001198737260e+03 2.670309642332440614e+00 2.699367375648987436e-03
2.870461595199936710e+03 2.672401520592202040e+00 2.648944119226883439e-03
2.873332056795137760e+03 2.674104122551394624e+00 2.558775990330508249e-03
2.876205388851934003e+03 2.675729501133291333e+00 2.542529235160967058e-03
2.879081594240786671e+03 2.676472317177058802e+00 2.525729979642259669e-03
2.881960675835028724e+03 2.677025527663746907e+00 2.644953270821440595e-03
2.884842636510864395e+03 2.676597905595508031e+00 2.623815397678238258e-03
2.887727479147376471e+03 2.675430339219888598e+00 2.646270040637670792e-03
2.890615206626524468e+03 2.672914106491086628e+00 2.333979947303261790e-03
2.893505821833151913e+03 2.668699042949111977e+00 2.121789569230229586e-03
2.896399327654986337e+03 2.662691196948010930e+00 2.179113339110532073e-03
2.899295726982642009e+03 2.656403075835070737e+00 2.211415054523516339e-03
2.902195022709625846e+03 2.648063327347769835e+00 2.354261827689468033e-03
2.905097217732336503e+03 2.638269176836167240e+00 2.453171751514704717e-03
2.908002314950069831e+03 2.626910090258856023e+00 2.510763158673580409e-03
2.910910317265020694e+03 2.615743119895915569e+00 2.536950791724429128e-03
2.913821227582286610e+03 2.602974951871828591e+00 2.111071248839099888e-03
2.916735048809870023e+03 2.590922390342743853e+00 1.314041954748861952e-03
2.919651783858680574e+03 2.580504240137404093e+00 1.280911085272375778e-03
2.922571435642540564e+03 2.571072335518814533e+00 1.573108607226665363e-03
2.925494007078184040e+03 2.561706617056506374e+00 1.587641117320284442e-03
2.928419501085263164e+03 2.553328651044496134e+00 1.535111193822624644e-03
2.931347920586349119e+03 2.545279140903506043e+00 1.377302607937896809e-03
2.934279268506936660e+03 2.538115859589932466e+00 1.291414248889778639e-03
2.937213547775444567e+03 2.531537860882687507e+00 1.313777542895012930e-03
2.940150761323221104e+03 2.524814293117949582e+00 1.245547880945771036e-03
2.943090912084544925e+03 2.518377244752608934e+00 1.190349214583656234e-03
2.946034002996630534e+03 2.512048325449723229e+00 1.140791502367112043e-03
2.948980036999628283e+03 2.505928669545641085e+00 1.148241166600027108e-03
2.951929017036628920e+03 2.499561548085918350e+00 1.177289977124056130e-03
2.954880946053666321e+03 2.492676066503864085e+00 1.131242029076590279e-03
2.957835826999721121e+03 2.486282337185186986e+00 1.119166296102193760e-03
2.960793662826721629e+03 2.480380609950769255e+00 1.100232697927907557e-03
2.963754456489549284e+03 2.474667948685793206e+00 1.026611558654761747e-03
2.966718210946040017e+03 2.469258628962378577e+00 1.041010759019236117e-03
2.969684929156986982e+03 2.464784418107019537e+00 1.025261493872315190e-03
2.972654614086145102e+03 2.460374287685325179e+00 1.046796359427822586e-03
2.975627268700231980e+03 2.456173436277423683e+00 1.042540439520513087e-03
2.978602895968933353e+03 2.451933711203031052e+00 1.045172235237855482e-03
2.981581498864903097e+03 2.448081396792206377e+00 1.045581663562774894e-03
2.984563080363769132e+03 2.444570574291636600e+00 1.060612464336146629e-03
2.987547643444133882e+03 2.441140430542335871e+00 1.034717099569943972e-03
2.990535191087578823e+03 2.437929163639651620e+00 1.095278044106385955e-03
2.993525726278667662e+03 2.434853673170226163e+00 1.076119732884339968e-03
2.996519252004947248e+03 2.432899072448788225e+00 1.051899079378818208e-03
2.999515771256953030e+03 2.432274362062626150e+00 1.043874937972622289e-03
3.002515287028211333e+03 2.431652244412972230e+00 1.090826538392893671e-03
3.005517802315240260e+03 2.431298625689394921e+00 1.095589087361505294e-03
3.008523320117556523e+03 2.431279238288751809e+00 1.121148708234388650e-03
3.011531843437674979e+03 2.431153341348024188e+00 1.088922984226983531e-03
3.014543375281113640e+03 2.432538805625866996e+00 1.077503714194408962e-03
3.017557918656395941e+03 2.433388678289650109e+00 1.187615124126202093e-03
3.020575476575053472e+03 2.434281919378528336e+00 1.171316765405614043e-03
3.023596052051629158e+03 2.434100355309127384e+00 9.706316802466301947e-04
3.026619648103681811e+03 2.432135264874943914e+00 1.035568792413724864e-03
3.029646267751786581e+03 2.429053499774418423e+00 1.187514795138569544e-03
3.032675914019539505e+03 2.424436166361397138e+00 1.735024401560543005e-03
3.035708589933559779e+03 2.419545333811950361e+00 1.843713419457296450e-03
3.038744298523494763e+03 2.414649150085247609e+00 1.762257824878310118e-03
3.041783042822019070e+03 2.409296063239503738e+00 1.635721555472001432e-03
3.044824825864842296e+03 2.404015518354483127e+00 1.604011797881029714e-03
3.047869650690708113e+03 2.398819892528924136e+00 1.652676964180058335e-03
3.050917520341399722e+03 2.393333982294219897e+00 1.668678995146986995e-03
3.053968437861742132e+03 2.387508533386355492e+00 1.749514926908674354e-03
3.057022406299604881e+03 2.382152194227888931e+00 1.758633838736672244e-03
3.060079428705905229e+03 2.377170825519662856e+00 1.754098855436996788e-03
3.063139508134612242e+03 2.371963393225446026e+00 1.687049308248820276e-03
3.066202647642748161e+03 2.365435501043892330e+00 1.777445391747777556e-03
3.069268850290391583e+03 2.358388441000139668e+00 1.786805638076090913e-03
3.072338119140682920e+03 2.350921444561754559e+00 1.823136265382319793e-03
3.075410457259824852e+03 2.342770533057475735e+00 1.891104632330703646e-03
3.078485867717085512e+03 2.333849352204367733e+00 1.702726088197803770e-03
3.081564353584803939e+03 2.324629918885318336e+00 1.352648380087203379e-03
3.084645917938389630e+03 2.315609710077136896e+00 1.272655523474262992e-03
3.087730563856328899e+03 2.306848307964155076e+00 1.290005358680081180e-03
3.090818294420186248e+03 2.299198626024696157e+00 1.194621700157500865e-03
3.093909112714607545e+03 2.291446524809748198e+00 1.227168652773541219e-03
3.097003021827323209e+03 2.283947457885981525e+00 1.225189379948987429e-03
3.100100024849151396e+03 2.277412291518349008e+00 1.432610900693623811e-03
3.103200124874001631e+03 2.270631281724449391e+00 2.021608103747827862e-03
3.106303324998876633e+03 2.262421302043576610e+00 2.087989878134794211e-03
3.109409628323876859e+03 2.254309636379895565e+00 1.990714927265935241e-03
3.112519037952201415e+03 2.244689514289515575e+00 1.894569726617339458e-03
3.115631556990154877e+03 2.234197239735618012e+00 1.765375409649185250e-03
3.118747188547145925e+03 2.220916835168147863e+00 1.855329518446082035e-03
3.121865935735694165e+03 2.206600296701978881e+00 1.876946767485400533e-03
3.124987801671431043e+03 2.191448964406799149e+00 1.908628898593375161e-03
3.128112789473103476e+03 2.175160075587695641e+00 2.056603892176117870e-03
3.131240902262577492e+03 2.157824169455005325e+00 1.945648300648364186e-03
3.134372143164840963e+03 2.140807135541708650e+00 1.826727765319001526e-03
3.137506515308006783e+03 2.125411469743457626e+00 1.480891562079113526e-03
3.140644021823316052e+03 2.112202809092125211e+00 1.539153990438469439e-03
3.143784665845140353e+03 2.101399789879667690e+00 1.971735615071795646e-03
3.146928450510986750e+03 2.092035284006629414e+00 1.939955172814096084e-03
3.150075378961498700e+03 2.083322939355634063e+00 1.697424836214509857e-03
3.153225454340461056e+03 2.075109406784844790e+00 1.519259494492873749e-03
3.156378679794802792e+03 2.067862927844018373e+00 1.451909538644239597e-03
3.159535058474598372e+03 2.059923458264252716e+00 1.546164955345264965e-03
3.162694593533074112e+03 2.052991344838124288e+00 1.498202902053467640e-03
3.165857288126608182e+03 2.047099948401663649e+00 1.527494980921195516e-03
3.169023145414736064e+03 2.042373511684497434e+00 1.556154202928033232e-03
3.172192168560151458e+03 2.037779685178995326e+00 1.427106540123313080e-03
3.175364360728712654e+03 2.034932911785238385e+00 1.225295203479287833e-03
3.178539725089442527e+03 2.033989360888774467e+00 1.186883250020161597e-03
3.181718264814533086e+03 2.034632086102926340e+00 1.470775523065261364e-03
3.184899983079348658e+03 2.036643291287389967e+00 1.479635756014116739e-03
3.188084883062429071e+03 2.039103857714930523e+00 1.158842519863498809e-03
3.191272967945492383e+03 2.041727064832438376e+00 8.917957666300823554e-04
3.194464240913438971e+03 2.043350561075648830e+00 9.846489956382784969e-04
3.197658705154353811e+03 2.044357302190131787e+00 9.224770210581474108e-04
3.200856363859509202e+03 2.044985130921293415e+00 8.934884432594118221e-04
3.204057220223369768e+03 2.045162544253631420e+00 9.441848491146658797e-04
3.207261277443593826e+03 2.044912887926909839e+00 1.124856942081312516e-03
3.210468538721038840e+03 2.042730510887116768e+00 1.131818171029553297e-03
3.213679007259760965e+03 2.038917816924211923e+00 1.599927295862126585e-03
3.216892686267021418e+03 2.034960613770062654e+00 1.736738915446399715e-03
3.220109578953289656e+03 2.031433414195994214e+00 1.637405884220764730e-03
3.223329688532243836e+03 2.028447400472776163e+00 1.620048368244737238e-03
3.226553018220777176e+03 2.025691285000352782e+00 1.727176148844564683e-03
3.229779571238999324e+03 2.022824137771244146e+00 1.881200759124674118e-03
3.233009350810239084e+03 2.019013876116819262e+00 1.894120718295733011e-03
3.236242360161050783e+03 2.014762084611882553e+00 1.858375122028872685e-03
3.239478602521212906e+03 2.010331414419163298e+00 1.817979603509323845e-03
3.242718081123734919e+03 2.006036725015615474e+00 1.836311616745245779e-03
3.245960799204859995e+03 2.001958322044707472e+00 1.894761067584528266e-03
3.249206760004065927e+03 1.998177872318334991e+00 1.900529867773239311e-03
3.252455966764071036e+03 1.995188464122416905e+00 1.864617649696526016e-03
3.255708422730835991e+03 1.992663370785642041e+00 1.518669716307358315e-03
3.258964131153567905e+03 1.991939011056493625e+00 1.359087724428885077e-03
3.262223095284722604e+03 1.992993014067766078e+00 1.472473811988712130e-03
3.265485318380008266e+03 1.996019022240314245e+00 1.603276292201815528e-03
3.268750803698389518e+03 2.000485583251836008e+00 9.558956283180353045e-04
3.272019554502088795e+03 2.005060951719142892e+00 5.093843206055234532e-04
3.275291574056592253e+03 2.009179191015603827e+00 4.839682720145718222e-04
3.278566865630649772e+03 2.012991084838906097e+00 7.257790443709220482e-04
3.281845432496281319e+03 2.016807835236486213e+00 9.931409112644944137e-04
3.285127277928778767e+03 2.020980610041919423e+00 7.789393056170835919e-04
3.288412405206708627e+03 2.025919925936977783e+00 7.366224594619734953e-04
3.291700817611916591e+03 2.031331790743315491e+00 7.604714690921945356e-04
3.294992518429529355e+03 2.037043709316564755e+00 8.925701908858001956e-04
3.298287510947960072e+03 2.042673047047279145e+00 9.088015464514147051e-04
3.301585798458909267e+03 2.048005486076323045e+00 9.010991077534913915e-04
3.304887384257369376e+03 2.053305453433135863e+00 8.927600467075774053e-04
3.308192271641627485e+03 2.058363297471972331e+00 8.010631088409570508e-04
3.311500463913270323e+03 2.062739707589562155e+00 8.567418776775319452e-04
3.314811964377184722e+03 2.066340640706478826e+00 1.143705156045772293e-03
3.318126776341563072e+03 2.069495917157334830e+00 1.172275618139948915e-03
3.321444903117905596e+03 2.073062056007106246e+00 1.051822847836532101e-03
3.324766348021024896e+03 2.076739749618150555e+00 1.227672626577760561e-03
3.328091114369046863e+03 2.080302593607546768e+00 1.578110227200510765e-03
3.331419205483417045e+03 2.083116457317204517e+00 1.785318937835652601e-03
3.334750624688901553e+03 2.085149317390474266e+00 1.572949836713935252e-03
3.338085375313591612e+03 2.085799255497784443e+00 1.374845293011776491e-03
3.341423460688906289e+03 2.084594726085031269e+00 1.905576901175501381e-03
3.344764884149596128e+03 2.082561728789610989e+00 2.200998287283872923e-03
3.348109649033746791e+03 2.080866307525800707e+00 2.202450064808585475e-03
3.351457758682781787e+03 2.079226386973738183e+00 2.060203458843606807e-03
3.354809216441465651e+03 2.077763492521884192e+00 1.883024830470136088e-03
3.358164025657908041e+03 2.077123327617510284e+00 1.889633206039980154e-03
3.361522189683567376e+03 2.077107120211207913e+00 2.180949621690987487e-03
3.364883711873251741e+03 2.077324985700617077e+00 2.359976399569090229e-03
3.368248595585126168e+03 2.077961387486390699e+00 2.157508550780426731e-03
3.371616844180712633e+03 2.077768858590689049e+00 1.530196220708588068e-03
3.374988461024894150e+03 2.075535020478408654e+00 1.216100245390097255e-03
3.378363449485920228e+03 2.070856976737568189e+00 1.587292343642308749e-03
3.381741812935407324e+03 2.064314900984397738e+00 1.780064467062234413e-03
3.385123554748343849e+03 2.057384838338427890e+00 1.659327567618141879e-03
3.388508678303093347e+03 2.050544015434101919e+00 1.188071067335306997e-03
3.391897186981397681e+03 2.044877796012102511e+00 1.190073023202327688e-03
3.395289084168380214e+03 2.040110413428910974e+00 1.431005421937929642e-03
3.398684373252549449e+03 2.035748816214136170e+00 1.431272525754455523e-03
3.402083057625803121e+03 2.031316291924642137e+00 1.377872502377898434e-03
3.405485140683430018e+03 2.026220835627351224e+00 1.380524828200212998e-03
3.408890625824114522e+03 2.021106152992545812e+00 1.345599653104801851e-03
3.412299516449939802e+03 2.016096870465668989e+00 1.184671734532976748e-03
3.415711815966390986e+03 2.010284010191069282e+00 1.120584074973389032e-03
3.419127527782358356e+03 2.003114117727706311e+00 1.144400887780332816e-03
3.422546655310141887e+03 1.994522362758531120e+00 1.265146659864912907e-03
3.425969201965453522e+03 1.986027833991726110e+00 1.598941758957361792e-03
3.429395171167419903e+03 1.977764169498938518e+00 1.558905264859173842e-03
3.432824566338588284e+03 1.971393496658036648e+00 1.738916693556042314e-03
3.436257390904928343e+03 1.965836476846011038e+00 1.955291843819526899e-03
3.439693648295834464e+03 1.960217320753177006e+00 1.963280413393079724e-03
3.443133341944131189e+03 1.954452955885541465e+00 2.125839475096002063e-03
3.446576475286076402e+03 1.949004461858665049e+00 2.206400774487839601e-03
3.450023051761363604e+03 1.943866031345464318e+00 2.322049020439874260e-03
3.453473074813126004e+03 1.939062798775567087e+00 2.498653198513674234e-03
