# starting wavelength: 3026.780
# ending wavelength: 8207.480
# wav flux eflux
3.029646267751786581e+03 7.930294236915316208e-01 5.801814951224107397e-02
3.032675914019539505e+03 7.805546682778460310e-01 4.180644691295101745e-02
3.035708589933559779e+03 7.646611085571821675e-01 3.126905037798197867e-02
3.038744298523494763e+03 7.460691767918404826e-01 2.535411649837794601e-02
3.041783042822019070e+03 7.322328023736184299e-01 1.976145345876138132e-02
3.044824825864842296e+03 7.160837739345823350e-01 2.341560316948126594e-02
3.047869650690708113e+03 7.122726792020822595e-01 1.917484694470016765e-02
3.050917520341399722e+03 7.135994596415158320e-01 1.571092528878562794e-02
3.053968437861742132e+03 7.164249857813365097e-01 1.518592633951187237e-02
3.057022406299604881e+03 7.190089322253512272e-01 1.322427626403773274e-02
3.060079428705905229e+03 7.232860233382707449e-01 1.154724569128039169e-02
3.063139508134612242e+03 7.311490896111364490e-01 1.048441251390635001e-02
3.066202647642748161e+03 7.411835916746793984e-01 9.678418780895288800e-03
3.069268850290391583e+03 7.508650753134307188e-01 9.008944676867554693e-03
3.072338119140682920e+03 7.617324955280998511e-01 8.460635330009062816e-03
3.075410457259824852e+03 7.696200966157833445e-01 8.391424515497515960e-03
3.078485867717085512e+03 7.793232384446757699e-01 8.140394039794086878e-03
3.081564353584803939e+03 7.908585214315583256e-01 7.848998422082880191e-03
3.084645917938389630e+03 8.013099296263659355e-01 7.801026667635474650e-03
3.087730563856328899e+03 8.128413623162564772e-01 7.811353616946652666e-03
3.090818294420186248e+03 8.279037226267530469e-01 7.932468312213204753e-03
3.093909112714607545e+03 8.428939440612197576e-01 8.261825917461218527e-03
3.097003021827323209e+03 8.599225430854859908e-01 9.304990216394012914e-03
3.100100024849151396e+03 8.722187393275470102e-01 9.291498124569886122e-03
3.103200124874001631e+03 8.828968082411529084e-01 9.314842703546287461e-03
3.106303324998876633e+03 8.903079665308758495e-01 9.242324817083496027e-03
3.109409628323876859e+03 8.962060488745632325e-01 9.172131701083056227e-03
3.112519037952201415e+03 8.963776792459292597e-01 9.853738256019688863e-03
3.115631556990154877e+03 8.986194251164426605e-01 1.004474559089737172e-02
3.118747188547145925e+03 9.011206283390317262e-01 1.006928880636140562e-02
3.121865935735694165e+03 9.051276803146556249e-01 1.027795290537683245e-02
3.124987801671431043e+03 9.087217070502972005e-01 1.012535690608454622e-02
3.128112789473103476e+03 9.112805235323514497e-01 1.020885540498588442e-02
3.131240902262577492e+03 9.113807118028469656e-01 1.018168794528590340e-02
3.134372143164840963e+03 9.081797060591213500e-01 1.001382800465870637e-02
3.137506515308006783e+03 9.053925767662017732e-01 9.982336733356958133e-03
3.140644021823316052e+03 9.003540631915506465e-01 9.965503639270579736e-03
3.143784665845140353e+03 8.925137155415377999e-01 9.892469709977249823e-03
3.146928450510986750e+03 8.844009367528526955e-01 1.025253764295946945e-02
3.150075378961498700e+03 8.825670226432007492e-01 1.016945778185884483e-02
3.153225454340461056e+03 8.810253343357851152e-01 1.010679623687981733e-02
3.156378679794802792e+03 8.840541232553876805e-01 9.690239383792372679e-03
3.159535058474598372e+03 8.857547616364870313e-01 9.553753507250850596e-03
3.162694593533074112e+03 8.884199502149832117e-01 9.356105403133477966e-03
3.165857288126608182e+03 8.926238370493867480e-01 8.965563134654496932e-03
3.169023145414736064e+03 9.018751056392825260e-01 9.160948163817907511e-03
3.172192168560151458e+03 9.153705372304055121e-01 9.894463683979533644e-03
3.175364360728712654e+03 9.265337164770394152e-01 9.547212916354103074e-03
3.178539725089442527e+03 9.372131321594616704e-01 9.201853017391898107e-03
3.181718264814533086e+03 9.469144769014007368e-01 9.132990898272259211e-03
3.184899983079348658e+03 9.548017962305191952e-01 9.030858546884372104e-03
3.188084883062429071e+03 9.660557197528686357e-01 9.217931323076323027e-03
3.191272967945492383e+03 9.739876213441808206e-01 9.151205571418002255e-03
3.194464240913438971e+03 9.813685985175193416e-01 9.312089526142102933e-03
3.197658705154353811e+03 9.882207859041760578e-01 9.138823258328907656e-03
3.200856363859509202e+03 9.956501225431814150e-01 8.948117692418298269e-03
3.204057220223369768e+03 1.001665152682329252e+00 9.006413127375167277e-03
3.207261277443593826e+03 1.006536474760288291e+00 9.065546988154643895e-03
3.210468538721038840e+03 1.013217476475984036e+00 9.054540464605589922e-03
3.213679007259760965e+03 1.017202190439111975e+00 8.971175971677057895e-03
3.216892686267021418e+03 1.019275172728829615e+00 8.829455462756099007e-03
3.220109578953289656e+03 1.018525391529973900e+00 8.219585291603621197e-03
3.223329688532243836e+03 1.016750241967891988e+00 8.319740071355989641e-03
3.226553018220777176e+03 1.012442535465965410e+00 8.589311919366097656e-03
3.229779571238999324e+03 1.010596408592780326e+00 8.588351548418610149e-03
3.233009350810239084e+03 1.005413140184361342e+00 7.977520624547524905e-03
3.236242360161050783e+03 9.976870057967966998e-01 7.777183380212265330e-03
3.239478602521212906e+03 9.878840715755974333e-01 7.793894271471059169e-03
3.242718081123734919e+03 9.741707691041553430e-01 9.283037546860700012e-03
3.245960799204859995e+03 9.587562049385406349e-01 1.013163606991852178e-02
3.249206760004065927e+03 9.468809404607300140e-01 9.684056488381255490e-03
3.252455966764071036e+03 9.391612874988388704e-01 9.855273398308217470e-03
3.255708422730835991e+03 9.276433185811946425e-01 9.580052447883326272e-03
3.258964131153567905e+03 9.174823230012496555e-01 9.678583218977862904e-03
3.262223095284722604e+03 9.049923854760472119e-01 9.490157301784167901e-03
3.265485318380008266e+03 8.924278981371714936e-01 9.327912823410040508e-03
3.268750803698389518e+03 8.814646740234474143e-01 9.267793186025184704e-03
3.272019554502088795e+03 8.739543473002105989e-01 9.136349146604133553e-03
3.275291574056592253e+03 8.679146517099853853e-01 8.909079448285586039e-03
3.278566865630649772e+03 8.608984105936020592e-01 9.032327036168772555e-03
3.281845432496281319e+03 8.566677037595251676e-01 9.014290729826159032e-03
3.285127277928778767e+03 8.561882492840461323e-01 8.867060865439355122e-03
3.288412405206708627e+03 8.585196187242755128e-01 8.448125039598462435e-03
3.291700817611916591e+03 8.619549819140732705e-01 8.394739493010113657e-03
3.294992518429529355e+03 8.658584472233549212e-01 8.205726500574809026e-03
3.298287510947960072e+03 8.720221079154677479e-01 8.047813213822446743e-03
3.301585798458909267e+03 8.773686299991607651e-01 7.235497198585585064e-03
3.304887384257369376e+03 8.861311877460322783e-01 7.124492992716576975e-03
3.308192271641627485e+03 8.976328160217873497e-01 7.120437674660084169e-03
3.311500463913270323e+03 9.093020851859717757e-01 7.171201522983025253e-03
3.314811964377184722e+03 9.253853925488350063e-01 7.115850569217901066e-03
3.318126776341563072e+03 9.453997579408184304e-01 6.811358068626652967e-03
3.321444903117905596e+03 9.675364608855933080e-01 6.777563210578038851e-03
3.324766348021024896e+03 9.908662687215334941e-01 6.222068785735496502e-03
3.328091114369046863e+03 1.013544677024045049e+00 6.345969078018014707e-03
3.331419205483417045e+03 1.033954617732655290e+00 6.514076242718387644e-03
3.334750624688901553e+03 1.050830754926814103e+00 6.411581156823806076e-03
3.338085375313591612e+03 1.063472040184196832e+00 5.466452968476331366e-03
3.341423460688906289e+03 1.075848491244670413e+00 5.539810009788583185e-03
3.344764884149596128e+03 1.089989770429465654e+00 5.940669997215005868e-03
3.348109649033746791e+03 1.101671344819811882e+00 5.398027044607425079e-03
3.351457758682781787e+03 1.105266359228478157e+00 4.650222380510853591e-03
3.354809216441465651e+03 1.104218446106195017e+00 4.585988681543343506e-03
3.358164025657908041e+03 1.096608320433147155e+00 4.959986769799326276e-03
3.361522189683567376e+03 1.083973353803972417e+00 5.670220331188085758e-03
3.364883711873251741e+03 1.067793284360528672e+00 6.664899893901548439e-03
3.368248595585126168e+03 1.047715932853066523e+00 7.193074565275475556e-03
3.371616844180712633e+03 1.025758489195623513e+00 6.830541715532512451e-03
3.374988461024894150e+03 1.005549532427178816e+00 6.089992918189101809e-03
3.378363449485920228e+03 9.856801238237793417e-01 4.489967932755472776e-03
3.381741812935407324e+03 9.721227854858797146e-01 5.625668938719197328e-03
3.385123554748343849e+03 9.566766977069453004e-01 5.842337132134155578e-03
3.388508678303093347e+03 9.472985046583419777e-01 6.703955515370371536e-03
3.391897186981397681e+03 9.379943768787770697e-01 6.850383782704693413e-03
3.395289084168380214e+03 9.278472994882984715e-01 6.567566851733742071e-03
3.398684373252549449e+03 9.213630473856321279e-01 6.703653953774320329e-03
3.402083057625803121e+03 9.125353011182086860e-01 6.522749415586355688e-03
3.405485140683430018e+03 9.050524949487708248e-01 6.300379765449109527e-03
3.408890625824114522e+03 8.981507895178418854e-01 6.038612675408526476e-03
3.412299516449939802e+03 8.893760148880447414e-01 6.022825567192228828e-03
3.415711815966390986e+03 8.807244061095721444e-01 5.985786251405553378e-03
3.419127527782358356e+03 8.691445161935391628e-01 5.637423620310257066e-03
3.422546655310141887e+03 8.570738013739532812e-01 5.380052968747879409e-03
3.425969201965453522e+03 8.450397152949026269e-01 5.137710226265799693e-03
3.429395171167419903e+03 8.357369149395570407e-01 5.116653432858077159e-03
3.432824566338588284e+03 8.255100081369296516e-01 5.580577968024142375e-03
3.436257390904928343e+03 8.194814305782531783e-01 5.734608860027670153e-03
3.439693648295834464e+03 8.173683662849794418e-01 6.038318062511185448e-03
3.443133341944131189e+03 8.173291561638406089e-01 6.545488320880490062e-03
3.446576475286076402e+03 8.238743035800077941e-01 6.525387615119891335e-03
3.450023051761363604e+03 8.314661974153471080e-01 6.443901443970191482e-03
3.453473074813126004e+03 8.451151926175972662e-01 7.291659366186514085e-03
3.456926547887940615e+03 8.606089644559822283e-01 7.776843511613764671e-03
3.460383474435829612e+03 8.787435731008985673e-01 8.270512424799794995e-03
3.463843857910266706e+03 8.995077874093518888e-01 6.860438027746848175e-03
3.467307701768178049e+03 9.174280314501529476e-01 5.762354748487239116e-03
3.470775009469947236e+03 9.330670851219667883e-01 5.433559161141777137e-03
3.474245784479418489e+03 9.437795020239112542e-01 5.906948685789509788e-03
3.477720030263898934e+03 9.550613573098711839e-01 5.969848246194937522e-03
3.481197750294164052e+03 9.620413497145462456e-01 5.383017344443090726e-03
3.484678948044459503e+03 9.675126746701605551e-01 5.179875873181294214e-03
3.488163626992504760e+03 9.723640287883248412e-01 4.895015020394207980e-03
3.491651790619498570e+03 9.754112751452860275e-01 4.218098937856452207e-03
3.495143442410119405e+03 9.818968257249105491e-01 3.902338831752409556e-03
3.498638585852530468e+03 9.909916735733634852e-01 3.967144326883105358e-03
3.502137224438384237e+03 1.003558043663564936e+00 3.789031653112679820e-03
3.505639361662823831e+03 1.018633132400398544e+00 3.129103738920269856e-03
3.509145001024487556e+03 1.033066979223222548e+00 3.154963621958176579e-03
3.512654146025513455e+03 1.047497529583395925e+00 3.370188533690397521e-03
3.516166800171540217e+03 1.059697784747860361e+00 3.396307467504261317e-03
3.519682966971712631e+03 1.072006236768748177e+00 3.292601660890613104e-03
3.523202649938685681e+03 1.081006590449856031e+00 3.402277560493738220e-03
3.526725852588625457e+03 1.088130834799981184e+00 2.916645953157675445e-03
3.530252578441215064e+03 1.089351559333558539e+00 3.595892985346075838e-03
3.533782831019657806e+03 1.088465110730070684e+00 4.267704899837068341e-03
3.537316613850678550e+03 1.087983976626024862e+00 5.039873954899615378e-03
3.540853930464530094e+03 1.080338093307835701e+00 5.260729135686498942e-03
3.544394784394995895e+03 1.071396283421570228e+00 6.024145839789531165e-03
3.547939179179392340e+03 1.055568751268746386e+00 6.001870310054000131e-03
3.551487118358572843e+03 1.038802864706934059e+00 6.012867274717598361e-03
3.555038605476932389e+03 1.022000563886338753e+00 5.818533330320931930e-03
3.558593644082410719e+03 1.001440459909097136e+00 6.379809058010015368e-03
3.562152237726494150e+03 9.812453125265182541e-01 6.392853738604278857e-03
3.565714389964221937e+03 9.625743144358356318e-01 7.395996519472466946e-03
3.569280104354187188e+03 9.476662941740403578e-01 7.969541598019883738e-03
3.572849384458542772e+03 9.361451385626936572e-01 7.266863824405453767e-03
3.576422233843002232e+03 9.340371764758184092e-01 6.446546153942034514e-03
3.579998656076846601e+03 9.418496714347107668e-01 7.968229093595369586e-03
3.583578654732924406e+03 9.562038562306636180e-01 1.001859920212779323e-02
3.587162233387658489e+03 9.726798045697104822e-01 1.097702565003106506e-02
3.590749395621047370e+03 9.878449458144866746e-01 1.004505083057733415e-02
3.594340145016669794e+03 9.979129361053582503e-01 7.754047522320070031e-03
3.597934485161687462e+03 9.992352420072959651e-01 6.739467099203006774e-03
3.601532419646850485e+03 9.877867141936427231e-01 8.436947820256496602e-03
3.605133952066498296e+03 9.718400711848002027e-01 8.162868346566086800e-03
3.608739086018566013e+03 9.538777528808937145e-01 8.976727518822979687e-03
3.612347825104585809e+03 9.323458124703887240e-01 9.094183317789161780e-03
3.615960172929691907e+03 9.096501243450443308e-01 6.816034335916468581e-03
3.619576133102622407e+03 8.930570473827775801e-01 4.880727431555578234e-03
3.623195709235726554e+03 8.849452824999251010e-01 4.502128027010435761e-03
3.626818904944963379e+03 8.861074180890657903e-01 5.892611209095629556e-03
3.630445723849909427e+03 8.963144035177396107e-01 5.754657103733826912e-03
3.634076169573760581e+03 9.069400578948224600e-01 5.085317002779697268e-03
3.637710245743335690e+03 9.197762269735924034e-01 4.430756674408031261e-03
3.641347955989080219e+03 9.299992501237950293e-01 4.639854110285843505e-03
3.644989303945070333e+03 9.372495218071745793e-01 4.694886943601555944e-03
3.648634293249016537e+03 9.405423039548901354e-01 4.586556654931379408e-03
3.652282927542266862e+03 9.402132532373610463e-01 4.972510536742615062e-03
3.655935210469810499e+03 9.365906387881411943e-01 5.753913415197018516e-03
3.659591145680281443e+03 9.309367019495037310e-01 6.333462009801392109e-03
3.663250736825963031e+03 9.265091412988994968e-01 5.707217311696843355e-03
3.666913987562790226e+03 9.240500470809747124e-01 5.120446142058605182e-03
3.670580901550354156e+03 9.226807531153391473e-01 4.320203907754690750e-03
3.674251482451905758e+03 9.266150689712907562e-01 4.080017108990576999e-03
3.677925733934358959e+03 9.332188565861798679e-01 4.936927150236826260e-03
3.681603659668294313e+03 9.419332947889283991e-01 5.685113473771408708e-03
3.685285263327964003e+03 9.474238677512235585e-01 5.002114266823418608e-03
3.688970548591293209e+03 9.502268705765472001e-01 4.715012308004783333e-03
3.692659519139885560e+03 9.498643584814531193e-01 4.921509233457245849e-03
3.696352178659026777e+03 9.488736511881340485e-01 5.610321350949300581e-03
3.700048530837686940e+03 9.447644643821669908e-01 7.169712940826123565e-03
3.703748579368525952e+03 9.420003271180833471e-01 5.662947365984364982e-03
3.707452327947895355e+03 9.444854060856033851e-01 5.134748748179873701e-03
3.711159780275844696e+03 9.505648137582562995e-01 5.540807540407835692e-03
3.714870940056121526e+03 9.589418505380028490e-01 5.773797628833832012e-03
3.718585810996179134e+03 9.685445424557302951e-01 6.758419157426132778e-03
3.722304396807176545e+03 9.795813751887157972e-01 7.572999176576175953e-03
3.726026701203984885e+03 9.835100569848604923e-01 6.771385255082706250e-03
3.729752727905190113e+03 9.816861586797962502e-01 6.733936340928844445e-03
3.733482480633096657e+03 9.766869876624332258e-01 6.946163652938232118e-03
3.737215963113731050e+03 9.669955743036509066e-01 7.699069664855387116e-03
3.740953179076846027e+03 9.543350578928871952e-01 7.416480721395610383e-03
3.744694132255923705e+03 9.381247931091412084e-01 5.487223764074599004e-03
3.748438826388181042e+03 9.251740672608647076e-01 4.925452490752802413e-03
3.752187265214570289e+03 9.150744564479844634e-01 5.089645323814979451e-03
3.755939452479786269e+03 9.100735887979175542e-01 4.777008300016412877e-03
3.759695391932267285e+03 9.115707816224393190e-01 5.432881965090603435e-03
3.763455087324201031e+03 9.188964724375242588e-01 7.038330167677023935e-03
3.767218542411526414e+03 9.226335419765524515e-01 6.454831990610256434e-03
3.770985760953939007e+03 9.239527813065381290e-01 6.345011604649967475e-03
3.774756746714894234e+03 9.247571775149342477e-01 5.963499805511219068e-03
3.778531503461610555e+03 9.236582935730529575e-01 5.800367993056314980e-03
3.782310034965073100e+03 9.189294744584145525e-01 5.805366870752234378e-03
3.786092345000039586e+03 9.114590254714590722e-01 5.402579635598029305e-03
3.789878437345040766e+03 9.041544470502759223e-01 5.902211055440018984e-03
3.793668315782387253e+03 8.997311753891781283e-01 6.326428294007102777e-03
3.797461984098170888e+03 8.945104318347147920e-01 6.066850436385212188e-03
3.801259446082270188e+03 8.946842256223279666e-01 5.339036424031220855e-03
3.805060705528353537e+03 8.986068120401439208e-01 5.066966796996698677e-03
3.808865766233883278e+03 9.080781353353929441e-01 5.911694976351332571e-03
3.812674632000118436e+03 9.226602107935646391e-01 6.834590890254705654e-03
3.816487306632119726e+03 9.354428939888974615e-01 6.378338795151027377e-03
3.820303793938753188e+03 9.437258688185712341e-01 5.725281238483312558e-03
3.824124097732693372e+03 9.448238184531149164e-01 5.699467743735491324e-03
3.827948221830427428e+03 9.415015037294551803e-01 5.765828925154135344e-03
3.831776170052258749e+03 9.339872042091876825e-01 6.416083902107447279e-03
3.835607946222312421e+03 9.247242750078497053e-01 7.877786837897521668e-03
3.839443554168536139e+03 9.108092165328675049e-01 7.943918028681325877e-03
3.843282997722705659e+03 9.011098954524523474e-01 6.668126729229699977e-03
3.847126280720429804e+03 8.954723585674696507e-01 5.222304213697872427e-03
3.850973407001151372e+03 8.968150784687120014e-01 6.018220482868120828e-03
3.854824380408153957e+03 9.037719364253640197e-01 6.405638255568519429e-03
3.858679204788563311e+03 9.156140550764890751e-01 5.832610687796419870e-03
3.862537883993353262e+03 9.321425135219989500e-01 5.521872568226312075e-03
3.866400421877347981e+03 9.521900695023085559e-01 4.950216897056596878e-03
3.870266822299226533e+03 9.726990094456866576e-01 4.903318801655671792e-03
3.874137089121526969e+03 9.949665139156470550e-01 4.923703736106609455e-03
3.878011226210649966e+03 1.015484892080324109e+00 4.322277595793347187e-03
3.881889237436861549e+03 1.037810028801029016e+00 4.103496294523494882e-03
3.885771126674299921e+03 1.061007151412314942e+00 4.074972438315206669e-03
3.889656897800975457e+03 1.085536839093753869e+00 4.888118241387118951e-03
3.893546554698777527e+03 1.108633994079199825e+00 4.849778739700676480e-03
3.897440101253477678e+03 1.131223970742229357e+00 4.355405724581958363e-03
3.901337541354732366e+03 1.151897064993520070e+00 3.991512499439612942e-03
3.905238878896088409e+03 1.168573752941152177e+00 3.684975663600849674e-03
3.909144117774985716e+03 1.177197760707811902e+00 3.843361549674748426e-03
3.913053261892762293e+03 1.179897095241887905e+00 4.682068324402693243e-03
3.916966315154656058e+03 1.181186459049022641e+00 6.724636920911569206e-03
3.920883281469812118e+03 1.185451529692195027e+00 6.812768813350543462e-03
3.924804164751283224e+03 1.194639853701471743e+00 6.872477905969679585e-03
3.928728968916035683e+03 1.204265571934789447e+00 6.955273678317374156e-03
3.932657697884953450e+03 1.214235717666880765e+00 7.188302252710168476e-03
3.936590355582839493e+03 1.227351423633474381e+00 7.349138276801631814e-03
3.940526945938423523e+03 1.240278390506964090e+00 7.150574420120927449e-03
3.944467472884363360e+03 1.253874536972603426e+00 6.924958248467397853e-03
