# starting wavelength: 3020.730
# ending wavelength: 7243.490
# wav flux eflux
3.023596052051629158e+03 8.160816686099238160e-01 5.795959728197719839e-03
3.026619648103681811e+03 8.140740004059856538e-01 4.222522186201207485e-03
3.029646267751786581e+03 8.129083024649845779e-01 3.445860208398251155e-03
3.032675914019539505e+03 8.114067774849487158e-01 2.689049909231794235e-03
3.035708589933559779e+03 8.106344184788847329e-01 2.441557646815842222e-03
3.038744298523494763e+03 8.096197567953186125e-01 2.275533452045322771e-03
3.041783042822019070e+03 8.082282529998899845e-01 2.298160581122252362e-03
3.044824825864842296e+03 8.064732220210701907e-01 1.913505589496088252e-03
3.047869650690708113e+03 8.047405003809188218e-01 1.652193425058084584e-03
3.050917520341399722e+03 8.032620598697584047e-01 1.428396530873581169e-03
3.053968437861742132e+03 8.021298848888648303e-01 1.254084849914756774e-03
3.057022406299604881e+03 8.020452971222705729e-01 1.310342284252733911e-03
3.060079428705905229e+03 8.023918803439313852e-01 1.320113918174548040e-03
3.063139508134612242e+03 8.033684367874533994e-01 1.424806216803598327e-03
3.066202647642748161e+03 8.044743984181749186e-01 1.461969092082302966e-03
3.069268850290391583e+03 8.057235971098221095e-01 1.496424395775686634e-03
3.072338119140682920e+03 8.068578502872332248e-01 1.488805957454267508e-03
3.075410457259824852e+03 8.074115738072605852e-01 1.444302949529167705e-03
3.078485867717085512e+03 8.083767817089274610e-01 1.428795424321276531e-03
3.081564353584803939e+03 8.090835429049195726e-01 1.458845041316297235e-03
3.084645917938389630e+03 8.100031012768954541e-01 1.464074561977186245e-03
3.087730563856328899e+03 8.112146710908650915e-01 1.455625043236392002e-03
3.090818294420186248e+03 8.124966501430317400e-01 1.450751249829414008e-03
3.093909112714607545e+03 8.138691497033260225e-01 1.456447040162044517e-03
3.097003021827323209e+03 8.157500610584561551e-01 1.478659384049781349e-03
3.100100024849151396e+03 8.173249251459084874e-01 1.479502688856423019e-03
3.103200124874001631e+03 8.189971716755355402e-01 1.479107673883707421e-03
3.106303324998876633e+03 8.206826691229077708e-01 1.491707170214145181e-03
3.109409628323876859e+03 8.225130099868991351e-01 1.455269088396539141e-03
3.112519037952201415e+03 8.245528239964439177e-01 1.409891697736052451e-03
3.115631556990154877e+03 8.260518508468732701e-01 1.296877272120059441e-03
3.118747188547145925e+03 8.285227868862374834e-01 1.277780475002869565e-03
3.121865935735694165e+03 8.309823431403277061e-01 1.252250991674860392e-03
3.124987801671431043e+03 8.338107645438147530e-01 1.238464885881712923e-03
3.128112789473103476e+03 8.375833364797869995e-01 1.413299100842955753e-03
3.131240902262577492e+03 8.413933332444881730e-01 1.471511174049413987e-03
3.134372143164840963e+03 8.454797331211419964e-01 1.566096549316954882e-03
3.137506515308006783e+03 8.498241751665099875e-01 1.522083212238126409e-03
3.140644021823316052e+03 8.533674003783244810e-01 1.420947554875796881e-03
3.143784665845140353e+03 8.571548927742058677e-01 1.139222654289997463e-03
3.146928450510986750e+03 8.598567606908892325e-01 1.084369332332894452e-03
3.150075378961498700e+03 8.621418320597532547e-01 1.062894074644584559e-03
3.153225454340461056e+03 8.635017136244905744e-01 1.060011609206576054e-03
3.156378679794802792e+03 8.635886839778218471e-01 1.262671756457871535e-03
3.159535058474598372e+03 8.634912802413623467e-01 1.337911643474364292e-03
3.162694593533074112e+03 8.633170088058086389e-01 1.422061244059351793e-03
3.165857288126608182e+03 8.627286276681132016e-01 1.505189365861163073e-03
3.169023145414736064e+03 8.622537321562342427e-01 1.579303463111494900e-03
3.172192168560151458e+03 8.618908064998110907e-01 1.589471480286358280e-03
3.175364360728712654e+03 8.616551423178845370e-01 1.590305021468280686e-03
3.178539725089442527e+03 8.617345478169063933e-01 1.520965241089491677e-03
3.181718264814533086e+03 8.616857257245577051e-01 1.346905123603129055e-03
3.184899983079348658e+03 8.620032186157479126e-01 1.336593483999300560e-03
3.188084883062429071e+03 8.626564362060105129e-01 1.246119407067331625e-03
3.191272967945492383e+03 8.640332572496813857e-01 1.306060022120541673e-03
3.194464240913438971e+03 8.658913004952486503e-01 1.414990285043234109e-03
3.197658705154353811e+03 8.684502508308608038e-01 1.635194436327483229e-03
3.200856363859509202e+03 8.710284963256822444e-01 1.607615102724028024e-03
3.204057220223369768e+03 8.731700722793533931e-01 1.460751487215312732e-03
3.207261277443593826e+03 8.752310536482836856e-01 1.301948301300143076e-03
3.210468538721038840e+03 8.769441806624672653e-01 1.071952446377285326e-03
3.213679007259760965e+03 8.778962825957216110e-01 1.109361873656226254e-03
3.216892686267021418e+03 8.784890627843616739e-01 1.145451304951503307e-03
3.220109578953289656e+03 8.787911404002506366e-01 1.152529186527269118e-03
3.223329688532243836e+03 8.779778777771015674e-01 1.130465334666494806e-03
3.226553018220777176e+03 8.774086956380047209e-01 1.068120007635071922e-03
3.229779571238999324e+03 8.766342253168277754e-01 1.102599026485639750e-03
3.233009350810239084e+03 8.754429345432631626e-01 9.474425624303872565e-04
3.236242360161050783e+03 8.748002404373859120e-01 8.819019415084522950e-04
3.239478602521212906e+03 8.742167492416734742e-01 8.218490475034638748e-04
3.242718081123734919e+03 8.742600772164761391e-01 8.494801092803622167e-04
3.245960799204859995e+03 8.748295180945808713e-01 8.048285877030703995e-04
3.249206760004065927e+03 8.751031494718678472e-01 8.450970340671706913e-04
3.252455966764071036e+03 8.759660696081917886e-01 8.541964057490318042e-04
3.255708422730835991e+03 8.774110879335041968e-01 8.240116356423159453e-04
3.258964131153567905e+03 8.792112980155563084e-01 8.535627569074449080e-04
3.262223095284722604e+03 8.809162098789170559e-01 8.384718163437133607e-04
3.265485318380008266e+03 8.825348092401922306e-01 8.248120533417778975e-04
3.268750803698389518e+03 8.844493933448497325e-01 8.372703125686139884e-04
3.272019554502088795e+03 8.863114248844502496e-01 8.329095373594509397e-04
3.275291574056592253e+03 8.883432768373800137e-01 8.211809940332268467e-04
3.278566865630649772e+03 8.900011461947495706e-01 8.036700743610865512e-04
3.281845432496281319e+03 8.918049350024037647e-01 8.155412205870879059e-04
3.285127277928778767e+03 8.938113017517238523e-01 8.094568402218192682e-04
3.288412405206708627e+03 8.957145748013937148e-01 8.860058478412278192e-04
3.291700817611916591e+03 8.978454858125940463e-01 9.031792077088432284e-04
3.294992518429529355e+03 9.002438384161591811e-01 8.670909966190167451e-04
3.298287510947960072e+03 9.029061426548140590e-01 8.670869598777682921e-04
3.301585798458909267e+03 9.057505003542295485e-01 8.339249189406950161e-04
3.304887384257369376e+03 9.084995555905471809e-01 8.388060121388195636e-04
3.308192271641627485e+03 9.120756562312045679e-01 8.486763629465055633e-04
3.311500463913270323e+03 9.161578104173879744e-01 8.861904788199151655e-04
3.314811964377184722e+03 9.203701273313643627e-01 8.565564782647350694e-04
3.318126776341563072e+03 9.252823488904426963e-01 1.083852758070250619e-03
3.321444903117905596e+03 9.302323644594223673e-01 1.244766943902728346e-03
3.324766348021024896e+03 9.356776167212632611e-01 1.157313475854102091e-03
3.328091114369046863e+03 9.401487509359756078e-01 1.086829378650558267e-03
3.331419205483417045e+03 9.439664708850374897e-01 1.136902720091735120e-03
3.334750624688901553e+03 9.474286143951048400e-01 1.129031867037989106e-03
3.338085375313591612e+03 9.508915789402352381e-01 1.175323612327896106e-03
3.341423460688906289e+03 9.541035710982991302e-01 1.217460383409240190e-03
3.344764884149596128e+03 9.571658668372817758e-01 1.312721838158114511e-03
3.348109649033746791e+03 9.600861149618331591e-01 1.265483525505699475e-03
3.351457758682781787e+03 9.636240050121921419e-01 1.185645133544886883e-03
3.354809216441465651e+03 9.670624947754797862e-01 1.211933006690982728e-03
3.358164025657908041e+03 9.710402227529142394e-01 1.261715599656562095e-03
3.361522189683567376e+03 9.752680711705050687e-01 1.354459383333660085e-03
3.364883711873251741e+03 9.799303675491349841e-01 1.373014649378241159e-03
3.368248595585126168e+03 9.840088746004443943e-01 1.370124101052396176e-03
3.371616844180712633e+03 9.885805029422215506e-01 1.270640046507413769e-03
3.374988461024894150e+03 9.935363391615774642e-01 1.112618956688322860e-03
3.378363449485920228e+03 9.979559951216765423e-01 1.078950001501394022e-03
3.381741812935407324e+03 1.001791657271451585e+00 1.200176530178166841e-03
3.385123554748343849e+03 1.005007948901724957e+00 1.059861364832946021e-03
3.388508678303093347e+03 1.008392350305567398e+00 8.224066663968949411e-04
3.391897186981397681e+03 1.012637290502284682e+00 7.672550902565676264e-04
3.395289084168380214e+03 1.017410072763328843e+00 7.811186176394314864e-04
3.398684373252549449e+03 1.022471135682368359e+00 8.244947907484062588e-04
3.402083057625803121e+03 1.028107965625118192e+00 8.360533849690682468e-04
3.405485140683430018e+03 1.034229963737655966e+00 9.459923374833228548e-04
3.408890625824114522e+03 1.040915816922836967e+00 8.208705081025045348e-04
3.412299516449939802e+03 1.047072118170005339e+00 7.958789769165181384e-04
3.415711815966390986e+03 1.053180689320247998e+00 7.923474747686036577e-04
3.419127527782358356e+03 1.058551638946014783e+00 8.805138465584235992e-04
3.422546655310141887e+03 1.064078556771252071e+00 9.093920827774680093e-04
3.425969201965453522e+03 1.070633444525557421e+00 9.047478347920804220e-04
3.429395171167419903e+03 1.077308606260850121e+00 9.180284753812160406e-04
3.432824566338588284e+03 1.083946727259748055e+00 9.156906202836520613e-04
3.436257390904928343e+03 1.090378682142085998e+00 8.789686906925687224e-04
3.439693648295834464e+03 1.096736480228191368e+00 8.763033755312285523e-04
3.443133341944131189e+03 1.103683860365199054e+00 1.077118497294424779e-03
3.446576475286076402e+03 1.110755377364314178e+00 1.056863215698235431e-03
3.450023051761363604e+03 1.116584360064992509e+00 8.861311437421091073e-04
3.453473074813126004e+03 1.121137138510745146e+00 8.693104043422783924e-04
3.456926547887940615e+03 1.124536033382573130e+00 1.003934605981555246e-03
3.460383474435829612e+03 1.127233744419088080e+00 9.978631958830455530e-04
3.463843857910266706e+03 1.129210805708340981e+00 9.949911058890735256e-04
3.467307701768178049e+03 1.129900118379594920e+00 9.639350940451107486e-04
3.470775009469947236e+03 1.130329127997164784e+00 8.694605258523226913e-04
3.474245784479418489e+03 1.131103852716848213e+00 8.677270456278268155e-04
3.477720030263898934e+03 1.132008081538756095e+00 9.309252386526731260e-04
3.481197750294164052e+03 1.132899022344285633e+00 9.213684469545314285e-04
3.484678948044459503e+03 1.133723284772356177e+00 1.123113117776958561e-03
3.488163626992504760e+03 1.135238553299902753e+00 1.102186647405695467e-03
3.491651790619498570e+03 1.137198000147828569e+00 1.090247286098844186e-03
3.495143442410119405e+03 1.139955383694849944e+00 1.093132079344310550e-03
3.498638585852530468e+03 1.143477384459712809e+00 1.087886282458945053e-03
3.502137224438384237e+03 1.147191532480039466e+00 1.025209409583512738e-03
3.505639361662823831e+03 1.151700733194001236e+00 1.130724179372700122e-03
3.509145001024487556e+03 1.156843153259087931e+00 1.070848348508702478e-03
3.512654146025513455e+03 1.161697559544049962e+00 1.877512189138671539e-03
3.516166800171540217e+03 1.167602626667835874e+00 1.874386734130617646e-03
3.519682966971712631e+03 1.174236646865359557e+00 2.030309249013656156e-03
3.523202649938685681e+03 1.180527524827795549e+00 2.395561433369584187e-03
3.526725852588625457e+03 1.186434968015216862e+00 2.641135109214598920e-03
3.530252578441215064e+03 1.190476801071117752e+00 2.607941686240365653e-03
3.533782831019657806e+03 1.191813858770365053e+00 2.618187195062735614e-03
3.537316613850678550e+03 1.191614538166597903e+00 2.670014496562439239e-03
3.540853930464530094e+03 1.189958761212714933e+00 2.794483872031489503e-03
3.544394784394995895e+03 1.187185734900329193e+00 3.029717258437705611e-03
3.547939179179392340e+03 1.182663568572329460e+00 3.320136708050959451e-03
3.551487118358572843e+03 1.176852873134620392e+00 3.219059026395494974e-03
3.555038605476932389e+03 1.172550236082811503e+00 3.289569711496222182e-03
3.558593644082410719e+03 1.168572556604276835e+00 3.242541005430002628e-03
3.562152237726494150e+03 1.166956691890917552e+00 2.976083267914090679e-03
3.565714389964221937e+03 1.169195020218128711e+00 2.901730207488237897e-03
3.569280104354187188e+03 1.175995376516290492e+00 2.992214858866734228e-03
3.572849384458542772e+03 1.186998423826621352e+00 2.647040217558927280e-03
3.576422233843002232e+03 1.198712248141644121e+00 2.567807582684597262e-03
3.579998656076846601e+03 1.209568456280471382e+00 2.732229266927446807e-03
3.583578654732924406e+03 1.222141375470868541e+00 2.861104874366880713e-03
3.587162233387658489e+03 1.234507677999630681e+00 2.656173402203094568e-03
3.590749395621047370e+03 1.246737041763596343e+00 2.429349010941840234e-03
3.594340145016669794e+03 1.258306389452164664e+00 2.399335084407931001e-03
3.597934485161687462e+03 1.268677123853028110e+00 2.546715967750304982e-03
3.601532419646850485e+03 1.277311515060172153e+00 2.452723745954521212e-03
3.605133952066498296e+03 1.285761025153477011e+00 2.323935224192413829e-03
3.608739086018566013e+03 1.294269362353036579e+00 1.975877205866276732e-03
3.612347825104585809e+03 1.302855066534788664e+00 1.621217687414472884e-03
3.615960172929691907e+03 1.312684613496516439e+00 2.142800410574749806e-03
3.619576133102622407e+03 1.322872331377905386e+00 2.224583047515482897e-03
3.623195709235726554e+03 1.331794360797156296e+00 1.669059975624709357e-03
3.626818904944963379e+03 1.338016108421179240e+00 1.408188617635181819e-03
3.630445723849909427e+03 1.341156724243260046e+00 1.285338980203450110e-03
3.634076169573760581e+03 1.341139542950272157e+00 1.303747616387801976e-03
3.637710245743335690e+03 1.338135635570858462e+00 1.498758034794522289e-03
3.641347955989080219e+03 1.331680338334618519e+00 1.965087370514637111e-03
3.644989303945070333e+03 1.323895496496751978e+00 1.629046441774013084e-03
3.648634293249016537e+03 1.315629291095334663e+00 1.650024638910598408e-03
3.652282927542266862e+03 1.305573572860476927e+00 1.826631488529656833e-03
3.655935210469810499e+03 1.293467702128187069e+00 1.976219576866713665e-03
3.659591145680281443e+03 1.279803692236104906e+00 1.984749396405579430e-03
3.663250736825963031e+03 1.264563284417817179e+00 1.917681699694135386e-03
3.666913987562790226e+03 1.248370887044831345e+00 1.760322268390935490e-03
3.670580901550354156e+03 1.230765940836276107e+00 1.753371864256362536e-03
3.674251482451905758e+03 1.211439246591650365e+00 2.043569539948904452e-03
3.677925733934358959e+03 1.191927356111302183e+00 1.985376674767213960e-03
3.681603659668294313e+03 1.172218638911294519e+00 1.653356148675422157e-03
3.685285263327964003e+03 1.153733528409147890e+00 1.620243195538001533e-03
3.688970548591293209e+03 1.136118882920251538e+00 1.567138451323491421e-03
3.692659519139885560e+03 1.119647471825064189e+00 1.544474147012380241e-03
3.696352178659026777e+03 1.105122882674183016e+00 1.531799500258927953e-03
3.700048530837686940e+03 1.091757949263392646e+00 1.478762091714722190e-03
3.703748579368525952e+03 1.080538459259701822e+00 1.191956815698174679e-03
3.707452327947895355e+03 1.069399880186703511e+00 1.415434363128320518e-03
3.711159780275844696e+03 1.057358291037270526e+00 1.673291439004750449e-03
3.714870940056121526e+03 1.045287021008487915e+00 1.598217613435283123e-03
3.718585810996179134e+03 1.032476382261926950e+00 1.756632062455981301e-03
3.722304396807176545e+03 1.020618368801488707e+00 1.774807110468146990e-03
3.726026701203984885e+03 1.008679040030696417e+00 2.207656958851959752e-03
3.729752727905190113e+03 9.975957556730212783e-01 2.440013255488000105e-03
3.733482480633096657e+03 9.886693594392479412e-01 2.240128781823016568e-03
3.737215963113731050e+03 9.818460236302619659e-01 2.188039308990786646e-03
3.740953179076846027e+03 9.766689389885886419e-01 2.134407611341626251e-03
3.744694132255923705e+03 9.735426478116665505e-01 2.172929139330949215e-03
3.748438826388181042e+03 9.729390659573282640e-01 2.239923265018649388e-03
3.752187265214570289e+03 9.742880083723755025e-01 2.240315848396836392e-03
3.755939452479786269e+03 9.766100564913459126e-01 2.118026188157146831e-03
3.759695391932267285e+03 9.797005192826089282e-01 1.975617566501892096e-03
3.763455087324201031e+03 9.804186687609556250e-01 1.931899420944501421e-03
3.767218542411526414e+03 9.803351844222368827e-01 2.137816046320365360e-03
3.770985760953939007e+03 9.790086118420280314e-01 2.404394269196803973e-03
3.774756746714894234e+03 9.789412665536620928e-01 2.690625222849748512e-03
3.778531503461610555e+03 9.818776743739134893e-01 2.562368485899443275e-03
3.782310034965073100e+03 9.877750963231420878e-01 2.480458869850864136e-03
3.786092345000039586e+03 9.959340763895311310e-01 2.333499123745416421e-03
3.789878437345040766e+03 1.008510254548196317e+00 2.829460266673311259e-03
3.793668315782387253e+03 1.023989479405101433e+00 2.986383648292820474e-03
3.797461984098170888e+03 1.040800104679158400e+00 3.026454744656464132e-03
3.801259446082270188e+03 1.059540098663859897e+00 2.993960519165740283e-03
3.805060705528353537e+03 1.081238523008722252e+00 2.629697692345066545e-03
3.808865766233883278e+03 1.103744808329759186e+00 2.457857454012224874e-03
3.812674632000118436e+03 1.125984140720815541e+00 2.457859713837803710e-03
3.816487306632119726e+03 1.148019098814428984e+00 2.522982138661879724e-03
3.820303793938753188e+03 1.169710626096085671e+00 2.279040104174642842e-03
3.824124097732693372e+03 1.191492378503093086e+00 2.253779907557116290e-03
3.827948221830427428e+03 1.213205937175859894e+00 2.296620781039449780e-03
3.831776170052258749e+03 1.235309748329356250e+00 1.946904873458372640e-03
3.835607946222312421e+03 1.255311894639178361e+00 1.954087202652015146e-03
3.839443554168536139e+03 1.274938381126927478e+00 1.779313587970986167e-03
3.843282997722705659e+03 1.292562662849287447e+00 1.812081614058273522e-03
3.847126280720429804e+03 1.307802970195054426e+00 1.813824282385708255e-03
3.850973407001151372e+03 1.321368739775714563e+00 1.800050607290893442e-03
3.854824380408153957e+03 1.332102367792809217e+00 1.850786906625472494e-03
3.858679204788563311e+03 1.340713921535950259e+00 1.693065799060593409e-03
3.862537883993353262e+03 1.350054275657049496e+00 1.858488028847158757e-03
3.866400421877347981e+03 1.358427920828850777e+00 1.934026681340446233e-03
3.870266822299226533e+03 1.366247507236037384e+00 1.860670730531705473e-03
3.874137089121526969e+03 1.373977491884235347e+00 1.840678080401502185e-03
3.878011226210649966e+03 1.381577124624328246e+00 2.057454659735565451e-03
3.881889237436861549e+03 1.388707718257063517e+00 2.402651309466112030e-03
3.885771126674299921e+03 1.394028781402476991e+00 2.344407901650279354e-03
3.889656897800975457e+03 1.396819335741746215e+00 2.377844099014424749e-03
3.893546554698777527e+03 1.399386911388940558e+00 2.153450933822399511e-03
3.897440101253477678e+03 1.399889896097203712e+00 1.891563129736148225e-03
3.901337541354732366e+03 1.397323897912429835e+00 1.838509291476329724e-03
3.905238878896088409e+03 1.391508824576845216e+00 1.846100203895195040e-03
3.909144117774985716e+03 1.382678410744135222e+00 1.976686947190929924e-03
3.913053261892762293e+03 1.371845107760924387e+00 2.617990859115939574e-03
3.916966315154656058e+03 1.362755827590178548e+00 2.497105047201646569e-03
3.920883281469812118e+03 1.354690212230930779e+00 2.404462669855273686e-03
3.924804164751283224e+03 1.348491332759669259e+00 2.516554299503250599e-03
3.928728968916035683e+03 1.343186788430303924e+00 2.658613874354140948e-03
3.932657697884953450e+03 1.338650469860390491e+00 2.754858473317854748e-03
3.936590355582839493e+03 1.333721944861213649e+00 2.770152480262770209e-03
