# starting wavelength: 2922.720
# ending wavelength: 7352.910
# wav flux eflux
2.925494007078184040e+03 1.281173616099092971e+00 2.023539306309458247e-02
2.928419501085263164e+03 1.264720575189747898e+00 1.447381666012749479e-02
2.931347920586349119e+03 1.252451966828538321e+00 1.078068042659103935e-02
2.934279268506936660e+03 1.242519961261147943e+00 8.074949545120682637e-03
2.937213547775444567e+03 1.234896479424219651e+00 6.202734721677653947e-03
2.940150761323221104e+03 1.229290794100141859e+00 4.905305085493674201e-03
2.943090912084544925e+03 1.225754870122253815e+00 3.917183303596164998e-03
2.946034002996630534e+03 1.223680417235568196e+00 3.172431311676116202e-03
2.948980036999628283e+03 1.222444650101364383e+00 2.671442662702083748e-03
2.951929017036628920e+03 1.221394076087784608e+00 2.258333540147730752e-03
2.954880946053666321e+03 1.220182804367840212e+00 2.067405720943340641e-03
2.957835826999721121e+03 1.218836259151538037e+00 1.809769557106748021e-03
2.960793662826721629e+03 1.216428366269552752e+00 1.808529688213138080e-03
2.963754456489549284e+03 1.213623005260933807e+00 1.714967779905732410e-03
2.966718210946040017e+03 1.209671585190956078e+00 1.804395287850789516e-03
2.969684929156986982e+03 1.205383219417746732e+00 1.785312742420215853e-03
2.972654614086145102e+03 1.200708777086207935e+00 1.746439479533238442e-03
2.975627268700231980e+03 1.195696669329989748e+00 1.693060233567267227e-03
2.978602895968933353e+03 1.190406851109014674e+00 1.674546941426706187e-03
2.981581498864903097e+03 1.184327416534476818e+00 1.652082726120851410e-03
2.984563080363769132e+03 1.177933410535932035e+00 1.656211061166159041e-03
2.987547643444133882e+03 1.170252843889870720e+00 1.582441838150363753e-03
2.990535191087578823e+03 1.161881709648740602e+00 1.505247925449026362e-03
2.993525726278667662e+03 1.152708704611173696e+00 1.436756551588527211e-03
2.996519252004947248e+03 1.143773348429371284e+00 1.577927670440518008e-03
2.999515771256953030e+03 1.133939883699942364e+00 1.480677666554834453e-03
3.002515287028211333e+03 1.123133333119031407e+00 1.511660514471172435e-03
3.005517802315240260e+03 1.112456213892784262e+00 1.496347525667263926e-03
3.008523320117556523e+03 1.101733248611963312e+00 1.346576522541626441e-03
3.011531843437674979e+03 1.089614052422739565e+00 1.533090618837690267e-03
3.014543375281113640e+03 1.077418473428797263e+00 1.765778763797465345e-03
3.017557918656395941e+03 1.065106312924812837e+00 2.019639185779143961e-03
3.020575476575053472e+03 1.053105310038146891e+00 2.093402244908647031e-03
3.023596052051629158e+03 1.041288988185224751e+00 2.168375175898684670e-03
3.026619648103681811e+03 1.030233070792792471e+00 2.188209986199253325e-03
3.029646267751786581e+03 1.020015303267970408e+00 2.167306516865918908e-03
3.032675914019539505e+03 1.010876291495008239e+00 2.011657673859564531e-03
3.035708589933559779e+03 1.002634977802195460e+00 1.819345589369838296e-03
3.038744298523494763e+03 9.955815389804113513e-01 1.520485760702005099e-03
3.041783042822019070e+03 9.909222410896689759e-01 1.705900815852572994e-03
3.044824825864842296e+03 9.873633991603106841e-01 1.772634797363908119e-03
3.047869650690708113e+03 9.849752248362199092e-01 1.828529647900978923e-03
3.050917520341399722e+03 9.844595918248006949e-01 1.826111748798939791e-03
3.053968437861742132e+03 9.855750524703761339e-01 1.787880505565667827e-03
3.057022406299604881e+03 9.879636763255283949e-01 1.705486645030212601e-03
3.060079428705905229e+03 9.921263392654601221e-01 1.527095824183767039e-03
3.063139508134612242e+03 9.967997705658389052e-01 1.531778996858809390e-03
3.066202647642748161e+03 1.003138443584258299e+00 1.519997712305593994e-03
3.069268850290391583e+03 1.010145818248642913e+00 1.536988871711913356e-03
3.072338119140682920e+03 1.017829803486979712e+00 1.534047222010999833e-03
3.075410457259824852e+03 1.026129991493721638e+00 1.534880434742723560e-03
3.078485867717085512e+03 1.034878805564185766e+00 1.532292368934993218e-03
3.081564353584803939e+03 1.043889953774383539e+00 1.532610375409612907e-03
3.084645917938389630e+03 1.053449707897708754e+00 1.563462164236411201e-03
3.087730563856328899e+03 1.063559029423449598e+00 1.673537436392696833e-03
3.090818294420186248e+03 1.072218314129385730e+00 1.647554272544621929e-03
3.093909112714607545e+03 1.081171794528323238e+00 1.704878138298649608e-03
3.097003021827323209e+03 1.090366280522944153e+00 1.778120992792168575e-03
3.100100024849151396e+03 1.100080898553568165e+00 1.985940134529750895e-03
3.103200124874001631e+03 1.108268309017401032e+00 2.220231865459180477e-03
3.106303324998876633e+03 1.115382633347069108e+00 1.933921185175421125e-03
3.109409628323876859e+03 1.120543877890090467e+00 1.767737233411864400e-03
3.112519037952201415e+03 1.123556387413958468e+00 1.739520510972442351e-03
3.115631556990154877e+03 1.124711464562823338e+00 1.779941689698623895e-03
3.118747188547145925e+03 1.124489516040856563e+00 1.795249317424165141e-03
3.121865935735694165e+03 1.121768964238357702e+00 2.098455236258569070e-03
3.124987801671431043e+03 1.117947651880665472e+00 2.126691465393526232e-03
3.128112789473103476e+03 1.113111030944515134e+00 2.070891704287468240e-03
3.131240902262577492e+03 1.106927550391491266e+00 2.139742445312685631e-03
3.134372143164840963e+03 1.099883082832557868e+00 2.081045200278263708e-03
3.137506515308006783e+03 1.093234662431900928e+00 2.100779400875883371e-03
3.140644021823316052e+03 1.086669991144782799e+00 2.106049702840390950e-03
3.143784665845140353e+03 1.079445875147588607e+00 1.989409979655569049e-03
3.146928450510986750e+03 1.072201883184499716e+00 1.896013180550788074e-03
3.150075378961498700e+03 1.065879925189915367e+00 1.862101226767642328e-03
3.153225454340461056e+03 1.059248208581161199e+00 1.850026854479483972e-03
3.156378679794802792e+03 1.053688581476836417e+00 1.797079863873634123e-03
3.159535058474598372e+03 1.050094867321811121e+00 1.848577804953569848e-03
3.162694593533074112e+03 1.048120156402688297e+00 2.061537915421804337e-03
3.165857288126608182e+03 1.045519985743609492e+00 2.024953989332995644e-03
3.169023145414736064e+03 1.043149504383781290e+00 1.920506351166035046e-03
3.172192168560151458e+03 1.041203858629155876e+00 1.927529395104155864e-03
3.175364360728712654e+03 1.038882574311937201e+00 1.919258580546882127e-03
3.178539725089442527e+03 1.036596638008824733e+00 1.855057586878607143e-03
3.181718264814533086e+03 1.033301599362569378e+00 1.872165359382656734e-03
3.184899983079348658e+03 1.029088858219862068e+00 1.741364172333630458e-03
3.188084883062429071e+03 1.026176820087543851e+00 1.770998193828408809e-03
3.191272967945492383e+03 1.022978100467217599e+00 1.561226161339415762e-03
3.194464240913438971e+03 1.018995088375122648e+00 1.496682516924291830e-03
3.197658705154353811e+03 1.013783926346156994e+00 1.578984798640093151e-03
3.200856363859509202e+03 1.008222944295791290e+00 1.698653845454558848e-03
3.204057220223369768e+03 1.002194570144923080e+00 1.877219198586955106e-03
3.207261277443593826e+03 9.964320967671883578e-01 1.994266572862583072e-03
3.210468538721038840e+03 9.905330601289535908e-01 1.852101721092318330e-03
3.213679007259760965e+03 9.865865152989075071e-01 1.826169335725946925e-03
3.216892686267021418e+03 9.832954915278658836e-01 1.801585939339914741e-03
3.220109578953289656e+03 9.813554398241403076e-01 1.695570730388813643e-03
3.223329688532243836e+03 9.810391988374141947e-01 1.894911128824091793e-03
3.226553018220777176e+03 9.822890493020164371e-01 2.097555304088855304e-03
3.229779571238999324e+03 9.835090651479541091e-01 2.142726863686116728e-03
3.233009350810239084e+03 9.854878698896470945e-01 2.129666620521488904e-03
3.236242360161050783e+03 9.883456799162660955e-01 2.032762840645017596e-03
3.239478602521212906e+03 9.907167654280243374e-01 2.103608006339598418e-03
3.242718081123734919e+03 9.948949536908093805e-01 1.996071868860681189e-03
3.245960799204859995e+03 9.990340503539724137e-01 1.606825386721424508e-03
3.249206760004065927e+03 1.000981816075034336e+00 1.724115195091088489e-03
3.252455966764071036e+03 1.002475134408310931e+00 1.855761805558367667e-03
3.255708422730835991e+03 1.004109799523622781e+00 1.913086889229473732e-03
3.258964131153567905e+03 1.004667406511959404e+00 1.922474795208210015e-03
3.262223095284722604e+03 1.005083962192131253e+00 1.740182892716706821e-03
3.265485318380008266e+03 1.005907369471029433e+00 1.499378976755837449e-03
3.268750803698389518e+03 1.007548773373803996e+00 1.569766566941258046e-03
3.272019554502088795e+03 1.008617880702868730e+00 1.644887490839512956e-03
3.275291574056592253e+03 1.010665735297673340e+00 1.676854115399825955e-03
3.278566865630649772e+03 1.012198627551023300e+00 1.620237957989795197e-03
3.281845432496281319e+03 1.013685974857295280e+00 1.581599529235370744e-03
3.285127277928778767e+03 1.014689899377087867e+00 1.669650473439570270e-03
3.288412405206708627e+03 1.015004697022384939e+00 1.669726319917286738e-03
3.291700817611916591e+03 1.015569076979899732e+00 1.679481662003710560e-03
3.294992518429529355e+03 1.015258566722947675e+00 1.617458061257327990e-03
3.298287510947960072e+03 1.015780842683452256e+00 1.668529725409072847e-03
3.301585798458909267e+03 1.015170872018095638e+00 1.661261987835211448e-03
3.304887384257369376e+03 1.014174295713327734e+00 1.687498521749175497e-03
3.308192271641627485e+03 1.011708101881079847e+00 1.698560641568900654e-03
3.311500463913270323e+03 1.009899838913854486e+00 1.587579536623395663e-03
3.314811964377184722e+03 1.008534291911824754e+00 1.632146582752063086e-03
3.318126776341563072e+03 1.007799375354033300e+00 1.506182994597593961e-03
3.321444903117905596e+03 1.007017276903335645e+00 1.444592781241683726e-03
3.324766348021024896e+03 1.005408198766861272e+00 1.527300402090962838e-03
3.328091114369046863e+03 1.003634081644510401e+00 1.585006436614982365e-03
3.331419205483417045e+03 1.000517274765231113e+00 1.566214352518649705e-03
3.334750624688901553e+03 9.974187096331019742e-01 1.571716162776096550e-03
3.338085375313591612e+03 9.948634653231072100e-01 1.486017747432425914e-03
3.341423460688906289e+03 9.912042272357463046e-01 1.607681881280182638e-03
3.344764884149596128e+03 9.874717070824720055e-01 1.959352252521663878e-03
3.348109649033746791e+03 9.839124326167610901e-01 2.063330430761898746e-03
3.351457758682781787e+03 9.819745331534224242e-01 2.011469942941759934e-03
3.354809216441465651e+03 9.810439696872886861e-01 1.626829183898810451e-03
3.358164025657908041e+03 9.820725518479290761e-01 1.351152007662297224e-03
3.361522189683567376e+03 9.855037328677631603e-01 1.375429388466146031e-03
3.364883711873251741e+03 9.920140259930522175e-01 1.760442188077323764e-03
3.368248595585126168e+03 1.000797401622004701e+00 1.472922386549878034e-03
3.371616844180712633e+03 1.009987684242427131e+00 1.482064011491429070e-03
3.374988461024894150e+03 1.019907251117545322e+00 1.331220448011900077e-03
3.378363449485920228e+03 1.028923722870888735e+00 1.336803388869218200e-03
3.381741812935407324e+03 1.038506643033399568e+00 1.382564851959267212e-03
3.385123554748343849e+03 1.046591158738722438e+00 1.193468735186061598e-03
3.388508678303093347e+03 1.052712806680721647e+00 1.406343794036120929e-03
3.391897186981397681e+03 1.057940994357133402e+00 1.580010315720894705e-03
3.395289084168380214e+03 1.062147897606579017e+00 1.437081585099690044e-03
3.398684373252549449e+03 1.066010787382800418e+00 1.436544342926245662e-03
3.402083057625803121e+03 1.069229482786494767e+00 1.441076696722074684e-03
3.405485140683430018e+03 1.072599802093484378e+00 1.475339398740917662e-03
3.408890625824114522e+03 1.075362973233319419e+00 1.585566686655965653e-03
3.412299516449939802e+03 1.078865005118687215e+00 1.519124896042644548e-03
3.415711815966390986e+03 1.083358454436126328e+00 1.505333656873830261e-03
3.419127527782358356e+03 1.089428668803869238e+00 1.560689351151838596e-03
3.422546655310141887e+03 1.096116041424763488e+00 1.608056937945068904e-03
3.425969201965453522e+03 1.103094297609340080e+00 1.593527921682721211e-03
3.429395171167419903e+03 1.111513205253100933e+00 1.526726069612171664e-03
3.432824566338588284e+03 1.120706699656558225e+00 1.803932247175056959e-03
3.436257390904928343e+03 1.129873424263154957e+00 1.860284365711767102e-03
3.439693648295834464e+03 1.138837600371458425e+00 1.871993370336909107e-03
3.443133341944131189e+03 1.147134945721834720e+00 1.828869302364670739e-03
3.446576475286076402e+03 1.155530806211328088e+00 1.716978833107581483e-03
3.450023051761363604e+03 1.162797259926391602e+00 1.907946616189251524e-03
3.453473074813126004e+03 1.169580478664326018e+00 1.766319552109905672e-03
3.456926547887940615e+03 1.177108922335493579e+00 1.522526503711176243e-03
3.460383474435829612e+03 1.185611609927494259e+00 1.604033817883464448e-03
3.463843857910266706e+03 1.194744586308313261e+00 1.581564458541850904e-03
3.467307701768178049e+03 1.204046722467878361e+00 1.602922045709908412e-03
3.470775009469947236e+03 1.214130078442266836e+00 1.610619096980483089e-03
3.474245784479418489e+03 1.224983453924479493e+00 1.583049462112704874e-03
3.477720030263898934e+03 1.237430055298526677e+00 1.777405060844987382e-03
3.481197750294164052e+03 1.249906108300890883e+00 1.956937343177671349e-03
3.484678948044459503e+03 1.262882968225256031e+00 2.183911310134506369e-03
3.488163626992504760e+03 1.273551619909017774e+00 2.042697282760342920e-03
3.491651790619498570e+03 1.281375029912677821e+00 2.498836774449272012e-03
3.495143442410119405e+03 1.288911168960815701e+00 2.445702822874491755e-03
3.498638585852530468e+03 1.296999709081157359e+00 2.678780642435245156e-03
3.502137224438384237e+03 1.301905803383861304e+00 2.699827679453017850e-03
3.505639361662823831e+03 1.305420337230967176e+00 2.775105177569783897e-03
3.509145001024487556e+03 1.307587424920911179e+00 2.758872936719649650e-03
3.512654146025513455e+03 1.308158217242354704e+00 2.683496628047028505e-03
3.516166800171540217e+03 1.307920582454144220e+00 2.583304526283755967e-03
3.519682966971712631e+03 1.307571042428172792e+00 2.586965801940134622e-03
3.523202649938685681e+03 1.307525883194853744e+00 2.538664419621184526e-03
3.526725852588625457e+03 1.307568397219710965e+00 2.599646227528371305e-03
3.530252578441215064e+03 1.307396321121002236e+00 2.643293213255921287e-03
3.533782831019657806e+03 1.308324919428979660e+00 2.636127420000086187e-03
3.537316613850678550e+03 1.309063975543425684e+00 2.530361018047375295e-03
3.540853930464530094e+03 1.310777763017076269e+00 2.544658888570786384e-03
3.544394784394995895e+03 1.314336696214281064e+00 3.026477062247033122e-03
3.547939179179392340e+03 1.317501894415285646e+00 2.906675127361463447e-03
3.551487118358572843e+03 1.321148157921655741e+00 2.287512067591258337e-03
3.555038605476932389e+03 1.322291356325169476e+00 2.713739754597680950e-03
3.558593644082410719e+03 1.322753285582170202e+00 2.544881839983861686e-03
3.562152237726494150e+03 1.325846373561012648e+00 2.655785074919161503e-03
3.565714389964221937e+03 1.329311347414985356e+00 2.520066698558591240e-03
3.569280104354187188e+03 1.331157286765275005e+00 2.353721824355711756e-03
3.572849384458542772e+03 1.333720785364907568e+00 2.210530528788565499e-03
3.576422233843002232e+03 1.338357557520041263e+00 2.182381253016958244e-03
3.579998656076846601e+03 1.344120678633208277e+00 2.154542765087999641e-03
3.583578654732924406e+03 1.351941061147148071e+00 2.164951311624349183e-03
3.587162233387658489e+03 1.362067883232342069e+00 2.097945535290343232e-03
3.590749395621047370e+03 1.372602498249324343e+00 2.103660059558021961e-03
3.594340145016669794e+03 1.383722353753355616e+00 2.179580249813834521e-03
3.597934485161687462e+03 1.395041860788854615e+00 2.364393402028682704e-03
3.601532419646850485e+03 1.405557052673453766e+00 2.359287101524782781e-03
3.605133952066498296e+03 1.414075804702846106e+00 2.371816611317011884e-03
3.608739086018566013e+03 1.423022286934066294e+00 2.327698791900412872e-03
3.612347825104585809e+03 1.431221909061101583e+00 1.963772444194926414e-03
3.615960172929691907e+03 1.436852713049621588e+00 1.941770106033751005e-03
3.619576133102622407e+03 1.439893879647437647e+00 2.028715777908737371e-03
3.623195709235726554e+03 1.440010880789422743e+00 1.521395805348680361e-03
3.626818904944963379e+03 1.438983684236795124e+00 1.530595827147714734e-03
3.630445723849909427e+03 1.436897479673609590e+00 1.377316745680645009e-03
3.634076169573760581e+03 1.432588205592754793e+00 1.409855075138389440e-03
3.637710245743335690e+03 1.427127585415716160e+00 1.416186200597449292e-03
3.641347955989080219e+03 1.420359044450833608e+00 1.451569038218312839e-03
3.644989303945070333e+03 1.412881189423885298e+00 1.565651246815189315e-03
3.648634293249016537e+03 1.404323290387244016e+00 1.525256763062159907e-03
3.652282927542266862e+03 1.395079384374469766e+00 1.291114502209212041e-03
3.655935210469810499e+03 1.386526522765910485e+00 1.381561409881651306e-03
3.659591145680281443e+03 1.377573920714897815e+00 1.522188259592555408e-03
3.663250736825963031e+03 1.368519291532013682e+00 1.470174235392852436e-03
3.666913987562790226e+03 1.359717531339493801e+00 1.199530923144538543e-03
3.670580901550354156e+03 1.348972006203957408e+00 1.401143307179877114e-03
3.674251482451905758e+03 1.337368031806932756e+00 1.362001588158677631e-03
3.677925733934358959e+03 1.326271526898757047e+00 1.779665359321215296e-03
3.681603659668294313e+03 1.313021580435978386e+00 1.994638466583266781e-03
3.685285263327964003e+03 1.297549880881294415e+00 1.955560444824050708e-03
3.688970548591293209e+03 1.279378367583241971e+00 2.025071093849354752e-03
3.692659519139885560e+03 1.260896126254393623e+00 1.981644511860817474e-03
3.696352178659026777e+03 1.240763428596253659e+00 2.240257848687639535e-03
3.700048530837686940e+03 1.219610972997079656e+00 2.347972434347559475e-03
3.703748579368525952e+03 1.199736903087351703e+00 2.317317361908116484e-03
3.707452327947895355e+03 1.180208983688108004e+00 2.386574464445003971e-03
3.711159780275844696e+03 1.162279773256753579e+00 2.316380915297447038e-03
3.714870940056121526e+03 1.145784966107873171e+00 2.207764096373612730e-03
3.718585810996179134e+03 1.132190084850297485e+00 2.132688719812095984e-03
3.722304396807176545e+03 1.121832670903135432e+00 2.085774529159889826e-03
3.726026701203984885e+03 1.116436217892945892e+00 2.101378092131510854e-03
3.729752727905190113e+03 1.114208632016594480e+00 2.043082727660006787e-03
3.733482480633096657e+03 1.115158961352153089e+00 2.277948058673451206e-03
3.737215963113731050e+03 1.118211320852341206e+00 2.465455818993488122e-03
3.740953179076846027e+03 1.120750818427464157e+00 2.639562952887793655e-03
3.744694132255923705e+03 1.124023782769000723e+00 2.726852634987273795e-03
3.748438826388181042e+03 1.127963295145959277e+00 2.283925348542897252e-03
3.752187265214570289e+03 1.130500923781075251e+00 1.866807537054429849e-03
3.755939452479786269e+03 1.130681504459141618e+00 1.760528124742287599e-03
3.759695391932267285e+03 1.128373509790592255e+00 2.019003663063197781e-03
3.763455087324201031e+03 1.124958425998737077e+00 2.371139120996483638e-03
3.767218542411526414e+03 1.119275451684148548e+00 2.265972658569445283e-03
3.770985760953939007e+03 1.114537472789638439e+00 1.712540801856965184e-03
3.774756746714894234e+03 1.112304726587492354e+00 1.581553712557145748e-03
3.778531503461610555e+03 1.111159956030700835e+00 1.301346454803297120e-03
3.782310034965073100e+03 1.113200909442431996e+00 1.592077812333120811e-03
3.786092345000039586e+03 1.116164022518271626e+00 1.553606270280002933e-03
3.789878437345040766e+03 1.120841151938791080e+00 1.459033409418363349e-03
3.793668315782387253e+03 1.127179414189810380e+00 1.502594896590075078e-03
3.797461984098170888e+03 1.135032792722612038e+00 1.403265860097943282e-03
3.801259446082270188e+03 1.142561085766264029e+00 1.412814576264189012e-03
3.805060705528353537e+03 1.151849082662219637e+00 1.290027320704786960e-03
3.808865766233883278e+03 1.160864211986721628e+00 1.530681011769521220e-03
