# starting wavelength: 2937.360
# ending wavelength: 7404.530
# wav flux eflux
2.940150761323221104e+03 2.247123103262613775e+00 6.013870418727722267e-02
2.943090912084544925e+03 2.169345263070577623e+00 4.397362321050141132e-02
2.946034002996630534e+03 2.107785908183663182e+00 3.219754465068678378e-02
2.948980036999628283e+03 2.061192870585271120e+00 2.446729405548528011e-02
2.951929017036628920e+03 2.031297007911093022e+00 1.878687550797098621e-02
2.954880946053666321e+03 2.015719642920049015e+00 1.679099028454961867e-02
2.957835826999721121e+03 2.006502082591646641e+00 1.570197671737240744e-02
2.960793662826721629e+03 1.999789416496617234e+00 1.402859521626097401e-02
2.963754456489549284e+03 1.994758144835090174e+00 1.181148851781109628e-02
2.966718210946040017e+03 1.992330782431545488e+00 1.070505447937334514e-02
2.969684929156986982e+03 1.991376245584148164e+00 9.770145394580913994e-03
2.972654614086145102e+03 1.993678715020504644e+00 8.584773121986544533e-03
2.975627268700231980e+03 1.998127810929529069e+00 7.768748724017811649e-03
2.978602895968933353e+03 2.003780288570235601e+00 7.309260005356268963e-03
2.981581498864903097e+03 2.011521468973109794e+00 6.932620591786123158e-03
2.984563080363769132e+03 2.023798268426408420e+00 6.578707430695462412e-03
2.987547643444133882e+03 2.040601658904320104e+00 6.966689637404591649e-03
2.990535191087578823e+03 2.057374568750026000e+00 7.101696899262785988e-03
2.993525726278667662e+03 2.072096025022431842e+00 6.914297396377704769e-03
2.996519252004947248e+03 2.086323963816429927e+00 6.905852812936557998e-03
2.999515771256953030e+03 2.100571605624788063e+00 7.106088959275528791e-03
3.002515287028211333e+03 2.113723091492055950e+00 7.317964771207548930e-03
3.005517802315240260e+03 2.124195379665854588e+00 7.133403965581833206e-03
3.008523320117556523e+03 2.130966572798177694e+00 6.998974453033071814e-03
3.011531843437674979e+03 2.137589326066007267e+00 6.510454571671233509e-03
3.014543375281113640e+03 2.142742423960892317e+00 6.451576806293273132e-03
3.017557918656395941e+03 2.142662840698987825e+00 6.614599813966786854e-03
3.020575476575053472e+03 2.140778792051194923e+00 6.444473518567037443e-03
3.023596052051629158e+03 2.135970485747374692e+00 6.170036400390142318e-03
3.026619648103681811e+03 2.125319741626142012e+00 6.674402209512791950e-03
3.029646267751786581e+03 2.111300801058638488e+00 7.396470561842885191e-03
3.032675914019539505e+03 2.097031055527226240e+00 7.455303047133497556e-03
3.035708589933559779e+03 2.080862492032141464e+00 7.383569450559189333e-03
3.038744298523494763e+03 2.059735761927444120e+00 6.809777291063719498e-03
3.041783042822019070e+03 2.037044974120148844e+00 6.144188862175215850e-03
3.044824825864842296e+03 2.011739306163716545e+00 5.717253833807763551e-03
3.047869650690708113e+03 1.985307254408249733e+00 5.623008941855829092e-03
3.050917520341399722e+03 1.959701352027006571e+00 5.638427985212648985e-03
3.053968437861742132e+03 1.934604815702653191e+00 5.744421663822391576e-03
3.057022406299604881e+03 1.912326465638495065e+00 5.680208435119248750e-03
3.060079428705905229e+03 1.892210598130389609e+00 5.687646293219324883e-03
3.063139508134612242e+03 1.872199587335563242e+00 5.848789662546026794e-03
3.066202647642748161e+03 1.853575752255493869e+00 5.838153125845192346e-03
3.069268850290391583e+03 1.837351406985512137e+00 5.824050616519197560e-03
3.072338119140682920e+03 1.823176593564280745e+00 5.872266907896812535e-03
3.075410457259824852e+03 1.809745582850044610e+00 5.892818201934743420e-03
3.078485867717085512e+03 1.799525677508112764e+00 5.794787959356460620e-03
3.081564353584803939e+03 1.791348094725548679e+00 5.342603124359725231e-03
3.084645917938389630e+03 1.788159017191289557e+00 5.377789414399670835e-03
3.087730563856328899e+03 1.788268029499497702e+00 5.382129104025152461e-03
3.090818294420186248e+03 1.793160505737090515e+00 5.586021361891333782e-03
3.093909112714607545e+03 1.799021965357787911e+00 5.811288625879110215e-03
3.097003021827323209e+03 1.804495288581875023e+00 5.754061160821247363e-03
3.100100024849151396e+03 1.812284366410493064e+00 5.589804869377929322e-03
3.103200124874001631e+03 1.822577676040351591e+00 5.328356952776516775e-03
3.106303324998876633e+03 1.834329182877800113e+00 5.493281005060484182e-03
3.109409628323876859e+03 1.842869359944521834e+00 5.660317336054396763e-03
3.112519037952201415e+03 1.852759118792642878e+00 6.081276947077473780e-03
3.115631556990154877e+03 1.862209227983049775e+00 5.666187365123854375e-03
3.118747188547145925e+03 1.868373768224463438e+00 4.961986590097462908e-03
3.121865935735694165e+03 1.870886654270446314e+00 4.928288063945807269e-03
3.124987801671431043e+03 1.868810983193500252e+00 4.756578650309904906e-03
3.128112789473103476e+03 1.864879164295389025e+00 4.624914133945843067e-03
3.131240902262577492e+03 1.860307447980165785e+00 4.508696409545804792e-03
3.134372143164840963e+03 1.853516882144359723e+00 4.380375868769579434e-03
3.137506515308006783e+03 1.842680293394150404e+00 4.888261857865558620e-03
3.140644021823316052e+03 1.829861779872850480e+00 5.017567281360582956e-03
3.143784665845140353e+03 1.816738142509821463e+00 4.744890922837737522e-03
3.146928450510986750e+03 1.800956787704854678e+00 4.407308354296099809e-03
3.150075378961498700e+03 1.784163428044744926e+00 4.236923474892692956e-03
3.153225454340461056e+03 1.765751662805327582e+00 4.181585143974208239e-03
3.156378679794802792e+03 1.748989601708675234e+00 4.308200315939665799e-03
3.159535058474598372e+03 1.731456895836384069e+00 4.517881257597203618e-03
3.162694593533074112e+03 1.714368067503557747e+00 4.423542989303001424e-03
3.165857288126608182e+03 1.698146877095760177e+00 4.408313260539692760e-03
3.169023145414736064e+03 1.682364987834236825e+00 4.309000953034198764e-03
3.172192168560151458e+03 1.669202248531961530e+00 4.274255325589271931e-03
3.175364360728712654e+03 1.659864101698405037e+00 4.485553475331333084e-03
3.178539725089442527e+03 1.650320339788339030e+00 4.403306525837822130e-03
3.181718264814533086e+03 1.642655946114889520e+00 4.386355952416867363e-03
3.184899983079348658e+03 1.638055558912535847e+00 4.202379217857082211e-03
3.188084883062429071e+03 1.631913585429046076e+00 4.301249365605996043e-03
3.191272967945492383e+03 1.625320613234497502e+00 4.238857665270703498e-03
3.194464240913438971e+03 1.621964347596719813e+00 4.159006027118816555e-03
3.197658705154353811e+03 1.622202288520010915e+00 4.129923742467154352e-03
3.200856363859509202e+03 1.625308556246763736e+00 4.211207389276054765e-03
3.204057220223369768e+03 1.630030116279859387e+00 4.145160310792883780e-03
3.207261277443593826e+03 1.637076123749039658e+00 4.478618827038917567e-03
3.210468538721038840e+03 1.644064711498945952e+00 4.802074187309971279e-03
3.213679007259760965e+03 1.651452578676369631e+00 4.921797040055702135e-03
3.216892686267021418e+03 1.659499357956625509e+00 5.024586091067660513e-03
3.220109578953289656e+03 1.665814518523631049e+00 4.920078139173319175e-03
3.223329688532243836e+03 1.671370851644261579e+00 4.929755881011329069e-03
3.226553018220777176e+03 1.674446909688452889e+00 4.893646432319855889e-03
3.229779571238999324e+03 1.676574536548537830e+00 4.688260611260069120e-03
3.233009350810239084e+03 1.678499903730233278e+00 3.909703015597764883e-03
3.236242360161050783e+03 1.677611740448123001e+00 3.774389300731110976e-03
3.239478602521212906e+03 1.673613246599094717e+00 3.705743708976467436e-03
3.242718081123734919e+03 1.666036524393401663e+00 3.668801568995127237e-03
3.245960799204859995e+03 1.656027848851796769e+00 3.670926034180829745e-03
3.249206760004065927e+03 1.643232339505493300e+00 3.993069583584234021e-03
3.252455966764071036e+03 1.628345241333193805e+00 3.992886998310519499e-03
3.255708422730835991e+03 1.613582405388197305e+00 4.011054298747196260e-03
3.258964131153567905e+03 1.601210811120729272e+00 3.904421764020951906e-03
3.262223095284722604e+03 1.590647329126807730e+00 3.957031792774488160e-03
3.265485318380008266e+03 1.581498350980512058e+00 3.802257870824396393e-03
3.268750803698389518e+03 1.575177594194664188e+00 3.626898827022811272e-03
3.272019554502088795e+03 1.567910457495603316e+00 3.593732641170970139e-03
3.275291574056592253e+03 1.562287631461044324e+00 3.468777229176749338e-03
3.278566865630649772e+03 1.558294273746224423e+00 3.604665854009318944e-03
3.281845432496281319e+03 1.556605832126122246e+00 3.842312545167442077e-03
3.285127277928778767e+03 1.558465133601012687e+00 3.814019327431315658e-03
3.288412405206708627e+03 1.565898204087555534e+00 3.725038682391655729e-03
3.291700817611916591e+03 1.575471956459419953e+00 3.905039443988266197e-03
3.294992518429529355e+03 1.587509656883081988e+00 4.018256964218256885e-03
3.298287510947960072e+03 1.603532365487837730e+00 5.034323170503709512e-03
3.301585798458909267e+03 1.619041122395452614e+00 5.477077898442709453e-03
3.304887384257369376e+03 1.633506499232618703e+00 5.511404210709843800e-03
3.308192271641627485e+03 1.645926703195105700e+00 5.470900018626457043e-03
3.311500463913270323e+03 1.658239269917710645e+00 5.203537127670292139e-03
3.314811964377184722e+03 1.667630115630508225e+00 4.891050435181918364e-03
3.318126776341563072e+03 1.675930231368256251e+00 4.610158682958455899e-03
3.321444903117905596e+03 1.679237330163683373e+00 5.011077906577664567e-03
3.324766348021024896e+03 1.677722712216467515e+00 5.439078940965890244e-03
3.328091114369046863e+03 1.674382660828664937e+00 4.884058140602955643e-03
3.331419205483417045e+03 1.670643384614211469e+00 3.887188395637896764e-03
3.334750624688901553e+03 1.666616681922449716e+00 3.927807154881885268e-03
3.338085375313591612e+03 1.662848210902036827e+00 3.900970745335939367e-03
3.341423460688906289e+03 1.659242254983293252e+00 4.273791051548602067e-03
3.344764884149596128e+03 1.657283573118287334e+00 4.164273220082568942e-03
3.348109649033746791e+03 1.655023718372194530e+00 3.332731478890291806e-03
3.351457758682781787e+03 1.649217156465346834e+00 3.513719965443442856e-03
3.354809216441465651e+03 1.643994506397810529e+00 3.767010339133200578e-03
3.358164025657908041e+03 1.634845753796414947e+00 3.766159616839122141e-03
3.361522189683567376e+03 1.624202030744444913e+00 3.784105337460972641e-03
3.364883711873251741e+03 1.613186328514419010e+00 3.875832318149134269e-03
3.368248595585126168e+03 1.603089058785775567e+00 4.012452407084456975e-03
3.371616844180712633e+03 1.593067034158385464e+00 3.814812849592789240e-03
3.374988461024894150e+03 1.585160963020502134e+00 3.891889364026935270e-03
3.378363449485920228e+03 1.577918372326556407e+00 4.052743872371416568e-03
3.381741812935407324e+03 1.571172130768646813e+00 4.243050022095370619e-03
3.385123554748343849e+03 1.565828267447307409e+00 4.499567466593613028e-03
3.388508678303093347e+03 1.561915136001840620e+00 3.456777743292794788e-03
3.391897186981397681e+03 1.555185005589916569e+00 3.580907049876063276e-03
3.395289084168380214e+03 1.547861278223317871e+00 3.717476673736370453e-03
3.398684373252549449e+03 1.543016892533930040e+00 3.915559405608828522e-03
3.402083057625803121e+03 1.536963116196873536e+00 4.180375640889326914e-03
3.405485140683430018e+03 1.531087367563056745e+00 4.711008861967703847e-03
3.408890625824114522e+03 1.529406786645130190e+00 4.693282638598317465e-03
3.412299516449939802e+03 1.529364732898361945e+00 4.543327602227417022e-03
3.415711815966390986e+03 1.530349353415598301e+00 3.761446085764539021e-03
3.419127527782358356e+03 1.535791058835457301e+00 4.016511079372166344e-03
3.422546655310141887e+03 1.546706594188855144e+00 4.023429211550987906e-03
3.425969201965453522e+03 1.555572507051590225e+00 4.067783285418643743e-03
3.429395171167419903e+03 1.563556371503527220e+00 3.639192212840966934e-03
3.432824566338588284e+03 1.568291278037750702e+00 3.371970197271081156e-03
3.436257390904928343e+03 1.569310802735270682e+00 3.542210737693273718e-03
3.439693648295834464e+03 1.568265723493162733e+00 3.577111318923755466e-03
3.443133341944131189e+03 1.565512755196072137e+00 3.588332987334572673e-03
3.446576475286076402e+03 1.560062024155434157e+00 3.613390681892612866e-03
3.450023051761363604e+03 1.553488414255389971e+00 3.682125285605808603e-03
3.453473074813126004e+03 1.545513893008175321e+00 3.298196842158536250e-03
3.456926547887940615e+03 1.538755460908304729e+00 2.766053066036046944e-03
3.460383474435829612e+03 1.533933242671778885e+00 2.709644245939373669e-03
3.463843857910266706e+03 1.534957354487566317e+00 2.116614817766241177e-03
3.467307701768178049e+03 1.536680204097162106e+00 2.037329277172713216e-03
3.470775009469947236e+03 1.541179087989271723e+00 2.116138908151044863e-03
3.474245784479418489e+03 1.548873208841091254e+00 1.898172576373508219e-03
3.477720030263898934e+03 1.558528152204858186e+00 2.050599343990002019e-03
3.481197750294164052e+03 1.568777240528181016e+00 1.985619910338422365e-03
3.484678948044459503e+03 1.581385663513432238e+00 1.970395173853705956e-03
3.488163626992504760e+03 1.596357720017104409e+00 1.771777671592144731e-03
3.491651790619498570e+03 1.611804212105712786e+00 2.145519342341430189e-03
3.495143442410119405e+03 1.625280001105189998e+00 2.154489533222451320e-03
3.498638585852530468e+03 1.637632475858042946e+00 2.193377422867114415e-03
3.502137224438384237e+03 1.648078194332199375e+00 2.334835371998406853e-03
3.505639361662823831e+03 1.658992547167996712e+00 2.302442067949816810e-03
3.509145001024487556e+03 1.670378989333222375e+00 3.164754915920205657e-03
3.512654146025513455e+03 1.679017653851295089e+00 3.364217172025273442e-03
3.516166800171540217e+03 1.684650420295980444e+00 3.294904848692508607e-03
3.519682966971712631e+03 1.687795112019752297e+00 3.236963258485131556e-03
3.523202649938685681e+03 1.688011028776106981e+00 3.702838344680620813e-03
3.526725852588625457e+03 1.685964095734686863e+00 3.734374581417388133e-03
3.530252578441215064e+03 1.684319920219200295e+00 3.692206308442992895e-03
3.533782831019657806e+03 1.681656317207975704e+00 3.716486437104094421e-03
3.537316613850678550e+03 1.678375847968144985e+00 3.951295664371278112e-03
3.540853930464530094e+03 1.676396377203026811e+00 3.754799992763821308e-03
3.544394784394995895e+03 1.676709990465306221e+00 4.336290557827141706e-03
3.547939179179392340e+03 1.675620936597312260e+00 4.643543392127353134e-03
3.551487118358572843e+03 1.673832780229892903e+00 4.619709956784641587e-03
3.555038605476932389e+03 1.673095781290862671e+00 4.278825085788863850e-03
3.558593644082410719e+03 1.672278712535699485e+00 3.458215133665648588e-03
3.562152237726494150e+03 1.668546458291402690e+00 3.521334299967983274e-03
3.565714389964221937e+03 1.664229857220147935e+00 3.517161494960897774e-03
3.569280104354187188e+03 1.656069082961401318e+00 3.456012527331013984e-03
3.572849384458542772e+03 1.649673970292681702e+00 3.046766519355473789e-03
3.576422233843002232e+03 1.646621474067756052e+00 3.063768910349159470e-03
3.579998656076846601e+03 1.645166963437752816e+00 3.001213098615773504e-03
3.583578654732924406e+03 1.645730785334565072e+00 2.992958985170113013e-03
3.587162233387658489e+03 1.648894893117694549e+00 3.100256456502175489e-03
3.590749395621047370e+03 1.653256130374587851e+00 3.479429967729022813e-03
3.594340145016669794e+03 1.659176841592367557e+00 3.307848180171828363e-03
3.597934485161687462e+03 1.665772393855206479e+00 2.591310519396316635e-03
3.601532419646850485e+03 1.670341520253063816e+00 2.706477806907818875e-03
3.605133952066498296e+03 1.672943657632447456e+00 2.756034243629292176e-03
3.608739086018566013e+03 1.677387130392277159e+00 2.938874508162675307e-03
3.612347825104585809e+03 1.683330131089883386e+00 2.948948317731449071e-03
3.615960172929691907e+03 1.688782845472475147e+00 2.881203058948230995e-03
3.619576133102622407e+03 1.693294311588601442e+00 2.634158374288556904e-03
3.623195709235726554e+03 1.698547106157201503e+00 3.536235140237516464e-03
3.626818904944963379e+03 1.702108949535795501e+00 4.359553628602650353e-03
3.630445723849909427e+03 1.703048449912617723e+00 3.987499789587317656e-03
3.634076169573760581e+03 1.700877291891907284e+00 2.758021430417429386e-03
3.637710245743335690e+03 1.692640585001166098e+00 2.847265236027814346e-03
3.641347955989080219e+03 1.681656020117100914e+00 2.750870232802028834e-03
3.644989303945070333e+03 1.666951992680204775e+00 2.751093751006828368e-03
3.648634293249016537e+03 1.647496353513776768e+00 4.106142106579795462e-03
3.652282927542266862e+03 1.626750478952786461e+00 5.024381156926856565e-03
3.655935210469810499e+03 1.610197309839975777e+00 4.375033564219362597e-03
3.659591145680281443e+03 1.599117018793392742e+00 3.918339327739551493e-03
3.663250736825963031e+03 1.594521686652034420e+00 3.405254597869979572e-03
3.666913987562790226e+03 1.598159342728920684e+00 4.094458262547864998e-03
3.670580901550354156e+03 1.607437101874520602e+00 4.570860425888879225e-03
3.674251482451905758e+03 1.621078860281312650e+00 5.193890040162023498e-03
3.677925733934358959e+03 1.637825711129877071e+00 5.866957120202870128e-03
3.681603659668294313e+03 1.653470000156444408e+00 5.311519503352566882e-03
3.685285263327964003e+03 1.666441165913731925e+00 4.776909784284605331e-03
3.688970548591293209e+03 1.674852099944601269e+00 4.580424374279536658e-03
3.692659519139885560e+03 1.678809508698770214e+00 5.833157621450433920e-03
3.696352178659026777e+03 1.680926452502149893e+00 6.005346252390669944e-03
3.700048530837686940e+03 1.678752881985916767e+00 5.575581148095243127e-03
3.703748579368525952e+03 1.674067381596954451e+00 4.567910828365993534e-03
3.707452327947895355e+03 1.669808872245631237e+00 3.442745167260170217e-03
3.711159780275844696e+03 1.668642094805950382e+00 3.336907750213042798e-03
3.714870940056121526e+03 1.671838211097942173e+00 3.403259159568622697e-03
3.718585810996179134e+03 1.673623836788714847e+00 3.458953337600988685e-03
3.722304396807176545e+03 1.676355299120040554e+00 3.610931293703445628e-03
3.726026701203984885e+03 1.680477340901033179e+00 3.357668373490755101e-03
3.729752727905190113e+03 1.681675243370817752e+00 3.273426370220846020e-03
3.733482480633096657e+03 1.679125436625287238e+00 3.260001729713486902e-03
3.737215963113731050e+03 1.674173357296174558e+00 3.472354683608641895e-03
3.740953179076846027e+03 1.665925875435116277e+00 3.294273486594073968e-03
3.744694132255923705e+03 1.655293452342299965e+00 3.622806231447623336e-03
3.748438826388181042e+03 1.645795742030235154e+00 3.617008032227757037e-03
3.752187265214570289e+03 1.634649988068086701e+00 3.558170933465573758e-03
3.755939452479786269e+03 1.623344022741008086e+00 3.613460822371684835e-03
3.759695391932267285e+03 1.610018076807742782e+00 3.826184614947472987e-03
3.763455087324201031e+03 1.594440056278248585e+00 4.334139780316803234e-03
3.767218542411526414e+03 1.579955842059389104e+00 4.040734845798993162e-03
3.770985760953939007e+03 1.561469935579648860e+00 3.431172672220744908e-03
3.774756746714894234e+03 1.539376588541567337e+00 4.876291990330234964e-03
3.778531503461610555e+03 1.517600151420958499e+00 5.451809155408610628e-03
3.782310034965073100e+03 1.496383557723892865e+00 5.484565626486335305e-03
3.786092345000039586e+03 1.477779688603259700e+00 5.773309724001862708e-03
3.789878437345040766e+03 1.463409943696772464e+00 4.471629729777814970e-03
3.793668315782387253e+03 1.454972444029331458e+00 3.591594322497743390e-03
3.797461984098170888e+03 1.455163782271909900e+00 3.958652707343290715e-03
3.801259446082270188e+03 1.462528536160251136e+00 5.384514046774604122e-03
3.805060705528353537e+03 1.472389861345424045e+00 5.864645877336481170e-03
3.808865766233883278e+03 1.484381851660966367e+00 5.650060012810084742e-03
3.812674632000118436e+03 1.495503807453141487e+00 4.228687943106377786e-03
3.816487306632119726e+03 1.501026305645676739e+00 3.770146137873965977e-03
3.820303793938753188e+03 1.502275684933013000e+00 2.991748764711360010e-03
3.824124097732693372e+03 1.496083856558068970e+00 3.504702549890450613e-03
3.827948221830427428e+03 1.483052822519481673e+00 4.577226953831270255e-03
