# starting wavelength: 2922.720
# ending wavelength: 7352.910
# wav flux eflux
2.925494007078184040e+03 1.666357050793832340e+00 7.171176862488817805e-03
2.928419501085263164e+03 1.651799342589660879e+00 5.130758680497472628e-03
2.931347920586349119e+03 1.637531998987321602e+00 3.997366797735649700e-03
2.934279268506936660e+03 1.625132482668569356e+00 3.688721764990533000e-03
2.937213547775444567e+03 1.612689657508920238e+00 2.919832849001648741e-03
2.940150761323221104e+03 1.600230233559874815e+00 2.288574228023598518e-03
2.943090912084544925e+03 1.587914532952279689e+00 1.830608625384492951e-03
2.946034002996630534e+03 1.575993352611549270e+00 1.498339364718241943e-03
2.948980036999628283e+03 1.564486100744179042e+00 1.340385814040838354e-03
2.951929017036628920e+03 1.553594547443816420e+00 1.217693342385300827e-03
2.954880946053666321e+03 1.543191223744393659e+00 1.084522811673172124e-03
2.957835826999721121e+03 1.533028347168606365e+00 9.521608159449902482e-04
2.960793662826721629e+03 1.522984705537988148e+00 8.668557708929123650e-04
2.963754456489549284e+03 1.513247840773848996e+00 7.980810444963473260e-04
2.966718210946040017e+03 1.503605454832699584e+00 7.469554187272810317e-04
2.969684929156986982e+03 1.493976246613786030e+00 7.238236155700668827e-04
2.972654614086145102e+03 1.484565574435235069e+00 6.989526312963914361e-04
2.975627268700231980e+03 1.475301644084064723e+00 6.855272931990127145e-04
2.978602895968933353e+03 1.466424838420102184e+00 6.784424699495832838e-04
2.981581498864903097e+03 1.457636763982610439e+00 6.741070534620705610e-04
2.984563080363769132e+03 1.448811926966636854e+00 7.000408177391744154e-04
2.987547643444133882e+03 1.440176864892690034e+00 7.137983873512175875e-04
2.990535191087578823e+03 1.431892146457191428e+00 7.072241991450626403e-04
2.993525726278667662e+03 1.423753226551496498e+00 7.062456210509749548e-04
2.996519252004947248e+03 1.415701330660854795e+00 6.859574254588653554e-04
2.999515771256953030e+03 1.408124421873863996e+00 6.902746008402305946e-04
3.002515287028211333e+03 1.400694399366686271e+00 7.103811260498481316e-04
3.005517802315240260e+03 1.393639436249640928e+00 7.233316581796489292e-04
3.008523320117556523e+03 1.386847715858015029e+00 6.987051107975874534e-04
3.011531843437674979e+03 1.379816986984811811e+00 6.923134961296306070e-04
3.014543375281113640e+03 1.373181881760766831e+00 6.930663678057337809e-04
3.017557918656395941e+03 1.366805601394335934e+00 7.060882313778947149e-04
3.020575476575053472e+03 1.360561697538229531e+00 7.191918928111006503e-04
3.023596052051629158e+03 1.354867429474433616e+00 7.650214735340693300e-04
3.026619648103681811e+03 1.349350904796166262e+00 7.845462067004913649e-04
3.029646267751786581e+03 1.343809516566426554e+00 7.511276455504727577e-04
3.032675914019539505e+03 1.338632527852114729e+00 6.751143229703669094e-04
3.035708589933559779e+03 1.333184625324756789e+00 6.444915475017724002e-04
3.038744298523494763e+03 1.327521134695081928e+00 8.558862692599070524e-04
3.041783042822019070e+03 1.321837837735844623e+00 8.524968412854284786e-04
3.044824825864842296e+03 1.316574917777564524e+00 9.070743951932811041e-04
3.047869650690708113e+03 1.311931071657395753e+00 9.027075201976976233e-04
3.050917520341399722e+03 1.307382606190921281e+00 9.393859624661055584e-04
3.053968437861742132e+03 1.303499470329909427e+00 9.281120463496253439e-04
3.057022406299604881e+03 1.300313943445267073e+00 9.789914841753036018e-04
3.060079428705905229e+03 1.297810840276459654e+00 1.009456927726974391e-03
3.063139508134612242e+03 1.296074172888968867e+00 9.811510019010029945e-04
3.066202647642748161e+03 1.295117447902685015e+00 8.887072608269983194e-04
3.069268850290391583e+03 1.295235074856246893e+00 8.376774580772649182e-04
3.072338119140682920e+03 1.296310333489883559e+00 7.995427811549691427e-04
3.075410457259824852e+03 1.298274146713841670e+00 7.930290362599053426e-04
3.078485867717085512e+03 1.301408998917383153e+00 8.228524332152774550e-04
3.081564353584803939e+03 1.305404238940893302e+00 8.110653862845947255e-04
3.084645917938389630e+03 1.309815731540516781e+00 8.246108791678566060e-04
3.087730563856328899e+03 1.315124002606194775e+00 8.404798017620075754e-04
3.090818294420186248e+03 1.321252087650191420e+00 8.975542317430215342e-04
3.093909112714607545e+03 1.327550365759014639e+00 8.898398820254301402e-04
3.097003021827323209e+03 1.334603764591990149e+00 1.205202701410272798e-03
3.100100024849151396e+03 1.341568940403612187e+00 1.390974645751256187e-03
3.103200124874001631e+03 1.348245518308664348e+00 1.322832509167550918e-03
3.106303324998876633e+03 1.354020421120321060e+00 1.415888932667494146e-03
3.109409628323876859e+03 1.358901126553405447e+00 1.474160008874663558e-03
3.112519037952201415e+03 1.362259829197347560e+00 1.434798654958116537e-03
3.115631556990154877e+03 1.364063520994075684e+00 1.385962505781116339e-03
3.118747188547145925e+03 1.364436450424928893e+00 1.361388269098012154e-03
3.121865935735694165e+03 1.363528447765164575e+00 1.323401409438541756e-03
3.124987801671431043e+03 1.361064515282788712e+00 1.366005639755359796e-03
3.128112789473103476e+03 1.357153505227796986e+00 1.442751949774549736e-03
3.131240902262577492e+03 1.351622374342247968e+00 1.733962562251133589e-03
3.134372143164840963e+03 1.344586049597578770e+00 1.886097752019635790e-03
3.137506515308006783e+03 1.337212697449625898e+00 1.753204440268805531e-03
3.140644021823316052e+03 1.329013172072126325e+00 1.783884304700704025e-03
3.143784665845140353e+03 1.320248003731572695e+00 1.669907222903370013e-03
3.146928450510986750e+03 1.311441250974706874e+00 1.469563683705639749e-03
3.150075378961498700e+03 1.303071376468911025e+00 1.286759231889210474e-03
3.153225454340461056e+03 1.294699773503348750e+00 1.045406241321603135e-03
3.156378679794802792e+03 1.287811642013237723e+00 1.144360166886061909e-03
3.159535058474598372e+03 1.281856790682493585e+00 1.185934798672364822e-03
3.162694593533074112e+03 1.276358629986978244e+00 1.199700666880270565e-03
3.165857288126608182e+03 1.271350850617310124e+00 1.051631314149807216e-03
3.169023145414736064e+03 1.266530893911963274e+00 9.488011363548690038e-04
3.172192168560151458e+03 1.262428531661422992e+00 7.389986739718311859e-04
3.175364360728712654e+03 1.258446733504486437e+00 7.794086069052121642e-04
3.178539725089442527e+03 1.254217897858468600e+00 7.802195103346112317e-04
3.181718264814533086e+03 1.250376156045864384e+00 8.366100504126874806e-04
3.184899983079348658e+03 1.246253102749053321e+00 8.662343369796340984e-04
3.188084883062429071e+03 1.242718022343065831e+00 8.556462094561355413e-04
3.191272967945492383e+03 1.238576169080497058e+00 8.653856984255376555e-04
3.194464240913438971e+03 1.233882153315971619e+00 8.815667973654877330e-04
3.197658705154353811e+03 1.229330846828757151e+00 9.053981918029239875e-04
3.200856363859509202e+03 1.224079560455489935e+00 1.056601363502049752e-03
3.204057220223369768e+03 1.218771180498846363e+00 1.186866495881330318e-03
3.207261277443593826e+03 1.213802600717720948e+00 1.331682868375538408e-03
3.210468538721038840e+03 1.209687231798717733e+00 1.361539490658860048e-03
3.213679007259760965e+03 1.206108697286829345e+00 1.363601054068529911e-03
3.216892686267021418e+03 1.203441424380813141e+00 1.351667295470512396e-03
3.220109578953289656e+03 1.201628957299209821e+00 1.532512612126693931e-03
3.223329688532243836e+03 1.200260239629562964e+00 1.682017140983556053e-03
3.226553018220777176e+03 1.199241174020321044e+00 1.774593768544280824e-03
3.229779571238999324e+03 1.198030405343602167e+00 1.854122414917300102e-03
3.233009350810239084e+03 1.197288895562274247e+00 1.840915664185341534e-03
3.236242360161050783e+03 1.197156772435592931e+00 1.780061983767216660e-03
3.239478602521212906e+03 1.197936182300052277e+00 1.598022833048375448e-03
3.242718081123734919e+03 1.198179078104440798e+00 1.480208590616504056e-03
3.245960799204859995e+03 1.197813970451317989e+00 1.516873918671211331e-03
3.249206760004065927e+03 1.196746097899495487e+00 1.597810874386281334e-03
3.252455966764071036e+03 1.195559436238881723e+00 1.467166492947735582e-03
3.255708422730835991e+03 1.194290469975194613e+00 1.371262885191243484e-03
3.258964131153567905e+03 1.193086311355426865e+00 1.302856022405905929e-03
3.262223095284722604e+03 1.191908101395329211e+00 1.121562097668751768e-03
3.265485318380008266e+03 1.191758942181711411e+00 1.112949689852948650e-03
3.268750803698389518e+03 1.192534048789397616e+00 1.200197454828500669e-03
3.272019554502088795e+03 1.193375565727883281e+00 1.235907742318868114e-03
3.275291574056592253e+03 1.194838562908853818e+00 1.235058096284281795e-03
3.278566865630649772e+03 1.196637930464042876e+00 1.064503495231005790e-03
3.281845432496281319e+03 1.197751195850540684e+00 1.062479319492786031e-03
3.285127277928778767e+03 1.198031830822157806e+00 1.269590218910156406e-03
3.288412405206708627e+03 1.198848116668481456e+00 1.257455201366844627e-03
3.291700817611916591e+03 1.199343232434267437e+00 1.261859982351780374e-03
3.294992518429529355e+03 1.199990098505934188e+00 1.432729725063132788e-03
3.298287510947960072e+03 1.200608218113591974e+00 1.247865219420817582e-03
3.301585798458909267e+03 1.199774602697728731e+00 1.181398722792485322e-03
3.304887384257369376e+03 1.197866583803977703e+00 1.186464242264073524e-03
3.308192271641627485e+03 1.194651378266490482e+00 1.219530718166241456e-03
3.311500463913270323e+03 1.191222266696498444e+00 1.238726172697675277e-03
3.314811964377184722e+03 1.187271531932611035e+00 1.252775871839249475e-03
3.318126776341563072e+03 1.183285275276976245e+00 1.323400215303052697e-03
3.321444903117905596e+03 1.178481412443383336e+00 1.345752883324499239e-03
3.324766348021024896e+03 1.173995129897712930e+00 1.314219094821290510e-03
3.328091114369046863e+03 1.169891874382350316e+00 1.339390775328038949e-03
3.331419205483417045e+03 1.165977096146284309e+00 1.262029651520860931e-03
3.334750624688901553e+03 1.163456340871585004e+00 1.129395948173331785e-03
3.338085375313591612e+03 1.162150998086730169e+00 1.129740311877290874e-03
3.341423460688906289e+03 1.163056589508452587e+00 1.339006199094573083e-03
3.344764884149596128e+03 1.165004309575502273e+00 1.490432738971267509e-03
3.348109649033746791e+03 1.167518147039658727e+00 1.652960104246415079e-03
3.351457758682781787e+03 1.168274231120575601e+00 1.609797214662160277e-03
3.354809216441465651e+03 1.168219966206325289e+00 1.629394180952485572e-03
3.358164025657908041e+03 1.168623238705623235e+00 1.571704092879995735e-03
3.361522189683567376e+03 1.168864943708400883e+00 1.657361612642766369e-03
3.364883711873251741e+03 1.168958979322499481e+00 1.686239202767704937e-03
3.368248595585126168e+03 1.168780552754484336e+00 1.980961731124045687e-03
3.371616844180712633e+03 1.169057022941689006e+00 2.110961733546612082e-03
3.374988461024894150e+03 1.170547564422663500e+00 2.123504766715102448e-03
3.378363449485920228e+03 1.174404002616352916e+00 1.890207605835027196e-03
3.381741812935407324e+03 1.182532042043629827e+00 1.766875203210595269e-03
3.385123554748343849e+03 1.194150630201676888e+00 2.414490343094751867e-03
3.388508678303093347e+03 1.207565587690568654e+00 2.625921533849884248e-03
3.391897186981397681e+03 1.222952288498578399e+00 2.521899559285478796e-03
3.395289084168380214e+03 1.238791239094487073e+00 2.203802908923468105e-03
3.398684373252549449e+03 1.253435102905142262e+00 2.040869328174836541e-03
3.402083057625803121e+03 1.267202485653369237e+00 1.880194149489019216e-03
3.405485140683430018e+03 1.278979691846850786e+00 2.112862661880126301e-03
3.408890625824114522e+03 1.288708906437847856e+00 2.198615647815317133e-03
3.412299516449939802e+03 1.295001183497376029e+00 2.127878975983499461e-03
3.415711815966390986e+03 1.298195512628937953e+00 2.115101215325152113e-03
3.419127527782358356e+03 1.297075931659654513e+00 2.502545402520569510e-03
3.422546655310141887e+03 1.294716549145155993e+00 2.975847917117177121e-03
3.425969201965453522e+03 1.293306102027890425e+00 2.978654305429574278e-03
3.429395171167419903e+03 1.292919337096630761e+00 2.935191449506828650e-03
3.432824566338588284e+03 1.293723666370452330e+00 2.839427657393667551e-03
3.436257390904928343e+03 1.296520064870551714e+00 2.842284440809372120e-03
3.439693648295834464e+03 1.300347731630155934e+00 2.769757963144184060e-03
3.443133341944131189e+03 1.305766956351744668e+00 2.730498463282872174e-03
3.446576475286076402e+03 1.314498292642074295e+00 2.760458260426858820e-03
3.450023051761363604e+03 1.324574328369658049e+00 2.285014564292766736e-03
3.453473074813126004e+03 1.335072273075387672e+00 2.086947855582838539e-03
3.456926547887940615e+03 1.346253844375204345e+00 1.905702020541072102e-03
3.460383474435829612e+03 1.356445718925389121e+00 1.891996351782313087e-03
3.463843857910266706e+03 1.364923212672476849e+00 1.708132029276945461e-03
3.467307701768178049e+03 1.372511408589367710e+00 1.561387116903556948e-03
3.470775009469947236e+03 1.380242965691406365e+00 1.629109942532118438e-03
3.474245784479418489e+03 1.386743193336143820e+00 1.557843977868193699e-03
3.477720030263898934e+03 1.392452748314344957e+00 1.597815593839371166e-03
3.481197750294164052e+03 1.397339017121162152e+00 2.003465967191672952e-03
3.484678948044459503e+03 1.401315505951240103e+00 2.072110246358998577e-03
3.488163626992504760e+03 1.405169934967980039e+00 1.675062704346735399e-03
3.491651790619498570e+03 1.410574903419091974e+00 1.769968446432140189e-03
3.495143442410119405e+03 1.416219386945576364e+00 2.181645239312281215e-03
3.498638585852530468e+03 1.421619878090515376e+00 2.385274247024174281e-03
3.502137224438384237e+03 1.426998111307153261e+00 2.283340378890008800e-03
3.505639361662823831e+03 1.431332465867065640e+00 2.085851763202607994e-03
3.509145001024487556e+03 1.434818628125895223e+00 1.995830272002467511e-03
3.512654146025513455e+03 1.437494336227701064e+00 2.226717906354367445e-03
3.516166800171540217e+03 1.438682138367767926e+00 2.462020773925423407e-03
3.519682966971712631e+03 1.440254036388477932e+00 2.216096066223646657e-03
3.523202649938685681e+03 1.442118352914086854e+00 2.037019064646630653e-03
3.526725852588625457e+03 1.444279835212697538e+00 1.896538600185685569e-03
3.530252578441215064e+03 1.447416874616970661e+00 2.321209381792350632e-03
3.533782831019657806e+03 1.450712234918228205e+00 2.380503189373910609e-03
3.537316613850678550e+03 1.454337617076389533e+00 1.988608166945106392e-03
3.540853930464530094e+03 1.456959306790390762e+00 1.742401984857891830e-03
3.544394784394995895e+03 1.458907280458894506e+00 1.774975444786855384e-03
3.547939179179392340e+03 1.459579751324350472e+00 2.020738164797153142e-03
3.551487118358572843e+03 1.459845149353111937e+00 1.934111495773956687e-03
3.555038605476932389e+03 1.460170232370796795e+00 1.434913692968850822e-03
3.558593644082410719e+03 1.461516260921665422e+00 1.545495272755233792e-03
3.562152237726494150e+03 1.463559524486099717e+00 2.037718016776905814e-03
3.565714389964221937e+03 1.465165745830862454e+00 2.116851049233008618e-03
3.569280104354187188e+03 1.466598889628109914e+00 1.887874974161277575e-03
3.572849384458542772e+03 1.467885290287528788e+00 1.646803256297531227e-03
3.576422233843002232e+03 1.468529577685711907e+00 1.708403686458901055e-03
3.579998656076846601e+03 1.468134906701592746e+00 2.372808573157663380e-03
3.583578654732924406e+03 1.468448405866777273e+00 2.407022978211660526e-03
3.587162233387658489e+03 1.470764780763840873e+00 2.213464274711533959e-03
3.590749395621047370e+03 1.474049845182722862e+00 1.743735764334489310e-03
3.594340145016669794e+03 1.479755265051712732e+00 1.775300962980546271e-03
3.597934485161687462e+03 1.487951126553594294e+00 1.980730904071664744e-03
3.601532419646850485e+03 1.497006887484415349e+00 1.928509669730399520e-03
3.605133952066498296e+03 1.507705645809986894e+00 1.671741081916130372e-03
3.608739086018566013e+03 1.518797621087869532e+00 1.443408006116982546e-03
3.612347825104585809e+03 1.529402085213418472e+00 1.269380876476168410e-03
3.615960172929691907e+03 1.539128988190730185e+00 1.273349507157511742e-03
3.619576133102622407e+03 1.547061833516198970e+00 1.269978771571382255e-03
3.623195709235726554e+03 1.554132706249230944e+00 1.268069719127137753e-03
3.626818904944963379e+03 1.559552273577648140e+00 1.241613386773137741e-03
3.630445723849909427e+03 1.563939315047682577e+00 1.220145918392960159e-03
3.634076169573760581e+03 1.566477170649304140e+00 1.218185122102239878e-03
3.637710245743335690e+03 1.567470697745199093e+00 1.225043220532403198e-03
3.641347955989080219e+03 1.567450782426646150e+00 1.105606318706928983e-03
3.644989303945070333e+03 1.564718443438149587e+00 1.592250033825997257e-03
3.648634293249016537e+03 1.560337240786991098e+00 1.367290367577599390e-03
3.652282927542266862e+03 1.555919255090363551e+00 1.455996411343498309e-03
3.655935210469810499e+03 1.550457478121266774e+00 1.683034901720673092e-03
3.659591145680281443e+03 1.543050328151315265e+00 1.839403701166682529e-03
3.663250736825963031e+03 1.534220054608679495e+00 1.838172343545080517e-03
3.666913987562790226e+03 1.523095088319925905e+00 1.763487531428562611e-03
3.670580901550354156e+03 1.508435460516498905e+00 1.710614897793016854e-03
3.674251482451905758e+03 1.490812769910739854e+00 1.564384790197893491e-03
3.677925733934358959e+03 1.470164415189891827e+00 1.956175835695634756e-03
3.681603659668294313e+03 1.447456789000914013e+00 2.230063085357259466e-03
3.685285263327964003e+03 1.424158221409734137e+00 2.418189807002197114e-03
3.688970548591293209e+03 1.400422390777865456e+00 2.250429073460031432e-03
3.692659519139885560e+03 1.378813878397393111e+00 2.135734796266842636e-03
3.696352178659026777e+03 1.359841480186514406e+00 1.525125377414090436e-03
3.700048530837686940e+03 1.345249374615132387e+00 1.425287669375333932e-03
3.703748579368525952e+03 1.335205613955150028e+00 2.145693432310474911e-03
3.707452327947895355e+03 1.328204668901301400e+00 2.101694646429843119e-03
3.711159780275844696e+03 1.323904633860871094e+00 1.720139326523220658e-03
3.714870940056121526e+03 1.321023992208610442e+00 1.750869541438422475e-03
3.718585810996179134e+03 1.319833073414746316e+00 1.708999710599127392e-03
3.722304396807176545e+03 1.319947855089580235e+00 1.282953180806219043e-03
3.726026701203984885e+03 1.318685158186479134e+00 1.235953788778571677e-03
3.729752727905190113e+03 1.316641350456297044e+00 1.234766334363873166e-03
3.733482480633096657e+03 1.314128832595612195e+00 1.233418679491067810e-03
3.737215963113731050e+03 1.310564641494033289e+00 1.375200205608890407e-03
3.740953179076846027e+03 1.306428387186881146e+00 1.528230824328346248e-03
3.744694132255923705e+03 1.301866486688259217e+00 1.582203308385667388e-03
3.748438826388181042e+03 1.297538151989464650e+00 1.426538932287031627e-03
3.752187265214570289e+03 1.294234510038909880e+00 1.486193783961767918e-03
3.755939452479786269e+03 1.290807948304840469e+00 1.479259607540165007e-03
3.759695391932267285e+03 1.287368115972178151e+00 1.534518535609519100e-03
3.763455087324201031e+03 1.283698111220928029e+00 1.655242169918226319e-03
3.767218542411526414e+03 1.279549513569930186e+00 1.692867417370836920e-03
3.770985760953939007e+03 1.275653421989439984e+00 1.561446721105833437e-03
3.774756746714894234e+03 1.271600770376508871e+00 9.765923210640482625e-04
3.778531503461610555e+03 1.265263862676486495e+00 1.009786181986904643e-03
3.782310034965073100e+03 1.257980159994622538e+00 1.049689039300739446e-03
3.786092345000039586e+03 1.250322944576012896e+00 1.229346650941880994e-03
3.789878437345040766e+03 1.242709122291914436e+00 1.633305905637997581e-03
3.793668315782387253e+03 1.236735369561285713e+00 1.763949525251912610e-03
3.797461984098170888e+03 1.232531080178689731e+00 1.444581240599096972e-03
3.801259446082270188e+03 1.232299528231250330e+00 1.234192941645599227e-03
3.805060705528353537e+03 1.236397533207423960e+00 1.245417339136320337e-03
3.808865766233883278e+03 1.243594452251301830e+00 1.139026166276736318e-03
