# starting wavelength: 2698.110
# ending wavelength: 5984.600
# wav flux eflux
2.700679292239849019e+03 1.169026037548747343e+00 2.345996203267267446e-02
2.703379971532089712e+03 1.179104880048513104e+00 1.832285857022705397e-02
2.706083351503622907e+03 1.186514991261965690e+00 1.463402957203435890e-02
2.708789434855127183e+03 1.191195990508486569e+00 1.323788489377984191e-02
2.711498224289983227e+03 1.197785711180476165e+00 1.175134919444502553e-02
2.714209722514274290e+03 1.205501565965079847e+00 9.834896817092946344e-03
2.716923932236789369e+03 1.214637297102108215e+00 9.143015897360193961e-03
2.719640856169027302e+03 1.224535856351606000e+00 8.423464929385213185e-03
2.722360497025197219e+03 1.235113107632106244e+00 7.968414057386267665e-03
2.725082857522223094e+03 1.245989867441515075e+00 7.735266203693349704e-03
2.727807940379746015e+03 1.254544694198404642e+00 7.265820666705617888e-03
2.730535748320126913e+03 1.259130902455292356e+00 7.027724988909861067e-03
2.733266284068447931e+03 1.260723974316110718e+00 7.354047996054975320e-03
2.735999550352517417e+03 1.262040978093978749e+00 7.606144053476738241e-03
2.738735549902870844e+03 1.262844477307991209e+00 8.250663104795928973e-03
2.741474285452774438e+03 1.264093735813226260e+00 8.902504995404198623e-03
2.744215759738227916e+03 1.267157434861535759e+00 9.190906222878377635e-03
2.746959975497967207e+03 1.275066646396292747e+00 9.344488563843929632e-03
2.749706935473466274e+03 1.280804537931247378e+00 9.396366558427860990e-03
2.752456642408940297e+03 1.292659276661657142e+00 9.182231705349102810e-03
2.755209099051350222e+03 1.307822324553708393e+00 9.137907491156364512e-03
2.757964308150402758e+03 1.325229252021945303e+00 9.209199019891096960e-03
2.760722272458554016e+03 1.342871324863966542e+00 9.312196677225581185e-03
2.763482994731013605e+03 1.362177815677295012e+00 9.216870148719222972e-03
2.766246477725745535e+03 1.383478593642085919e+00 9.171159840424743595e-03
2.769012724203471862e+03 1.405987319379214728e+00 9.133436134263079806e-03
2.771781736927676320e+03 1.430927514177602777e+00 9.449231459798557511e-03
2.774553518664604780e+03 1.456614451916609321e+00 9.413664506398024615e-03
2.777328072183270706e+03 1.484675113142598590e+00 9.302725658241008111e-03
2.780105400255454697e+03 1.512808207542223116e+00 8.773592641561932248e-03
2.782885505655710858e+03 1.539634000220469812e+00 7.877354641235278024e-03
2.785668391161367708e+03 1.567609148334275115e+00 6.519768019854849106e-03
2.788454059552529998e+03 1.591757099852340263e+00 5.542653240146596001e-03
2.791242513612083258e+03 1.611471084717648994e+00 5.188587276304336762e-03
2.794033756125696527e+03 1.625943271367712217e+00 5.446583857528180909e-03
2.796827789881823264e+03 1.635956312844577321e+00 5.629021073120276004e-03
2.799624617671705892e+03 1.642251506772687719e+00 5.395802933477094124e-03
2.802424242289378526e+03 1.645238328082073043e+00 4.935504236895319613e-03
2.805226666531668798e+03 1.644878756119940277e+00 5.010626399470017624e-03
2.808031893198201487e+03 1.641706881730758738e+00 4.783759867008068045e-03
2.810839925091400346e+03 1.637030973193336125e+00 4.821087341921777292e-03
2.813650765016492642e+03 1.633840401187248048e+00 4.793192262973889999e-03
2.816464415781510070e+03 1.629731041140056957e+00 4.945014081709396374e-03
2.819280880197292845e+03 1.626011369580684596e+00 5.226620693502764294e-03
2.822100161077491066e+03 1.623194056618279202e+00 5.224586977304522713e-03
2.824922261238569263e+03 1.622027319555208846e+00 5.016114252231358532e-03
2.827747183499808671e+03 1.620318642824243538e+00 4.808033020109145871e-03
2.830574930683309503e+03 1.621964172787003333e+00 5.070082603557552088e-03
2.833405505613993682e+03 1.624064422578224809e+00 5.362866582850091095e-03
2.836238911119608929e+03 1.626627022364577124e+00 5.567352219061496611e-03
2.839075150030729219e+03 1.629925742265815991e+00 5.701624852909428602e-03
2.841914225180761150e+03 1.636528141272132419e+00 5.435261993031461139e-03
2.844756139405942577e+03 1.642256708672863219e+00 4.875996073801841871e-03
2.847600895545349431e+03 1.646488235575767956e+00 3.912440641825221978e-03
2.850448496440895724e+03 1.649393914445191678e+00 3.265361133201749155e-03
2.853298944937337637e+03 1.649761748188491417e+00 3.079774611150153021e-03
2.856152243882275798e+03 1.647882014914875182e+00 3.203712849085479063e-03
2.859008396126159369e+03 1.644823541229127883e+00 3.421313187079519456e-03
2.861867404522286051e+03 1.638163501803782784e+00 3.513344846630725438e-03
2.864729271926809361e+03 1.631010955148595398e+00 3.760401196260484882e-03
2.867594001198737260e+03 1.623332562010610713e+00 3.627180671063108108e-03
2.870461595199936710e+03 1.615617386974054215e+00 3.743584896917230478e-03
2.873332056795137760e+03 1.609722069088839413e+00 3.240945148842319830e-03
2.876205388851934003e+03 1.605013978099054661e+00 2.772893936996059967e-03
2.879081594240786671e+03 1.602098166904158960e+00 2.349480948775112439e-03
2.881960675835028724e+03 1.600613176988993303e+00 2.373462495565417923e-03
2.884842636510864395e+03 1.602881322073371084e+00 2.488673319547654670e-03
2.887727479147376471e+03 1.606879130049481796e+00 2.346249439925839151e-03
2.890615206626524468e+03 1.612749188786305687e+00 2.239511918210923113e-03
2.893505821833151913e+03 1.620337709237508417e+00 2.200968115490367898e-03
2.896399327654986337e+03 1.629296897398579524e+00 2.136271295822435908e-03
2.899295726982642009e+03 1.638291241835764689e+00 2.153278107301924080e-03
2.902195022709625846e+03 1.649455147199539562e+00 2.100616480054130156e-03
2.905097217732336503e+03 1.661471543183790311e+00 1.948836825629290861e-03
2.908002314950069831e+03 1.673055410473458071e+00 1.919386138757180798e-03
2.910910317265020694e+03 1.686251309549521293e+00 2.017565184110620222e-03
2.913821227582286610e+03 1.697602148309739434e+00 2.056759905970522578e-03
2.916735048809870023e+03 1.706973702280542016e+00 2.075943845069720597e-03
2.919651783858680574e+03 1.716150206633691999e+00 2.234944699900156921e-03
2.922571435642540564e+03 1.725025138599515895e+00 2.257379523274769765e-03
2.925494007078184040e+03 1.731030135685949878e+00 2.122077569982721602e-03
2.928419501085263164e+03 1.733896239452787480e+00 2.006892480848634919e-03
2.931347920586349119e+03 1.733993766049495511e+00 2.112235352506412582e-03
2.934279268506936660e+03 1.731961007945678421e+00 2.291626130973561590e-03
2.937213547775444567e+03 1.727450711119003612e+00 2.437933870290174328e-03
2.940150761323221104e+03 1.720354725466271661e+00 2.781071905695309092e-03
2.943090912084544925e+03 1.711857853184936218e+00 2.816086602069152109e-03
2.946034002996630534e+03 1.703727823056994772e+00 2.105114150591242544e-03
2.948980036999628283e+03 1.695742389230458169e+00 2.050998869870760116e-03
2.951929017036628920e+03 1.688449397899415283e+00 2.095302280694222048e-03
2.954880946053666321e+03 1.681709239416616875e+00 2.258163110727796821e-03
2.957835826999721121e+03 1.675652384510829096e+00 2.503379862435252141e-03
2.960793662826721629e+03 1.668140099318815794e+00 2.639207838124481027e-03
2.963754456489549284e+03 1.662561585596305624e+00 2.461231407513059678e-03
2.966718210946040017e+03 1.658197876281491734e+00 2.432685690633222455e-03
2.969684929156986982e+03 1.653504734718195035e+00 2.488544675418979946e-03
2.972654614086145102e+03 1.648767350779901442e+00 2.438975267440143726e-03
2.975627268700231980e+03 1.642673541016836936e+00 2.420598804139684462e-03
2.978602895968933353e+03 1.635487881528291831e+00 2.391067733709164363e-03
2.981581498864903097e+03 1.627952975142435532e+00 2.491875379844179714e-03
2.984563080363769132e+03 1.618934738670256612e+00 2.433239643314572421e-03
2.987547643444133882e+03 1.609716422703919569e+00 2.451360886799529726e-03
2.990535191087578823e+03 1.600273325554228299e+00 2.659811431696012043e-03
2.993525726278667662e+03 1.591276134893176764e+00 2.649580363401705333e-03
2.996519252004947248e+03 1.583226123244025674e+00 2.600501168057656187e-03
2.999515771256953030e+03 1.575610605097570893e+00 2.575270903935064550e-03
3.002515287028211333e+03 1.568447022819009495e+00 2.572742476367766672e-03
3.005517802315240260e+03 1.562095537998521522e+00 2.274487080982046106e-03
3.008523320117556523e+03 1.557111335793790907e+00 2.135235734389756557e-03
3.011531843437674979e+03 1.554665173309808024e+00 2.191948711603392084e-03
3.014543375281113640e+03 1.553165265389057303e+00 2.038185191299189247e-03
3.017557918656395941e+03 1.552603478553067573e+00 1.684945388525279199e-03
3.020575476575053472e+03 1.552203550188661518e+00 1.434413874902975856e-03
3.023596052051629158e+03 1.549950579236533788e+00 9.876804866631580179e-04
3.026619648103681811e+03 1.547779354709857724e+00 1.044110587628916233e-03
3.029646267751786581e+03 1.545033875672505053e+00 1.016976995322471091e-03
3.032675914019539505e+03 1.541101461893204627e+00 1.053181225388732023e-03
3.035708589933559779e+03 1.535036147806810858e+00 1.231800833858571293e-03
3.038744298523494763e+03 1.527719668018596932e+00 1.403553286913522763e-03
3.041783042822019070e+03 1.520002957497086804e+00 1.421766414174321664e-03
3.044824825864842296e+03 1.510517769173718383e+00 1.409844366907512343e-03
3.047869650690708113e+03 1.500189493116331763e+00 1.620419387899116586e-03
3.050917520341399722e+03 1.487842679493214026e+00 1.614994897309697270e-03
3.053968437861742132e+03 1.474736911415136298e+00 1.582692948469808679e-03
3.057022406299604881e+03 1.461149740842758060e+00 1.424572018207513873e-03
3.060079428705905229e+03 1.446137296023228158e+00 1.728087398504451339e-03
3.063139508134612242e+03 1.431089428561665766e+00 2.062085510770864799e-03
3.066202647642748161e+03 1.417444960725494640e+00 2.321864576455180337e-03
3.069268850290391583e+03 1.405718206361097122e+00 2.370232734353317199e-03
3.072338119140682920e+03 1.397411843183662183e+00 2.193390038627597138e-03
3.075410457259824852e+03 1.391760586673080891e+00 1.876421438901511351e-03
3.078485867717085512e+03 1.389633881120959646e+00 1.882897044459436696e-03
3.081564353584803939e+03 1.390897617926836416e+00 1.939906189872910068e-03
3.084645917938389630e+03 1.395199665734298877e+00 1.903438066139199287e-03
3.087730563856328899e+03 1.402583165943384502e+00 1.888284156566827268e-03
3.090818294420186248e+03 1.411252989778940536e+00 1.466909039181707756e-03
3.093909112714607545e+03 1.418855550288873335e+00 1.587272369471312734e-03
3.097003021827323209e+03 1.424894786484184772e+00 1.484328696761251813e-03
3.100100024849151396e+03 1.429024325767898951e+00 1.453575249425592946e-03
3.103200124874001631e+03 1.430911029570783199e+00 1.493356074963140450e-03
3.106303324998876633e+03 1.431345042645346455e+00 1.885376637500679005e-03
3.109409628323876859e+03 1.430195204661906638e+00 2.036444854018028706e-03
3.112519037952201415e+03 1.429113068422187327e+00 1.920132185251060761e-03
3.115631556990154877e+03 1.428202945172234006e+00 1.874474538057945526e-03
3.118747188547145925e+03 1.426872632250661521e+00 1.901643450197193063e-03
3.121865935735694165e+03 1.424795670781326296e+00 1.865583331101646836e-03
3.124987801671431043e+03 1.422695177579247128e+00 1.859765120041886573e-03
3.128112789473103476e+03 1.420642162273886733e+00 1.878361689222379088e-03
3.131240902262577492e+03 1.419260876641471825e+00 1.719774195915760480e-03
3.134372143164840963e+03 1.416697927211915786e+00 1.462717263426698304e-03
3.137506515308006783e+03 1.413155824429663365e+00 1.386430444720745817e-03
3.140644021823316052e+03 1.407557935458511933e+00 1.712454072982471818e-03
3.143784665845140353e+03 1.401303665204540083e+00 1.443706628787464483e-03
3.146928450510986750e+03 1.395089656490509311e+00 1.287092906231505733e-03
3.150075378961498700e+03 1.389588774779787261e+00 1.573664539520852048e-03
3.153225454340461056e+03 1.383946240304777753e+00 1.779015991520493858e-03
3.156378679794802792e+03 1.377273831388434733e+00 1.728372890265585582e-03
3.159535058474598372e+03 1.369799001052610876e+00 1.701140360769780010e-03
3.162694593533074112e+03 1.361247039763497257e+00 1.398097760218532278e-03
3.165857288126608182e+03 1.350638704627601161e+00 1.378306579418719967e-03
3.169023145414736064e+03 1.338662428214966837e+00 1.378839150394822006e-03
3.172192168560151458e+03 1.325329980233705296e+00 1.469392608445184781e-03
3.175364360728712654e+03 1.311559922365462150e+00 1.542117520515677619e-03
3.178539725089442527e+03 1.297326435721016358e+00 1.959446016185743822e-03
3.181718264814533086e+03 1.282868633869909791e+00 2.122967541233099047e-03
3.184899983079348658e+03 1.271079432008775489e+00 1.729107309881053886e-03
3.188084883062429071e+03 1.261849107998049835e+00 1.459879166316545469e-03
3.191272967945492383e+03 1.256784324510892725e+00 1.457072480050292280e-03
3.194464240913438971e+03 1.254840896946179951e+00 1.700611622032334805e-03
3.197658705154353811e+03 1.256034383536144272e+00 2.044581733561237104e-03
3.200856363859509202e+03 1.258108385468580837e+00 2.269321938150270068e-03
3.204057220223369768e+03 1.261302805159101315e+00 2.276773151129442459e-03
3.207261277443593826e+03 1.263925823673342608e+00 2.160892441600024104e-03
3.210468538721038840e+03 1.266581607782255814e+00 1.510774256363042875e-03
3.213679007259760965e+03 1.266524281100755323e+00 1.167269731441932922e-03
3.216892686267021418e+03 1.263454131885954235e+00 1.188032751023909402e-03
3.220109578953289656e+03 1.257491112088352292e+00 1.400475111906138419e-03
3.223329688532243836e+03 1.248704766225530616e+00 1.299480636719035779e-03
3.226553018220777176e+03 1.238507632598841335e+00 1.071719063599599602e-03
3.229779571238999324e+03 1.227133184534361598e+00 1.123094643293841418e-03
3.233009350810239084e+03 1.213736309359524812e+00 1.196561768450331645e-03
3.236242360161050783e+03 1.200562827208832006e+00 1.175444127863401822e-03
3.239478602521212906e+03 1.186690047385036806e+00 1.223688699054718311e-03
3.242718081123734919e+03 1.172834261259640076e+00 1.288732454219612775e-03
3.245960799204859995e+03 1.160182770639295313e+00 1.668140539037163460e-03
3.249206760004065927e+03 1.148941944078286870e+00 1.366552397858241622e-03
3.252455966764071036e+03 1.140393824983173987e+00 1.360796355965727001e-03
3.255708422730835991e+03 1.134062097650391010e+00 1.398569538123954799e-03
3.258964131153567905e+03 1.130401127747993284e+00 1.559439130104746125e-03
3.262223095284722604e+03 1.128312252537615468e+00 1.557791541547284874e-03
3.265485318380008266e+03 1.128242405571206142e+00 1.519298475828581270e-03
3.268750803698389518e+03 1.129644515093077173e+00 1.518211728871831376e-03
3.272019554502088795e+03 1.132938639698055638e+00 1.527134211472527293e-03
3.275291574056592253e+03 1.137649867475835297e+00 1.523264124395860234e-03
3.278566865630649772e+03 1.143628825528416160e+00 1.617913541221537108e-03
3.281845432496281319e+03 1.149252725006579157e+00 1.591856056361326413e-03
3.285127277928778767e+03 1.154958241944954667e+00 1.622634357730250556e-03
3.288412405206708627e+03 1.160919997762942524e+00 1.579029959677947809e-03
3.291700817611916591e+03 1.166671481456935666e+00 1.566121523625938579e-03
3.294992518429529355e+03 1.170715421898207431e+00 1.675543531825469555e-03
3.298287510947960072e+03 1.173410153724083083e+00 1.375160437973524255e-03
3.301585798458909267e+03 1.174110052699964379e+00 1.228991306897770459e-03
3.304887384257369376e+03 1.172237562724910198e+00 1.445997267254146195e-03
3.308192271641627485e+03 1.168051882249785622e+00 1.328728456077860314e-03
3.311500463913270323e+03 1.163597957275501971e+00 1.217994940874173948e-03
3.314811964377184722e+03 1.158352527106196739e+00 1.248844982600223015e-03
3.318126776341563072e+03 1.153167916824045625e+00 1.139377870312843072e-03
3.321444903117905596e+03 1.149589604525338871e+00 1.120261747077621554e-03
3.324766348021024896e+03 1.146832776204706805e+00 1.065747640641347182e-03
3.328091114369046863e+03 1.145756124135224763e+00 1.229069029617713615e-03
3.331419205483417045e+03 1.145578257374139985e+00 1.630596893750359743e-03
3.334750624688901553e+03 1.145323341187657995e+00 1.730064597961093308e-03
3.338085375313591612e+03 1.145814575947921021e+00 1.598650369345170621e-03
3.341423460688906289e+03 1.146823254302973494e+00 1.197416310295041589e-03
3.344764884149596128e+03 1.146960835494680975e+00 1.268650832209723299e-03
3.348109649033746791e+03 1.146760737257125573e+00 1.469682197166965196e-03
3.351457758682781787e+03 1.146124886789191333e+00 1.647392825910005227e-03
3.354809216441465651e+03 1.146849015708362840e+00 1.606375068490288691e-03
3.358164025657908041e+03 1.148740796978825918e+00 1.618185745344528350e-03
3.361522189683567376e+03 1.151129864034670769e+00 1.903713147476081497e-03
3.364883711873251741e+03 1.153778491850551369e+00 2.000120916003102559e-03
3.368248595585126168e+03 1.156640941131837463e+00 2.116176285054498230e-03
3.371616844180712633e+03 1.159443712826237816e+00 1.966655184732307021e-03
3.374988461024894150e+03 1.162122071285879077e+00 1.539053318831575153e-03
3.378363449485920228e+03 1.163421197454617584e+00 1.689495152094621245e-03
3.381741812935407324e+03 1.163920685121993426e+00 1.895891085647272503e-03
3.385123554748343849e+03 1.164184317899524590e+00 1.892543808462125157e-03
3.388508678303093347e+03 1.164439870880994210e+00 1.550420635351271647e-03
3.391897186981397681e+03 1.165044708544997754e+00 1.404764131542378522e-03
3.395289084168380214e+03 1.166824429581476030e+00 1.440338338640752150e-03
3.398684373252549449e+03 1.169140967920076823e+00 1.569676962087115371e-03
3.402083057625803121e+03 1.172145057879192764e+00 1.564616772137830247e-03
3.405485140683430018e+03 1.175586242194038844e+00 1.288297238488214083e-03
3.408890625824114522e+03 1.179224913706519384e+00 1.143557369173189972e-03
3.412299516449939802e+03 1.182590652354131855e+00 1.103076957264153939e-03
3.415711815966390986e+03 1.184826322447994684e+00 1.004371554252891192e-03
3.419127527782358356e+03 1.187123663008812002e+00 9.248577772270742160e-04
3.422546655310141887e+03 1.190052376026865311e+00 8.891783202898557439e-04
3.425969201965453522e+03 1.193782210225238005e+00 9.348394660644089886e-04
3.429395171167419903e+03 1.197252077458124786e+00 9.073601842209140901e-04
3.432824566338588284e+03 1.201356141703328495e+00 8.608312087634793211e-04
3.436257390904928343e+03 1.205437592722005347e+00 8.340190642740633650e-04
3.439693648295834464e+03 1.209287671964516253e+00 8.272577918097914242e-04
3.443133341944131189e+03 1.212669650137177868e+00 9.348575002551862178e-04
3.446576475286076402e+03 1.214935667181085810e+00 9.300934265569212956e-04
3.450023051761363604e+03 1.216262477322768598e+00 9.903694628107713189e-04
3.453473074813126004e+03 1.217361242782208919e+00 9.803826661969553685e-04
3.456926547887940615e+03 1.217293592658645895e+00 9.115565814700471317e-04
3.460383474435829612e+03 1.217248820269440923e+00 9.406453873153428199e-04
3.463843857910266706e+03 1.217276274159180494e+00 1.032010515040404728e-03
3.467307701768178049e+03 1.217901997937742786e+00 1.098357236432323698e-03
3.470775009469947236e+03 1.218120783913886784e+00 9.555386714102919723e-04
3.474245784479418489e+03 1.219395814883050821e+00 1.008110840596855790e-03
3.477720030263898934e+03 1.221977816415604323e+00 1.033902272250891057e-03
3.481197750294164052e+03 1.224913799290398897e+00 1.035164849458963983e-03
3.484678948044459503e+03 1.228687412285496716e+00 1.064560655446176486e-03
3.488163626992504760e+03 1.233074879171633942e+00 1.055463978933330856e-03
3.491651790619498570e+03 1.238176054347235100e+00 1.051352684176811532e-03
3.495143442410119405e+03 1.243348749230884120e+00 1.293532778254020922e-03
3.498638585852530468e+03 1.249332265326581926e+00 1.211263513223324482e-03
3.502137224438384237e+03 1.256295391228364977e+00 1.136084891117475262e-03
3.505639361662823831e+03 1.263797309561537796e+00 1.132875718742566533e-03
3.509145001024487556e+03 1.272379049696743758e+00 1.584027666122381868e-03
3.512654146025513455e+03 1.279936856400548217e+00 1.812220552960406650e-03
3.516166800171540217e+03 1.285710712540617084e+00 1.852903523879400726e-03
