# starting wavelength: 1305.880
# ending wavelength: 3324.950
# wav flux eflux
1.307172083921651847e+03 1.409384043211206805e+00 1.120970515148047575e-01
1.308479256005573916e+03 1.416491444724224502e+00 8.673013395931784830e-02
1.309787735261579883e+03 1.412089867671229237e+00 6.726182789459277112e-02
1.311097522996841917e+03 1.404879652365933040e+00 5.367297958830011956e-02
1.312408620519839133e+03 1.400948974305329831e+00 4.347323823681080446e-02
1.313721029140359406e+03 1.401468707965337623e+00 3.630640114025328324e-02
1.315034750169500285e+03 1.408258094736846378e+00 2.995670989673491005e-02
1.316349784919670128e+03 1.418032136656740105e+00 2.514224754774874865e-02
1.317666134704590377e+03 1.429005689932043799e+00 2.172504015753845899e-02
1.318983800839295327e+03 1.441915186455633879e+00 1.919144039104307350e-02
1.320302784640135087e+03 1.452085264612371640e+00 1.695600735457778244e-02
1.321623087424775576e+03 1.457534676090151970e+00 1.581145340137471433e-02
1.322944710512200800e+03 1.464172483364090782e+00 1.454015689729585767e-02
1.324267655222713529e+03 1.464386907235499802e+00 1.413098919934976071e-02
1.325591922877936668e+03 1.464455565174311635e+00 1.358712011263719932e-02
1.326917514800815070e+03 1.464129455886892694e+00 1.309292929044818948e-02
1.328244432315616223e+03 1.461541180177813981e+00 1.296294593779936423e-02
1.329572676747932292e+03 1.458370397814350072e+00 1.309341375744983715e-02
1.330902249424680576e+03 1.453590826158254634e+00 1.388339176371144665e-02
1.332233151674105784e+03 1.451229163444999415e+00 1.444883128393236252e-02
1.333565384825780257e+03 1.451205604747702660e+00 1.451220455450224871e-02
1.334898950210606472e+03 1.451574641004712785e+00 1.446662973906092005e-02
1.336233849160817726e+03 1.456607522849012071e+00 1.422817226810739986e-02
1.337570083009978816e+03 1.464454088575158019e+00 1.396598174853413109e-02
1.338907653092989221e+03 1.476186137585147495e+00 1.348213461524804847e-02
1.340246560746082650e+03 1.490130500872721697e+00 1.298384657424346902e-02
1.341586807306829314e+03 1.508650707089025156e+00 1.376136511214635059e-02
1.342928394114136609e+03 1.522779242196945049e+00 1.374282288645429714e-02
1.344271322508251160e+03 1.546718586493031733e+00 1.439641585901402579e-02
1.345615593830759735e+03 1.573644830511876869e+00 1.368066465918787999e-02
1.346961209424591061e+03 1.607101203805189948e+00 1.080401683558787108e-02
1.348308170634016051e+03 1.636520256446761135e+00 9.874310430148386386e-03
1.349656478804650533e+03 1.667031984610033879e+00 9.361512735614073780e-03
1.351006135283455706e+03 1.697841508222486695e+00 8.511425874856990217e-03
1.352357141418739502e+03 1.725018391481744295e+00 8.504923900550208360e-03
1.353709498560158636e+03 1.743601023214890189e+00 8.435092692711919013e-03
1.355063208058719283e+03 1.756775644741023878e+00 8.626311693314823309e-03
1.356418271266778447e+03 1.764888531822657702e+00 9.394250143623770685e-03
1.357774689538045777e+03 1.767813493754910592e+00 1.003042886117937182e-02
1.359132464227584251e+03 1.767923349128683652e+00 1.025039215026958897e-02
1.360491596691812219e+03 1.764902186023677988e+00 1.016516411578828431e-02
1.361852088288504547e+03 1.759525986521359275e+00 9.956152077305147757e-03
1.363213940376793516e+03 1.751941831203563504e+00 9.706011696087665439e-03
1.364577154317170653e+03 1.737047146293140276e+00 9.285019914064112853e-03
1.365941731471488310e+03 1.726947929849670160e+00 9.675393223060060888e-03
1.367307673202960132e+03 1.711367091993080347e+00 9.988283493835979632e-03
1.368674980876163545e+03 1.690188536659447571e+00 1.034034762610460192e-02
1.370043655857040221e+03 1.667064849838543639e+00 1.079517777633387521e-02
1.371413699512897665e+03 1.641227869563469666e+00 1.013314280238671559e-02
1.372785113212411034e+03 1.611393028823446594e+00 9.357627818594713154e-03
1.374157898325624046e+03 1.574214934988160230e+00 9.706887395912701041e-03
1.375532056223950121e+03 1.533672802619359343e+00 1.035954563369055267e-02
1.376907588280174423e+03 1.488442068110530814e+00 1.178241308169780330e-02
1.378284495868454997e+03 1.442918607480736748e+00 1.295044903530661803e-02
1.379662780364323908e+03 1.397107054131537796e+00 1.389790171228044886e-02
1.381042443144688832e+03 1.353098043562187547e+00 1.345111395788176761e-02
1.382423485587833966e+03 1.312814676708152550e+00 1.311174374137440840e-02
1.383805909073422299e+03 1.277974817288235698e+00 1.231878222366697591e-02
1.385189714982496071e+03 1.249137985941964235e+00 1.256148800171611075e-02
1.386574904697479042e+03 1.225864513104778730e+00 1.241260700969348645e-02
1.387961479602176951e+03 1.210070967713542389e+00 1.290005317640888563e-02
1.389349441081779560e+03 1.195377224761581925e+00 1.290759309495643006e-02
1.390738790522861791e+03 1.187015451238324193e+00 1.468199964623344289e-02
1.392129529313385092e+03 1.184912760897219863e+00 1.542913643255753274e-02
1.393521658842699026e+03 1.189464973039703999e+00 1.465306963579948545e-02
1.394915180501542181e+03 1.195186608591018107e+00 1.278127844275002596e-02
1.396310095682044221e+03 1.205049879336357987e+00 8.853269663425776537e-03
1.397706405777726786e+03 1.210222375714345988e+00 7.248205504678206096e-03
1.399104112183504867e+03 1.209904842580682427e+00 7.988984871592857973e-03
1.400503216295688844e+03 1.205274287193381255e+00 1.042698428714530084e-02
1.401903719511984946e+03 1.199481562203849938e+00 1.204086170205328002e-02
1.403305623231497520e+03 1.195384752556593932e+00 1.188751636413558008e-02
1.404708928854729493e+03 1.192058587013490989e+00 1.132108979146168731e-02
1.406113637783584636e+03 1.187152771734218293e+00 1.017501324533847187e-02
1.407519751421368710e+03 1.185678632742366734e+00 9.467203891124839274e-03
1.408927271172790597e+03 1.184246009263954624e+00 8.404382953701149475e-03
1.410336198443963667e+03 1.183836586174928929e+00 7.843232137686227332e-03
1.411746534642408278e+03 1.191271421308199185e+00 8.505012503580249711e-03
1.413158281177051094e+03 1.200812325506016354e+00 8.670274863329009360e-03
1.414571439458228497e+03 1.214349918877437595e+00 8.807181133221464106e-03
1.415986010897687265e+03 1.226793551355944700e+00 8.677790957249104098e-03
1.417401996908585488e+03 1.238872345057157265e+00 7.447963146533325557e-03
1.418819398905494381e+03 1.247703354379421148e+00 6.790939070414835597e-03
1.420238218304400334e+03 1.252526527397797462e+00 6.228486943000325488e-03
1.421658456522705364e+03 1.252184210712258050e+00 6.803152760050361868e-03
1.423080114979228483e+03 1.248806995006874754e+00 7.562024874301115536e-03
1.424503195094208195e+03 1.242332039935005294e+00 7.520523679995375424e-03
1.425927698289302953e+03 1.234917472106092262e+00 7.579145389809759797e-03
1.427353625987592523e+03 1.223443782820854642e+00 6.948486201068186652e-03
1.428780979613580712e+03 1.212206563609124599e+00 6.673299720312382381e-03
1.430209760593194687e+03 1.197878250941406542e+00 6.384260094767883753e-03
1.431639970353788385e+03 1.184319854888343126e+00 5.913340503040252251e-03
1.433071610324142739e+03 1.172514197850984985e+00 5.890368807864731701e-03
1.434504681934467271e+03 1.163502222017125609e+00 6.058062329437488916e-03
1.435939186616402139e+03 1.156054604408766062e+00 5.108671554050560164e-03
1.437375125803019046e+03 1.148348516890764781e+00 5.043580203533501449e-03
1.438812500928822601e+03 1.140715500703980423e+00 4.791735218545483017e-03
1.440251313429751917e+03 1.135163934277094722e+00 5.118937487115487323e-03
1.441691564743182198e+03 1.129354600775215989e+00 5.108361556962059437e-03
1.443133256307925876e+03 1.125404533466167090e+00 4.794204297324021133e-03
1.444576389564234205e+03 1.122650445302076916e+00 4.739676414955365166e-03
1.446020965953798850e+03 1.121492685238423714e+00 4.895538418767647788e-03
1.447466986919753253e+03 1.118962356614745968e+00 4.742438953405884484e-03
1.448914453906673316e+03 1.117293176076346928e+00 4.675802974391496912e-03
1.450363368360580580e+03 1.116131691409751880e+00 4.521427574184648350e-03
1.451813731728941548e+03 1.120118819925755682e+00 4.461130949605703749e-03
1.453265545460671092e+03 1.127462246095896514e+00 4.908802587650583880e-03
1.454718811006132228e+03 1.135245775598907825e+00 4.855658540736733711e-03
1.456173529817138842e+03 1.143126406165735798e+00 4.662941049118574967e-03
1.457629703346956376e+03 1.150735920121561007e+00 4.649404157794664698e-03
1.459087333050303869e+03 1.156183174011133019e+00 4.626503726197724910e-03
1.460546420383354643e+03 1.164642979064896666e+00 4.862999299050526324e-03
1.462006966803738578e+03 1.173784032993274495e+00 4.942607190211991026e-03
1.463468973770542789e+03 1.182551904037057566e+00 4.897479352453683148e-03
1.464932442744313676e+03 1.189316704173231543e+00 4.523113671300365603e-03
1.466397375187058515e+03 1.193829849843963453e+00 4.722009072583249409e-03
1.467863772562246140e+03 1.196984232114838287e+00 4.658005026260177844e-03
1.469331636334808763e+03 1.197706648209855951e+00 4.671031928855060543e-03
1.470800967971144019e+03 1.194713704090391682e+00 4.463650443770100090e-03
1.472271768939115645e+03 1.191426803775581744e+00 4.191606867287817582e-03
1.473744040708055309e+03 1.188626289682064963e+00 4.902682074782851139e-03
1.475217784748763961e+03 1.188190477603168649e+00 5.466487019083189798e-03
1.476693002533513209e+03 1.188481009013556688e+00 5.109856610690864491e-03
1.478169695536047129e+03 1.193566565214754460e+00 4.647633220843647162e-03
1.479647865231583637e+03 1.203511018083585071e+00 4.882936803411312351e-03
1.481127513096815846e+03 1.217997733887664191e+00 6.376253920839385775e-03
1.482608640609912982e+03 1.232456072652277745e+00 6.960677853182581191e-03
1.484091249250523560e+03 1.248480502882809207e+00 7.429773604698313751e-03
1.485575340499774484e+03 1.264291884732053228e+00 6.985265144456453794e-03
1.487060915840274674e+03 1.281409929898465805e+00 5.567048159560520834e-03
1.488547976756115531e+03 1.294246730220572905e+00 5.780973962524626857e-03
1.490036524732872067e+03 1.305220033435184668e+00 6.651087325501079187e-03
1.491526561257605408e+03 1.311848785177333943e+00 6.383494538476780500e-03
1.493018087818863478e+03 1.320614554607593805e+00 6.399762841841507774e-03
1.494511105906682815e+03 1.329252456866836241e+00 5.727014783975375826e-03
1.496005617012590164e+03 1.340058363991053714e+00 5.347152146233111539e-03
1.497501622629603162e+03 1.352376064511519482e+00 5.350200143946644803e-03
1.498999124252233287e+03 1.368350192878989402e+00 6.011977683339138692e-03
1.500498123376486092e+03 1.384838594504458564e+00 5.754725885843591654e-03
1.501998621499863020e+03 1.401473186030240958e+00 5.045930783517891746e-03
1.503500620121363454e+03 1.418940927484220405e+00 3.834261377231777766e-03
1.505004120741485167e+03 1.433774348376186447e+00 3.871218718719083868e-03
1.506509124862227281e+03 1.447238513370558310e+00 4.107528373563891673e-03
1.508015633987089814e+03 1.455901130931624765e+00 4.570296621656232301e-03
1.509523649621077539e+03 1.464715887296828445e+00 4.085383711370450983e-03
1.511033173270699081e+03 1.474726911990327460e+00 3.183025403713283640e-03
1.512544206443970324e+03 1.487624206717300890e+00 4.208727935375572785e-03
1.514056750650414870e+03 1.497525362616934030e+00 4.283065939694827122e-03
1.515570807401065622e+03 1.508794575899804702e+00 4.262289858948926577e-03
1.517086378208467295e+03 1.516054001732362710e+00 3.949841718325484974e-03
1.518603464586676182e+03 1.516788431660425207e+00 3.763054803107066144e-03
1.520122068051263341e+03 1.512845486368027625e+00 3.433296979666751545e-03
1.521642190119315046e+03 1.502889324672897153e+00 3.818843720205980074e-03
1.523163832309435065e+03 1.488126506439237051e+00 3.997019456854091109e-03
1.524686996141744885e+03 1.468316782407684595e+00 4.475232684535967835e-03
1.526211683137887121e+03 1.448082151875497159e+00 3.975199622783331423e-03
1.527737894821025520e+03 1.427377712908226348e+00 3.559190721176350679e-03
1.529265632715847005e+03 1.408523889873209090e+00 3.823675478465673235e-03
1.530794898348563493e+03 1.389181086296661372e+00 4.016770291796756265e-03
1.532325693246912579e+03 1.370016002264300869e+00 4.010653018616705708e-03
1.533858018940159809e+03 1.352560139765436764e+00 3.701919390089501629e-03
1.535391876959100500e+03 1.336719504151712368e+00 3.177137139681585325e-03
1.536927268836060193e+03 1.319200799340102481e+00 3.137350789548858706e-03
1.538464196104896700e+03 1.302224184854380296e+00 3.297413571097364184e-03
1.540002660301002152e+03 1.285000660345450685e+00 3.210368737581507925e-03
1.541542662961303677e+03 1.267509098687653379e+00 3.191778241055865956e-03
1.543084205624265451e+03 1.247431589354509818e+00 2.760510441283945023e-03
1.544627289829890287e+03 1.229843790394177905e+00 2.920968699831420160e-03
1.546171917119720774e+03 1.214101546523106645e+00 2.934190712246304185e-03
1.547718089036840865e+03 1.198867592972121532e+00 2.953563626344346809e-03
1.549265807125878155e+03 1.185049007586240988e+00 3.512967972913849830e-03
1.550815072933004558e+03 1.170500287026754460e+00 3.500911033077212190e-03
1.552365888005938132e+03 1.155046511909944895e+00 3.343307125755602769e-03
1.553918253893944666e+03 1.136771930727888735e+00 3.449014374337204709e-03
1.555472172147839046e+03 1.120595846485631153e+00 3.452389656506698982e-03
1.557027644319987530e+03 1.103669186430088267e+00 3.772909380768137144e-03
1.558584671964307972e+03 1.090799318887672564e+00 3.732931377851069973e-03
1.560143256636272781e+03 1.079415737085494209e+00 4.292950349107316210e-03
1.561703399892909601e+03 1.065352666058576370e+00 4.313718902560133642e-03
1.563265103292802905e+03 1.051536056114099615e+00 4.332412893809381438e-03
1.564828368396096266e+03 1.040447694384438071e+00 4.623327290407253792e-03
1.566393196764492814e+03 1.033345939199408869e+00 5.312427760750066015e-03
1.567959589961257961e+03 1.032716884954534953e+00 5.315987697545688194e-03
1.569527549551219636e+03 1.037352386048346453e+00 6.001564156615765526e-03
1.571097077100771457e+03 1.045587472222490044e+00 7.400474154610816972e-03
1.572668174177872743e+03 1.051980526604912702e+00 8.113664801852601277e-03
1.574240842352051004e+03 1.054437388836022782e+00 8.041709669116844580e-03
1.575815083194403769e+03 1.056266297790547926e+00 7.873095850292890011e-03
1.577390898277598581e+03 1.053617905196242432e+00 7.719484112548937599e-03
1.578968289175876635e+03 1.047874282244664057e+00 8.353706599726786267e-03
1.580547257465053008e+03 1.039425926136605449e+00 9.153833754193416161e-03
1.582127804722518704e+03 1.029793478539964058e+00 9.158341170413617643e-03
1.583709932527241790e+03 1.018421695147742057e+00 8.392889017780616120e-03
1.585293642459769444e+03 1.007562864460258778e+00 7.531876569835432161e-03
1.586878936102229773e+03 9.981460402464646942e-01 7.072485454026168107e-03
1.588465815038332494e+03 9.931009660861886967e-01 7.730708376459695212e-03
1.590054280853371438e+03 9.910294294909093304e-01 6.676756851037082656e-03
1.591644335134225230e+03 9.864539422953345627e-01 5.668817141880391590e-03
1.593235979469360018e+03 9.798670755192340209e-01 4.927091697094719384e-03
1.594829215448829927e+03 9.693455463969326003e-01 5.425167191259946953e-03
1.596424044664279336e+03 9.552672758555034171e-01 4.809847357195272399e-03
1.598020468708944009e+03 9.389093715952552266e-01 4.279652350976912573e-03
1.599618489177653601e+03 9.217223712350499643e-01 4.321440529375737000e-03
1.601218107666831656e+03 9.033816361023433439e-01 4.305030290191939543e-03
1.602819325774499021e+03 8.836676675600034780e-01 4.323901121753684178e-03
1.604422145100274065e+03 8.629551823739521899e-01 4.332585404039389528e-03
1.606026567245374963e+03 8.461857151507027330e-01 3.749627172738267435e-03
1.607632593812620826e+03 8.281965202770918966e-01 3.842275506128537115e-03
1.609240226406433976e+03 8.101269899195031599e-01 3.609103943445947458e-03
1.610849466632841086e+03 7.939902111329301126e-01 3.486605814336183815e-03
1.612460316099474312e+03 7.795342563019272975e-01 3.860244675932278553e-03
1.614072776415574253e+03 7.689825038312811945e-01 3.497243188247830658e-03
1.615686849191990405e+03 7.628117544297915442e-01 3.183568643103232895e-03
1.617302536041182975e+03 7.642724904322392154e-01 3.972978900233843473e-03
1.618919838577224709e+03 7.680282876058777131e-01 3.798758081552316718e-03
1.620538758415802477e+03 7.758518533347478208e-01 4.149319419877569616e-03
1.622159297174218864e+03 7.821800949256818569e-01 3.903020327496848317e-03
1.623781456471393540e+03 7.868511973603454779e-01 5.221131472584080759e-03
1.625405237927865528e+03 7.942713521411508548e-01 5.657935885154525418e-03
1.627030643165793890e+03 8.073182813559015569e-01 5.959358865162852487e-03
1.628657673808960226e+03 8.249124823138274110e-01 5.877483318512843023e-03
1.630286331482769810e+03 8.476930903625148339e-01 6.205549664620657428e-03
1.631916617814252959e+03 8.724241087727588884e-01 6.619062980700662381e-03
1.633548534432067754e+03 8.993549452544713496e-01 7.787166043601489486e-03
1.635182082966500502e+03 9.249193277470816321e-01 7.883558894760273397e-03
1.636817265049467551e+03 9.488628403268474232e-01 7.713825987586037797e-03
1.638454082314517564e+03 9.719854154706474292e-01 7.786605919109530934e-03
1.640092536396832429e+03 9.947743804460297268e-01 7.918895544927402261e-03
1.641732628933229989e+03 1.016172797583452692e+00 7.908626532478601340e-03
1.643374361562163585e+03 1.032053652335950256e+00 7.494188670383638944e-03
1.645017735923726377e+03 1.046422980871988262e+00 7.259031936403703700e-03
1.646662753659650662e+03 1.057548669706014577e+00 7.307983412169953216e-03
1.648309416413310828e+03 1.066461249918056797e+00 7.401743901710514106e-03
1.649957725829724723e+03 1.072083516755101273e+00 7.359713227768973319e-03
1.651607683555555013e+03 1.078413882096874055e+00 5.801355250079259611e-03
1.653259291239111008e+03 1.078423924503222775e+00 5.837014859286206170e-03
1.654912550530350700e+03 1.073671670668391753e+00 5.900627851556718671e-03
1.656567463080881680e+03 1.064492292967720966e+00 5.937009869773889233e-03
1.658224030543962954e+03 1.050768535441022555e+00 5.239476691689891850e-03
1.659882254574507670e+03 1.035662533490424364e+00 4.968983367151145157e-03
1.661542136829082665e+03 1.019548242964500195e+00 5.277469180573529997e-03
1.663203678965912331e+03 1.001290921373270582e+00 5.236913399469726553e-03
1.664866882644878615e+03 9.837535022990594458e-01 4.473084362509432629e-03
1.666531749527524198e+03 9.646366779181894113e-01 4.590671613652611525e-03
1.668198281277052274e+03 9.436863620326139124e-01 4.538003257962972686e-03
1.669866479558329729e+03 9.225575894379326458e-01 4.442401562194571614e-03
1.671536346037888734e+03 9.009333136731157987e-01 4.178124536447114235e-03
1.673207882383927199e+03 8.804607810801313716e-01 4.385225397671355455e-03
1.674881090266311730e+03 8.592187291220841905e-01 4.576800483443803011e-03
1.676555971356578539e+03 8.392704823791410362e-01 4.394786853912296259e-03
1.678232527327935713e+03 8.205182054151157756e-01 3.825903106461835297e-03
1.679910759855264132e+03 7.996896445517198693e-01 4.009347902582252772e-03
1.681590670615119961e+03 7.798048641345178833e-01 4.096809671558170052e-03
1.683272261285735567e+03 7.599396764049093367e-01 4.657437600121362709e-03
1.684955533547022014e+03 7.411304891266466965e-01 4.191072821577115047e-03
1.686640489080569523e+03 7.250076946869709049e-01 4.088982137991545827e-03
1.688327129569650651e+03 7.121444686334746921e-01 3.059375736232205871e-03
1.690015456699220749e+03 7.041785890958471850e-01 2.883764359505790187e-03
1.691705472155920688e+03 7.037836141053670502e-01 3.689582661015624026e-03
1.693397177628077088e+03 7.048648262026506739e-01 3.106445507068182361e-03
1.695090574805705728e+03 7.068875687865505686e-01 2.598309632755852524e-03
1.696785665380512000e+03 7.084045781652417162e-01 2.487022255406746724e-03
1.698482451045892958e+03 7.094781008263153499e-01 2.528189991896389373e-03
1.700180933496939588e+03 7.093565846677494235e-01 3.925952087208479935e-03
1.701881114430437037e+03 7.095694715065880009e-01 4.375561846687076387e-03
