# starting wavelength: 1759.000
# ending wavelength: 4285.940
# wav flux eflux
1.760710091085171143e+03 3.595445953546725915e-01 2.382560980603016382e-02
1.762470801176256828e+03 3.747054825691040758e-01 1.826619393562434537e-02
1.764233271977433787e+03 3.857767414356068625e-01 1.397471706940101380e-02
1.765997505249411688e+03 3.899855554744632857e-01 1.163820524213711460e-02
1.767763502754661658e+03 3.923479006300910621e-01 9.323089331493611756e-03
1.769531266257416974e+03 3.933268298351968451e-01 7.598747500118034973e-03
1.771300797523674873e+03 3.935618956916165923e-01 6.454400528023766098e-03
1.773072098321199292e+03 3.938048889206560155e-01 5.690841321187752912e-03
1.774845170419521082e+03 3.941734986649214623e-01 4.862238232856013614e-03
1.776620015589941204e+03 3.955295419298260895e-01 4.992578705904113928e-03
1.778396635605531628e+03 3.969881126785370085e-01 4.595338628546352146e-03
1.780175032241137842e+03 3.975200121835671951e-01 4.128464344432280532e-03
1.781955207273379528e+03 3.981326068618818992e-01 3.795794040874111291e-03
1.783737162480653524e+03 3.971093851196439428e-01 3.643714912463457811e-03
1.785520899643134726e+03 3.954912009402352657e-01 3.646469407790374657e-03
1.787306420542778369e+03 3.937150125177190096e-01 3.767577419634494940e-03
1.789093726963321842e+03 3.932895142026909818e-01 3.687032517452321252e-03
1.790882820690285598e+03 3.946234365541904654e-01 3.548711001151586171e-03
1.792673703510976566e+03 3.964873314704636664e-01 3.483819673164778238e-03
1.794466377214488148e+03 3.987679725262064379e-01 3.435797510859677460e-03
1.796260843591703178e+03 4.029850757428820041e-01 3.483061829436443109e-03
1.798057104435295514e+03 4.084071399102596200e-01 3.639131696195194252e-03
1.799855161539731398e+03 4.140627102968329476e-01 3.742146779091712165e-03
1.801655016701271734e+03 4.186648231789653618e-01 3.710097915643679242e-03
1.803456671717973677e+03 4.237580776686192263e-01 3.688000391167822831e-03
1.805260128389692227e+03 4.300144363335233755e-01 3.781808881578323581e-03
1.807065388518082500e+03 4.364467052262825941e-01 3.769612639785095871e-03
1.808872453906601095e+03 4.427474334433230130e-01 3.733469568507049273e-03
1.810681326360508365e+03 4.500320691023465547e-01 3.675638803827356409e-03
1.812492007686869556e+03 4.582779892388524345e-01 3.672389870118916017e-03
1.814304499694556853e+03 4.683468077583132216e-01 3.694546299364599457e-03
1.816118804194252107e+03 4.784966614922365191e-01 3.835855890594466657e-03
1.817934922998446837e+03 4.893469747635099676e-01 3.902319894380663727e-03
1.819752857921446093e+03 5.011579439548192738e-01 3.689610118660422051e-03
1.821572610779368006e+03 5.132394392049355325e-01 3.690297440488231762e-03
1.823394183390148100e+03 5.236802466853227589e-01 3.654745124063552442e-03
1.825217577573538847e+03 5.319272444137965739e-01 3.635688669761274420e-03
1.827042795151112841e+03 5.401367761425415193e-01 3.678425165411648278e-03
1.828869837946264624e+03 5.466072332913365361e-01 3.666368026530231281e-03
1.830698707784211365e+03 5.525892706756498907e-01 3.744096384772926337e-03
1.832529406491996269e+03 5.562359588091334572e-01 3.797257758111410083e-03
1.834361935898488809e+03 5.587237620672125260e-01 3.942081101911554773e-03
1.836196297834387906e+03 5.608098407055857049e-01 4.056058929768035538e-03
1.838032494132223064e+03 5.626888428221396010e-01 4.122145456250360211e-03
1.839870526626355741e+03 5.652534052425776112e-01 4.154086272330307153e-03
1.841710397152982750e+03 5.669189528296895153e-01 4.161530043099739146e-03
1.843552107550136270e+03 5.683483804507036830e-01 4.156738861362065107e-03
1.845395659657687020e+03 5.679364422880587293e-01 3.976691202248086414e-03
1.847241055317345399e+03 5.667771014038130994e-01 3.761387833454340416e-03
1.849088296372663308e+03 5.652109298615799471e-01 3.584898170897494064e-03
1.850937384669036646e+03 5.639093647257894526e-01 3.660316886135149030e-03
1.852788322053706224e+03 5.616527084323957864e-01 3.646812765376421239e-03
1.854641110375760718e+03 5.590077055176219112e-01 3.610314528587810125e-03
1.856495751486136896e+03 5.568435630015103888e-01 3.707804103237194709e-03
1.858352247237623715e+03 5.559728775930554701e-01 3.333235555867065849e-03
1.860210599484861859e+03 5.550731449281154362e-01 2.892174619303107454e-03
1.862070810084347386e+03 5.530798226442097398e-01 2.939316641743405789e-03
1.863932880894432401e+03 5.500863799052801983e-01 3.207896748787460867e-03
1.865796813775327564e+03 5.477922451134402682e-01 3.299672345209441349e-03
1.867662610589103451e+03 5.452394007286075484e-01 3.162955071263168390e-03
1.869530273199693056e+03 5.422985061294304243e-01 2.985409510717879512e-03
1.871399803472893382e+03 5.387727772498329681e-01 2.689577847840995180e-03
1.873271203276367032e+03 5.373088048684974138e-01 2.791228536855951386e-03
1.875144474479644032e+03 5.358218392126874452e-01 2.921985915248884701e-03
1.877019618954124098e+03 5.352007602975448197e-01 3.393928172104745868e-03
1.878896638573078917e+03 5.339006073208838465e-01 3.425324020288311819e-03
1.880775535211652596e+03 5.330694125665320637e-01 3.206396492187128973e-03
1.882656310746864847e+03 5.313258592044873829e-01 3.219094293117527681e-03
1.884538967057612354e+03 5.295314025615582842e-01 3.015578843590182179e-03
1.886423506024670587e+03 5.277595343013439244e-01 2.454249441313996125e-03
1.888309929530695854e+03 5.243668821964393434e-01 2.530214462906688055e-03
1.890198239460227342e+03 5.194520025232479687e-01 2.678475665012373334e-03
1.892088437699688029e+03 5.143239539934923998e-01 2.590236763883424064e-03
1.893980526137388324e+03 5.082387077725016855e-01 2.429648287575266082e-03
1.895874506663526518e+03 5.009737731738644895e-01 2.221908863583703549e-03
1.897770381170190603e+03 4.943962741161891938e-01 2.177754657794466961e-03
1.899668151551361461e+03 4.880339580797952159e-01 2.247691412757307945e-03
1.901567819702913312e+03 4.807630093394020809e-01 2.228893143103511700e-03
1.903469387522616898e+03 4.734917731871473023e-01 2.248692213405069709e-03
1.905372856910140172e+03 4.665209136567018411e-01 2.220168556755376839e-03
1.907278229767051016e+03 4.597067269139297752e-01 2.196336193129389772e-03
1.909185507996818615e+03 4.515210397604635384e-01 2.261846710652293604e-03
1.911094693504816178e+03 4.439444655397497552e-01 2.041917232399144497e-03
1.913005788198321625e+03 4.353647549707441722e-01 1.961043034766006467e-03
1.914918793986520541e+03 4.259406212428159533e-01 2.087463129150258102e-03
1.916833712780507540e+03 4.156024058355942130e-01 2.524821287306998514e-03
1.918750546493288766e+03 4.066617149985100044e-01 2.679213431254578223e-03
1.920669297039782805e+03 3.985102671664226270e-01 2.591600873499162652e-03
1.922589966336823181e+03 3.912912457966468138e-01 2.212765278175107733e-03
1.924512556303160636e+03 3.847336418952848613e-01 1.728087592905078445e-03
1.926437068859464262e+03 3.809838058540863659e-01 1.779543256506155692e-03
1.928363505928324457e+03 3.785715620352586019e-01 1.766543988129222736e-03
1.930291869434253385e+03 3.781228957697327364e-01 1.712469234624819240e-03
1.932222161303688381e+03 3.795292471525907319e-01 1.684613711200636313e-03
1.934154383464992634e+03 3.832199354448795336e-01 1.738353331134341942e-03
1.936088537848458373e+03 3.890688285984266193e-01 1.791656129140203500e-03
1.938024626386307318e+03 3.958814192272955834e-01 1.805995801384266582e-03
1.939962651012694323e+03 4.048533787154402486e-01 1.872380723239520234e-03
1.941902613663707598e+03 4.160897273513384786e-01 1.805363749319235283e-03
1.943844516277372122e+03 4.291469801923914473e-01 2.050971947853334407e-03
1.945788360793650099e+03 4.426057072810143933e-01 2.192807083283020413e-03
1.947734149154444367e+03 4.566776137067759533e-01 2.162330512775145330e-03
1.949681883303599307e+03 4.711321948146057204e-01 2.155141960728246264e-03
1.951631565186903572e+03 4.853812535548056029e-01 2.142806764509929459e-03
1.953583196752091226e+03 4.990975480100937611e-01 2.161543927801016281e-03
1.955536779948844014e+03 5.135891177440524702e-01 2.081764524892655652e-03
1.957492316728793412e+03 5.275970918752876937e-01 2.079808936397731321e-03
1.959449809045522898e+03 5.420524802840710477e-01 2.159689421648441215e-03
1.961409258854569089e+03 5.549142092551403449e-01 2.372195223289885399e-03
1.963370668113424244e+03 5.679589833677634036e-01 2.340042896501402705e-03
1.965334038781538311e+03 5.801880406388686406e-01 1.715308298732531791e-03
1.967299372820320514e+03 5.942425115261007473e-01 1.748362238729163440e-03
1.969266672193141403e+03 6.092082681857503568e-01 1.875004288190351134e-03
1.971235938865335356e+03 6.253092760707908981e-01 2.922624221100424396e-03
1.973207174804201259e+03 6.401611591835590920e-01 2.755535959763681653e-03
1.975180381979006143e+03 6.539295424607813878e-01 2.669645777121031592e-03
1.977155562360985869e+03 6.664896496478547316e-01 3.011945977907011258e-03
1.979132717923347400e+03 6.792143711200021583e-01 3.554585700793026770e-03
1.981111850641271531e+03 6.930474197011862181e-01 3.641410917933044552e-03
1.983092962491913340e+03 7.066396860967130156e-01 3.399994048868448717e-03
1.985076055454405832e+03 7.204761922800090312e-01 3.303389973254872852e-03
1.987061131509861070e+03 7.357679563771498676e-01 3.412931473599756325e-03
1.989048192641371543e+03 7.516363537403230044e-01 3.703511563714857388e-03
1.991037240834013573e+03 7.685120138440366677e-01 3.858580203692000242e-03
1.993028278074848231e+03 7.873575721843268926e-01 4.041189523496322399e-03
1.995021306352923602e+03 8.072923445304693857e-01 4.170169668040027422e-03
1.997016327659277295e+03 8.281376425358529803e-01 4.275311969219931264e-03
1.999013343986937116e+03 8.503609620315788487e-01 4.077475781706094496e-03
2.001012357330924715e+03 8.700802990334293163e-01 4.242409879520871001e-03
2.003013369688256489e+03 8.888376180723858155e-01 4.301470782659948082e-03
2.005016383057945404e+03 9.080723735222345772e-01 4.226831533552069184e-03
2.007021399441003950e+03 9.261006607461509388e-01 4.152684273892669198e-03
2.009028420840445506e+03 9.427798738432021652e-01 4.055370714437975775e-03
2.011037449261286611e+03 9.585883770078662547e-01 4.319324161828272390e-03
2.013048486710548559e+03 9.775316828488436194e-01 2.876160419970493713e-03
2.015061535197259900e+03 9.917354831137842330e-01 2.751455199945608988e-03
2.017076596732457801e+03 1.002551180641464645e+00 2.257234733145837766e-03
2.019093673329191006e+03 1.006172668495986411e+00 2.866299599400589163e-03
2.021112767002520741e+03 1.006610731236710299e+00 2.716853301472155809e-03
2.023133879769523901e+03 1.005740041748806490e+00 3.096940920970593040e-03
2.025157013649294186e+03 1.004130111231122502e+00 3.524523831930657502e-03
2.027182170662944145e+03 1.003967180426610151e+00 3.581086809837647714e-03
2.029209352833607682e+03 1.003480078461359781e+00 3.053487856030971930e-03
2.031238562186442095e+03 1.005210842858210496e+00 2.864276406710933830e-03
2.033269800748629223e+03 1.009232719197911576e+00 3.170256499715055562e-03
2.035303070549378390e+03 1.014977192199981948e+00 3.663098439192309739e-03
2.037338373619928461e+03 1.022684201870300402e+00 3.632292958173900538e-03
2.039375711993548975e+03 1.030081308846706456e+00 2.975382161566778559e-03
2.041415087705543328e+03 1.035871311413080198e+00 3.478797535250481143e-03
2.043456502793249456e+03 1.042271507163741395e+00 3.617301829485975416e-03
2.045499959296043471e+03 1.049461105302627484e+00 3.628800502242877229e-03
2.047545459255340120e+03 1.054698508813608493e+00 3.389730002638315001e-03
2.049593004714596191e+03 1.059144508114279848e+00 3.087887711159848555e-03
2.051642597719311652e+03 1.064005003740340127e+00 3.455784263892531898e-03
2.053694240317031472e+03 1.068767916432988407e+00 3.497881735153155792e-03
2.055747934557349254e+03 1.073241274768322429e+00 3.202436614432957115e-03
2.057803682491907239e+03 1.073509813554036185e+00 3.500590443469096119e-03
2.059861486174399943e+03 1.073211478000645425e+00 4.316397467812175745e-03
2.061921347660575066e+03 1.072204701252061465e+00 4.368442024936441959e-03
2.063983269008236221e+03 1.070199632814998747e+00 4.349294399377787862e-03
2.066047252277245207e+03 1.066853566305828949e+00 4.443240726278942579e-03
2.068113299529522919e+03 1.061602012043979748e+00 4.582781984577169974e-03
2.070181412829052988e+03 1.054682000221284666e+00 4.591755859001620151e-03
2.072251594241882685e+03 1.046894236797797584e+00 4.615166243065685174e-03
2.074323845836125656e+03 1.039675368085919649e+00 4.528224453247799500e-03
2.076398169681962372e+03 1.032917193385576082e+00 4.374681575642275222e-03
2.078474567851645133e+03 1.024252420035257183e+00 4.471106592520061526e-03
2.080553042419497160e+03 1.015506442343644400e+00 4.186890475076805555e-03
2.082633595461917594e+03 1.007590433974828059e+00 4.127328908342667128e-03
2.084716229057380133e+03 9.995434963119077532e-01 4.020033769689396533e-03
2.086800945286438036e+03 9.921066866134419238e-01 3.903862337001221764e-03
2.088887746231725032e+03 9.859157062992545129e-01 3.864064659156020518e-03
2.090976633977957590e+03 9.832287939016568501e-01 3.800187683180232447e-03
2.093067610611936288e+03 9.812103453080297522e-01 3.650036712788362787e-03
2.095160678222548995e+03 9.795637684828220060e-01 3.005263316343617739e-03
2.097255838900772233e+03 9.727952572770712791e-01 3.059682048786387457e-03
2.099353094739673452e+03 9.637433915858687472e-01 2.668327653604135510e-03
2.101452447834414215e+03 9.539750853666500996e-01 2.650641841774523805e-03
2.103553900282249288e+03 9.431814783660693591e-01 2.629835685149651062e-03
2.105657454182532092e+03 9.307305477904060931e-01 2.939894160437413542e-03
2.107763111636715166e+03 9.188487044958771888e-01 2.915296183751096316e-03
2.109870874748352890e+03 9.048178852601530542e-01 3.305861302828061454e-03
2.111980745623101939e+03 8.915166739084554592e-01 3.144020900047088483e-03
2.114092726368725380e+03 8.775793507327027676e-01 2.975438887560465182e-03
2.116206819095094943e+03 8.642573138129915344e-01 3.131473192184272905e-03
2.118323025914190566e+03 8.509007528997781789e-01 3.344992579616882893e-03
2.120441348940105854e+03 8.375724955149285167e-01 3.074234076155402638e-03
2.122561790289046257e+03 8.250608835909059025e-01 2.710838569001902589e-03
2.124684352079336350e+03 8.106039729737736232e-01 2.537283956816169250e-03
2.126809036431416189e+03 7.938505889051487019e-01 2.526584399858190517e-03
2.128935845467848594e+03 7.747734229252668525e-01 2.402015964241478729e-03
2.131064781313316871e+03 7.545039616867570409e-01 2.814269388170584970e-03
2.133195846094631179e+03 7.349081230167605616e-01 2.764355572468901300e-03
2.135329041940726256e+03 7.156788370836436597e-01 2.838012072887624321e-03
2.137464370982667788e+03 6.962273872452741097e-01 2.568989410647229150e-03
2.139601835353651040e+03 6.797133737921228214e-01 2.823914383198140171e-03
2.141741437189005410e+03 6.667344205106544575e-01 2.951559001885235324e-03
2.143883178626195331e+03 6.563971238278571985e-01 3.879295058817779692e-03
2.146027061804822097e+03 6.460643284631177874e-01 4.477034388954397731e-03
2.148173088866627495e+03 6.357027110062001274e-01 4.324505863287041001e-03
2.150321261955494720e+03 6.229798743677872341e-01 4.280673003599137945e-03
2.152471583217451098e+03 6.099538596685887271e-01 4.349357650222687201e-03
2.154624054800669455e+03 5.953226763067253069e-01 5.354691031255492950e-03
2.156778678855470844e+03 5.830427036089489423e-01 5.401683702599870650e-03
2.158935457534326815e+03 5.711393791698344824e-01 5.254602730131972821e-03
2.161094392991861696e+03 5.584589480125814465e-01 4.589728463126887918e-03
2.163255487384854405e+03 5.487948246243645745e-01 4.827573858105634226e-03
2.165418742872240273e+03 5.394461180405782930e-01 4.877936107122846435e-03
2.167584161615112862e+03 5.312396747177896561e-01 4.842621019792090788e-03
2.169751745776728967e+03 5.256156444897537305e-01 4.766776575015960540e-03
2.171921497522506343e+03 5.199014662300336376e-01 4.717493378929399697e-03
2.174093419020029614e+03 5.150596248067411675e-01 3.930424125473394766e-03
2.176267512439050279e+03 5.080587878529392309e-01 3.922490842074922643e-03
2.178443779951489887e+03 4.985283480516526922e-01 4.562400347327383310e-03
2.180622223731442318e+03 4.890981084590480532e-01 3.629195021014765873e-03
2.182802845955174234e+03 4.837738213171119406e-01 3.116325184901984433e-03
2.184985648801130083e+03 4.821375896342431910e-01 3.033252687602225328e-03
2.187170634449932095e+03 4.845018558453155766e-01 3.037696002557610693e-03
2.189357805084383017e+03 4.917615188479276811e-01 2.983202634131241777e-03
2.191547162889467927e+03 5.033738043491439162e-01 2.989487704956203095e-03
2.193738710052358329e+03 5.154813611581412491e-01 2.942749564233607465e-03
2.195932448762411241e+03 5.308613017478582830e-01 3.552777936835367547e-03
2.198128381211174201e+03 5.486982572651734058e-01 3.323939501554065788e-03
2.200326509592386174e+03 5.678275655451229254e-01 3.079101985266701879e-03
2.202526836101979370e+03 5.884639050120573645e-01 2.910620314643092010e-03
2.204729362938081977e+03 6.096035993465831471e-01 3.114148554196802775e-03
2.206934092301020883e+03 6.305905187879331519e-01 3.173329829618705671e-03
2.209141026393322591e+03 6.523623624284361489e-01 2.481330610475594462e-03
2.211350167419716854e+03 6.778396943068041303e-01 2.371399777291744154e-03
2.213561517587137132e+03 7.066284417313555277e-01 2.463243516406793138e-03
2.215775079104725137e+03 7.378182675291184989e-01 2.518398648087112439e-03
2.217990854183830379e+03 7.709039585470814915e-01 2.592533954294858143e-03
2.220208845038015170e+03 8.044886022887710597e-01 2.554956537565085482e-03
2.222429053883053712e+03 8.404951179131111560e-01 2.486424152160928921e-03
2.224651482936937555e+03 8.787895364011002464e-01 2.111234458002526557e-03
2.226876134419875143e+03 9.164695721121643990e-01 2.241509744766136385e-03
2.229103010554295906e+03 9.523643136655449704e-01 2.289422565751102808e-03
2.231332113564850715e+03 9.863716548538657980e-01 2.490144181677817013e-03
2.233563445678416429e+03 1.019522878749321793e+00 2.702701741022831700e-03
2.235797009124095439e+03 1.050682632693464180e+00 2.540566608467231639e-03
2.238032806133220220e+03 1.083540836067305557e+00 2.475550357500418130e-03
2.240270838939354235e+03 1.113725988161536229e+00 2.548818891232544799e-03
2.242511109778294667e+03 1.142497750699347003e+00 3.191921537865839448e-03
2.244753620888073328e+03 1.168532609712135573e+00 3.144942296139887315e-03
2.246998374508962115e+03 1.189429694898609169e+00 3.176456264560363011e-03
2.249245372883472101e+03 1.205893932133998980e+00 3.042817061899315279e-03
2.251494618256356262e+03 1.217175183341771438e+00 3.464388210822530977e-03
2.253746112874613573e+03 1.225444297821775663e+00 3.556396271397512399e-03
2.255999858987488551e+03 1.231271588685924900e+00 3.585144044123892652e-03
2.258255858846477167e+03 1.233469082486109425e+00 3.734361789995229233e-03
2.260514114705324118e+03 1.234058604344159038e+00 3.663217887319513300e-03
2.262774628820030102e+03 1.232949256601434618e+00 3.095369031585771917e-03
2.265037403448850910e+03 1.231145845323969201e+00 2.299123455711429235e-03
2.267302440852300606e+03 1.233662389663493952e+00 3.562474695271682611e-03
2.269569743293153806e+03 1.237050622258174748e+00 3.624461874055448507e-03
2.271839313036447493e+03 1.239785559511584312e+00 2.955945295136629299e-03
2.274111152349484655e+03 1.240128756734828919e+00 2.972935298683308022e-03
2.276385263501835198e+03 1.240134185001787293e+00 2.963165062574333111e-03
2.278661648765337759e+03 1.238599985590293162e+00 2.935157106090267951e-03
2.280940310414103806e+03 1.236203901834293628e+00 3.092982289108996054e-03
2.283221250724518541e+03 1.235271227642458003e+00 3.096256926285887324e-03
2.285504471975243632e+03 1.234040614126824531e+00 3.129014884943908791e-03
2.287789976447219942e+03 1.233720591436453073e+00 3.148125448923571375e-03
2.290077766423667981e+03 1.234303811211619140e+00 3.321058332876842406e-03
2.292367844190092001e+03 1.233892394489202848e+00 3.345392234445882830e-03
