# starting wavelength: 2626.260
# ending wavelength: 5530.200
# wav flux eflux
2.628772013395359409e+03 4.612930936169602480e-01 2.802537368747486796e-02
2.631400785408755382e+03 4.825282715891338059e-01 2.105959889048563544e-02
2.634032186194165206e+03 4.991149765164206720e-01 1.579568989914404212e-02
2.636666218380360078e+03 5.142883930866548603e-01 1.260908462327914488e-02
2.639302884598741457e+03 5.268149320011338288e-01 1.182143871947928526e-02
2.641942187483341058e+03 5.332972228276802173e-01 9.537821062089116980e-03
2.644584129670825405e+03 5.360891671962915161e-01 7.710395417520872138e-03
2.647228713800496735e+03 5.368313475265994450e-01 6.397928382720627534e-03
2.649875942514298458e+03 5.362362459820951832e-01 5.334108294357858132e-03
2.652525818456813340e+03 5.364894921012545170e-01 5.537564453851040111e-03
2.655178344275271229e+03 5.376311870479338895e-01 5.814741248416548623e-03
2.657833522619547239e+03 5.369227968041929699e-01 5.255398024278781777e-03
2.660491356142167660e+03 5.363168027568055996e-01 4.899132256909682383e-03
2.663151847498310872e+03 5.337872524997365753e-01 4.567102430556898261e-03
2.665814999345810065e+03 5.317173933824272947e-01 4.284099782785421098e-03
2.668480814345156887e+03 5.293565355143033946e-01 4.060052419086809285e-03
2.671149295159502799e+03 5.250274568745448844e-01 4.355871225611936126e-03
2.673820444454663175e+03 5.215722159675292291e-01 4.637933645795125175e-03
2.676494264899118662e+03 5.201568058860774890e-01 4.764431302902973932e-03
2.679170759164018818e+03 5.210733983706352657e-01 4.806134552084725259e-03
2.681849929923183481e+03 5.221517917938583997e-01 4.883447491129826006e-03
2.684531779853107764e+03 5.256572745568579563e-01 4.839728873315459617e-03
2.687216311632961606e+03 5.319885080019078893e-01 4.748830683645940097e-03
2.689903527944595680e+03 5.412629101620995975e-01 4.939238714435268199e-03
2.692593431472540942e+03 5.519445718149278424e-01 5.139629149631932438e-03
2.695286024904014539e+03 5.653523718928782360e-01 5.677793558381705012e-03
2.697981310928919356e+03 5.793739830995346951e-01 6.228287111116698194e-03
2.700679292239849019e+03 5.939659779968246012e-01 6.663719472010298274e-03
2.703379971532089712e+03 6.080185510527139625e-01 6.765800055511386052e-03
2.706083351503622907e+03 6.227097986565851562e-01 6.623669836901666455e-03
2.708789434855127183e+03 6.356171473829781426e-01 6.669443577276545736e-03
2.711498224289983227e+03 6.486598685094803196e-01 6.368019581802197501e-03
2.714209722514274290e+03 6.610373408246746907e-01 5.995544914831739229e-03
2.716923932236789369e+03 6.715574629360258063e-01 6.221084774112912649e-03
2.719640856169027302e+03 6.822393423749719688e-01 6.512417579413362287e-03
2.722360497025197219e+03 6.925198941310363177e-01 6.636560635367438031e-03
2.725082857522223094e+03 7.028014233443791170e-01 6.727693733737490772e-03
2.727807940379746015e+03 7.117484546966830194e-01 6.846816485840197426e-03
2.730535748320126913e+03 7.186654043885079002e-01 6.713209132198635215e-03
2.733266284068447931e+03 7.270801104569061257e-01 5.724821860010520860e-03
2.735999550352517417e+03 7.365398123319190082e-01 4.999696502523995160e-03
2.738735549902870844e+03 7.458089812595483092e-01 4.444066615090210524e-03
2.741474285452774438e+03 7.571581110015010996e-01 4.106410952402302431e-03
2.744215759738227916e+03 7.708343551895554535e-01 4.128683627049664108e-03
2.746959975497967207e+03 7.862101806114869529e-01 4.196473405388242116e-03
2.749706935473466274e+03 8.053224759081047956e-01 4.729010366287172105e-03
2.752456642408940297e+03 8.250690814180697830e-01 4.920661878609935459e-03
2.755209099051350222e+03 8.450806986227209494e-01 4.033097455010910271e-03
2.757964308150402758e+03 8.632428864196539653e-01 3.228807704448458538e-03
2.760722272458554016e+03 8.794865806233289618e-01 3.095351042842911168e-03
2.763482994731013605e+03 8.952284889221198139e-01 2.884604839174161831e-03
2.766246477725745535e+03 9.083649406178636587e-01 3.008477099211127881e-03
2.769012724203471862e+03 9.203542005326822428e-01 3.089363897569271430e-03
2.771781736927676320e+03 9.292420057295341929e-01 3.377733346775332792e-03
2.774553518664604780e+03 9.378310138219917436e-01 3.321764107270508502e-03
2.777328072183270706e+03 9.426962571065402585e-01 3.138794790961809376e-03
2.780105400255454697e+03 9.483306178997777947e-01 3.481433252318079114e-03
2.782885505655710858e+03 9.545746773811256691e-01 3.415972300305652066e-03
2.785668391161367708e+03 9.603488804271093082e-01 3.423372133575914699e-03
2.788454059552529998e+03 9.669324744076157607e-01 3.297337878265430879e-03
2.791242513612083258e+03 9.749390350114630621e-01 3.531643448358964214e-03
2.794033756125696527e+03 9.816458144660870078e-01 3.569781685890594490e-03
2.796827789881823264e+03 9.868326827446535221e-01 3.658235979293514469e-03
2.799624617671705892e+03 9.931171130210133535e-01 4.096049038969980065e-03
2.802424242289378526e+03 9.999462575434141520e-01 4.557955188032866006e-03
2.805226666531668798e+03 1.007236575600851003e+00 4.572395853679639063e-03
2.808031893198201487e+03 1.010146447621861343e+00 4.663937204829282819e-03
2.810839925091400346e+03 1.009341785260732260e+00 4.610865513994811572e-03
2.813650765016492642e+03 1.004639931509750506e+00 3.296156199775416434e-03
2.816464415781510070e+03 9.930549398672779970e-01 3.991785951616321632e-03
2.819280880197292845e+03 9.769797962568377292e-01 5.014982914633777863e-03
2.822100161077491066e+03 9.584350023709410360e-01 5.168562494175460778e-03
2.824922261238569263e+03 9.377575976514839207e-01 5.401313639413637090e-03
2.827747183499808671e+03 9.192056070155025793e-01 5.590545678468380152e-03
2.830574930683309503e+03 8.973565764244930687e-01 6.076675254317274837e-03
2.833405505613993682e+03 8.775757016304734925e-01 5.507498829702456473e-03
2.836238911119608929e+03 8.580830478152369212e-01 3.956012919806975447e-03
2.839075150030729219e+03 8.470673816480536189e-01 3.592252178237136193e-03
2.841914225180761150e+03 8.427349755593429581e-01 3.407407583683160282e-03
2.844756139405942577e+03 8.455480950951060892e-01 4.036694892976998295e-03
2.847600895545349431e+03 8.549159322420050167e-01 4.052843708834024013e-03
2.850448496440895724e+03 8.685968775482733051e-01 4.124258337750632587e-03
2.853298944937337637e+03 8.871761647955993535e-01 3.971165801104439320e-03
2.856152243882275798e+03 9.100619328284189624e-01 3.475364751224735947e-03
2.859008396126159369e+03 9.356593501680943170e-01 3.269498213832643021e-03
2.861867404522286051e+03 9.645171024631516987e-01 2.949449675992345254e-03
2.864729271926809361e+03 9.938584642505389199e-01 2.808393810664099391e-03
2.867594001198737260e+03 1.021090997080934537e+00 2.806084443214681024e-03
2.870461595199936710e+03 1.047453364634316708e+00 2.904686603030048712e-03
2.873332056795137760e+03 1.073879265271022065e+00 2.905814703021058522e-03
2.876205388851934003e+03 1.100008864919445273e+00 2.879494306748537832e-03
2.879081594240786671e+03 1.125155590840644759e+00 2.810865061648164069e-03
2.881960675835028724e+03 1.148465374598834687e+00 3.030385546333216971e-03
2.884842636510864395e+03 1.167022382440478845e+00 2.962211172272982956e-03
2.887727479147376471e+03 1.184637372928701415e+00 3.098154981166167509e-03
2.890615206626524468e+03 1.199572145551627278e+00 2.820313595888333108e-03
2.893505821833151913e+03 1.209926530726403993e+00 3.373306003956961022e-03
2.896399327654986337e+03 1.218976334555593288e+00 3.404265371223456557e-03
2.899295726982642009e+03 1.225442885661345294e+00 3.306039230080346468e-03
2.902195022709625846e+03 1.228312269790271305e+00 3.171833586425265757e-03
2.905097217732336503e+03 1.229671352262862394e+00 3.125740013142854108e-03
2.908002314950069831e+03 1.228243803333806561e+00 3.223581994281723463e-03
2.910910317265020694e+03 1.225623595456325488e+00 3.228074965803560872e-03
2.913821227582286610e+03 1.220638660863818448e+00 3.239097847771904137e-03
2.916735048809870023e+03 1.212718177906057182e+00 3.407812756711945789e-03
2.919651783858680574e+03 1.203226244151653912e+00 3.393859629398902726e-03
2.922571435642540564e+03 1.193362142605308485e+00 3.110331896321281119e-03
2.925494007078184040e+03 1.181229418511101859e+00 2.749902652248283411e-03
2.928419501085263164e+03 1.164524350842928602e+00 2.998916722968391659e-03
2.931347920586349119e+03 1.145580536432196928e+00 2.903301233839386715e-03
2.934279268506936660e+03 1.125107144313789442e+00 2.784834847553881165e-03
2.937213547775444567e+03 1.103858972688962048e+00 2.780532401011925111e-03
2.940150761323221104e+03 1.081842354997389677e+00 2.891395437423205025e-03
2.943090912084544925e+03 1.059753696618053853e+00 2.457688220117828018e-03
2.946034002996630534e+03 1.036263170421041213e+00 2.293398684914574586e-03
2.948980036999628283e+03 1.009386139995327891e+00 3.150149690260395808e-03
2.951929017036628920e+03 9.837372480667034846e-01 2.930073637429225775e-03
2.954880946053666321e+03 9.615273188004693772e-01 2.912635826333452842e-03
2.957835826999721121e+03 9.418739926937395035e-01 2.867208767288735582e-03
2.960793662826721629e+03 9.221325474172951120e-01 2.916101236925437972e-03
2.963754456489549284e+03 9.043915214742224151e-01 2.910960853712104245e-03
2.966718210946040017e+03 8.898865266612501213e-01 2.808196126898867065e-03
2.969684929156986982e+03 8.791352359893559454e-01 3.148825955814995789e-03
2.972654614086145102e+03 8.695990761666645419e-01 3.344228925366728861e-03
2.975627268700231980e+03 8.604363662511461674e-01 3.347255851219189254e-03
2.978602895968933353e+03 8.520276714338733681e-01 2.971613422612499368e-03
2.981581498864903097e+03 8.420627690637608742e-01 2.419303575416313374e-03
2.984563080363769132e+03 8.283546889408862635e-01 2.935745352239032234e-03
2.987547643444133882e+03 8.146576775495859568e-01 2.987636066785877721e-03
2.990535191087578823e+03 7.995909457271231924e-01 3.133939227111476843e-03
2.993525726278667662e+03 7.861756404232480566e-01 3.112605085222448081e-03
2.996519252004947248e+03 7.744175265765942395e-01 3.006048259768354276e-03
2.999515771256953030e+03 7.650803494528931603e-01 2.921057745816161341e-03
3.002515287028211333e+03 7.579970413515617622e-01 2.940356697177990992e-03
3.005517802315240260e+03 7.527712321431965226e-01 2.193236109181429406e-03
3.008523320117556523e+03 7.533840786322949512e-01 2.647824758774608260e-03
3.011531843437674979e+03 7.579512803427203016e-01 2.385663757562397035e-03
3.014543375281113640e+03 7.649811559492277757e-01 1.740338388688630021e-03
3.017557918656395941e+03 7.721979443660118569e-01 1.826518855342991595e-03
3.020575476575053472e+03 7.804122862679666595e-01 2.217518037120479353e-03
3.023596052051629158e+03 7.924361427193119534e-01 2.261753556217902493e-03
3.026619648103681811e+03 8.053048115143552899e-01 2.245786623641968412e-03
3.029646267751786581e+03 8.197051672772668329e-01 2.501448379147102035e-03
3.032675914019539505e+03 8.349314131426895935e-01 2.931130457882532344e-03
3.035708589933559779e+03 8.504779888706522906e-01 2.819129748116072209e-03
3.038744298523494763e+03 8.640716241959848221e-01 2.998040307043189912e-03
3.041783042822019070e+03 8.769044214668877402e-01 3.193195499046597684e-03
3.044824825864842296e+03 8.911174175795794072e-01 3.292978026900443469e-03
3.047869650690708113e+03 9.038045465321378202e-01 3.971290998451975328e-03
3.050917520341399722e+03 9.191845471006603319e-01 3.967372838429523117e-03
3.053968437861742132e+03 9.370514164791520217e-01 3.881161925407396272e-03
3.057022406299604881e+03 9.560804685730389663e-01 3.945055234162656542e-03
3.060079428705905229e+03 9.752744540730944323e-01 4.284449538388077246e-03
3.063139508134612242e+03 9.949620524275303302e-01 4.894184519812587279e-03
3.066202647642748161e+03 1.014727669032153834e+00 4.771412464604884995e-03
3.069268850290391583e+03 1.031661375454818730e+00 4.093315584086263011e-03
3.072338119140682920e+03 1.043861681528395424e+00 2.865031058359750280e-03
3.075410457259824852e+03 1.048906332993555734e+00 3.957757387468448934e-03
3.078485867717085512e+03 1.048583913632546105e+00 4.941944419575467450e-03
3.081564353584803939e+03 1.047267778016164108e+00 4.826325772107981950e-03
3.084645917938389630e+03 1.042769432931161866e+00 3.814879839919349102e-03
3.087730563856328899e+03 1.038299505757194430e+00 3.358111196797068654e-03
3.090818294420186248e+03 1.035461080518909061e+00 3.577359233348145935e-03
3.093909112714607545e+03 1.032786057729641271e+00 3.574771196511417407e-03
3.097003021827323209e+03 1.030203613886505165e+00 3.612067045507580398e-03
3.100100024849151396e+03 1.031155591395079840e+00 3.397773705756016761e-03
3.103200124874001631e+03 1.033635550101793754e+00 3.158843947099448067e-03
3.106303324998876633e+03 1.035826535761360745e+00 3.087025800887278557e-03
3.109409628323876859e+03 1.040242206887726839e+00 3.321030100870477324e-03
3.112519037952201415e+03 1.044270226041328353e+00 3.323594560900651473e-03
3.115631556990154877e+03 1.048079045342517057e+00 3.244373364716851386e-03
3.118747188547145925e+03 1.052844293731647118e+00 3.224860771521436548e-03
3.121865935735694165e+03 1.058040978823942213e+00 3.218575555192734663e-03
3.124987801671431043e+03 1.065033000626269599e+00 3.341231558666396192e-03
3.128112789473103476e+03 1.072561229712725606e+00 2.998981742414990551e-03
3.131240902262577492e+03 1.077114223090130940e+00 2.697214693453776901e-03
3.134372143164840963e+03 1.077785873291377428e+00 2.938984608610379929e-03
3.137506515308006783e+03 1.077630600914904146e+00 2.719800394634591147e-03
3.140644021823316052e+03 1.078528097483217651e+00 2.755805081746117748e-03
3.143784665845140353e+03 1.079240383805631920e+00 2.719642029893169083e-03
3.146928450510986750e+03 1.080614083333439890e+00 2.665697420361754378e-03
3.150075378961498700e+03 1.085443049195236709e+00 3.134366058839795858e-03
3.153225454340461056e+03 1.088064833109414931e+00 3.122429197283970760e-03
3.156378679794802792e+03 1.090647433968908508e+00 3.085776242794599240e-03
3.159535058474598372e+03 1.094651057867171984e+00 3.090855835286171818e-03
3.162694593533074112e+03 1.098889494369124309e+00 3.268214666703739713e-03
3.165857288126608182e+03 1.106487347457263848e+00 3.300725987323834248e-03
3.169023145414736064e+03 1.114870554590842833e+00 3.190197718887730679e-03
3.172192168560151458e+03 1.122165932842207114e+00 3.157441989175660199e-03
3.175364360728712654e+03 1.130617283456949895e+00 3.325089098494366565e-03
3.178539725089442527e+03 1.137822903132199359e+00 3.553367003895907452e-03
3.181718264814533086e+03 1.142996018804605107e+00 3.916055228375506757e-03
3.184899983079348658e+03 1.147639814762181576e+00 4.548416831549473814e-03
3.188084883062429071e+03 1.147900444680114429e+00 3.830986597048975130e-03
3.191272967945492383e+03 1.140587549504192832e+00 3.301209842208463821e-03
3.194464240913438971e+03 1.126397251534543287e+00 3.704763668081150103e-03
3.197658705154353811e+03 1.106872765782686230e+00 4.530557578351787629e-03
3.200856363859509202e+03 1.083073274662925467e+00 4.853274643383734613e-03
3.204057220223369768e+03 1.056433906574083759e+00 4.470751876045038833e-03
3.207261277443593826e+03 1.030868848744582511e+00 3.421296338154689032e-03
3.210468538721038840e+03 1.008580060962048552e+00 3.368788575915126517e-03
3.213679007259760965e+03 9.876650787289990019e-01 2.856913293837770075e-03
3.216892686267021418e+03 9.727626944702759682e-01 2.741696531969293766e-03
3.220109578953289656e+03 9.633125974516049128e-01 2.896965595255875450e-03
3.223329688532243836e+03 9.582506344459335024e-01 3.005125434914629901e-03
3.226553018220777176e+03 9.592500166990042265e-01 2.357015344658884397e-03
3.229779571238999324e+03 9.613417183585158954e-01 2.209178997748154939e-03
3.233009350810239084e+03 9.647103597730475322e-01 2.119538895574930859e-03
3.236242360161050783e+03 9.697894188827248518e-01 1.959829243120685214e-03
3.239478602521212906e+03 9.746231914768324067e-01 1.911094505424377381e-03
3.242718081123734919e+03 9.797851987624788261e-01 1.927840911257636299e-03
3.245960799204859995e+03 9.861876351390591600e-01 1.827919800486669469e-03
3.249206760004065927e+03 9.910443911578087350e-01 1.630554572737478308e-03
3.252455966764071036e+03 9.932635264087662508e-01 1.715938278331628980e-03
3.255708422730835991e+03 9.936756992429325308e-01 1.968352723032393975e-03
3.258964131153567905e+03 9.930844081535536993e-01 2.091966620556671378e-03
3.262223095284722604e+03 9.921224861556275920e-01 2.394506567099382015e-03
3.265485318380008266e+03 9.920624083916896874e-01 2.223319309339987296e-03
3.268750803698389518e+03 9.943450169452905385e-01 2.306800340370401912e-03
3.272019554502088795e+03 9.962297732323728283e-01 2.359588784282920428e-03
3.275291574056592253e+03 9.981340589502663008e-01 2.520290311987164085e-03
3.278566865630649772e+03 1.000629508761583297e+00 2.515200924991735972e-03
3.281845432496281319e+03 1.002742883143010522e+00 2.497081497417928415e-03
3.285127277928778767e+03 1.005560577382332177e+00 2.433875633341772531e-03
3.288412405206708627e+03 1.008680842164824343e+00 2.231492414798604603e-03
3.291700817611916591e+03 1.010931685709432148e+00 2.418961061907157206e-03
3.294992518429529355e+03 1.012478999469962337e+00 2.495053972055764121e-03
3.298287510947960072e+03 1.014527081013237408e+00 2.260798238530497498e-03
3.301585798458909267e+03 1.016653845868894068e+00 2.263460251099401813e-03
3.304887384257369376e+03 1.018485464374123683e+00 2.354053834501418536e-03
3.308192271641627485e+03 1.021005918495909492e+00 2.519793756680394330e-03
3.311500463913270323e+03 1.022616626355401737e+00 2.251853565073714657e-03
3.314811964377184722e+03 1.022108740226727708e+00 1.862461881670547268e-03
3.318126776341563072e+03 1.019612955295554846e+00 1.546461197702737054e-03
3.321444903117905596e+03 1.014841171431801525e+00 1.478749455168982489e-03
3.324766348021024896e+03 1.006508979881927557e+00 1.662441073846796262e-03
3.328091114369046863e+03 9.968205095603904775e-01 2.148680735336430236e-03
3.331419205483417045e+03 9.880420483536010989e-01 2.058554023146010915e-03
3.334750624688901553e+03 9.804626619503922225e-01 1.747649574510180739e-03
3.338085375313591612e+03 9.750910860660579882e-01 1.886942257077146422e-03
3.341423460688906289e+03 9.703708882589897611e-01 1.834954040586710394e-03
3.344764884149596128e+03 9.675625731088096648e-01 1.799840120925562132e-03
3.348109649033746791e+03 9.679917420143365758e-01 1.650649915533741394e-03
3.351457758682781787e+03 9.704449428158804514e-01 1.744247916657671411e-03
3.354809216441465651e+03 9.736096206834321531e-01 1.731824977956950527e-03
3.358164025657908041e+03 9.782198152079364384e-01 1.814424773020878240e-03
3.361522189683567376e+03 9.842930350170612241e-01 1.856265869041005996e-03
3.364883711873251741e+03 9.902875805364255157e-01 1.803228006988028898e-03
3.368248595585126168e+03 9.948431412779702443e-01 1.905351607912601124e-03
3.371616844180712633e+03 9.999469412863533080e-01 1.897329247645134984e-03
3.374988461024894150e+03 1.004308586281752014e+00 1.940163194424589666e-03
3.378363449485920228e+03 1.008625344680965652e+00 1.928441859032134628e-03
3.381741812935407324e+03 1.012801790244571176e+00 1.920196925911305842e-03
3.385123554748343849e+03 1.017068799361800169e+00 1.827849341217283258e-03
3.388508678303093347e+03 1.019467938592949929e+00 2.009201784183697968e-03
3.391897186981397681e+03 1.021033015301382463e+00 1.869339654149070008e-03
3.395289084168380214e+03 1.025522776261748925e+00 2.798341442737782830e-03
3.398684373252549449e+03 1.029436756927742502e+00 2.916582202773560992e-03
3.402083057625803121e+03 1.032678267363031699e+00 2.670883912701699139e-03
3.405485140683430018e+03 1.034445329921283463e+00 2.713851916375033344e-03
3.408890625824114522e+03 1.035603524802290565e+00 2.801929828850528888e-03
3.412299516449939802e+03 1.037066837954188747e+00 2.798628138741412509e-03
3.415711815966390986e+03 1.038877821797577150e+00 2.920732221440087290e-03
3.419127527782358356e+03 1.038404113312770161e+00 2.877333055729131527e-03
3.422546655310141887e+03 1.038536938357279338e+00 2.940264014238897546e-03
