# starting wavelength: 3002.670
# ending wavelength: 7698.880
# wav flux eflux
3.005517802315240260e+03 7.261210000608051551e-01 3.870983849736223115e-02
3.008523320117556523e+03 7.273610177757220407e-01 2.810913226172529270e-02
3.011531843437674979e+03 7.328608851705791238e-01 2.077236396373529151e-02
3.014543375281113640e+03 7.390718157456291904e-01 1.551939516732574187e-02
3.017557918656395941e+03 7.449225014245134391e-01 1.199603508150568799e-02
3.020575476575053472e+03 7.531332570612082611e-01 9.417331518599579218e-03
3.023596052051629158e+03 7.612640006409601146e-01 7.537417795722492486e-03
3.026619648103681811e+03 7.687345810537038471e-01 6.107929936288468420e-03
3.029646267751786581e+03 7.757537064719806086e-01 5.524523801351693270e-03
3.032675914019539505e+03 7.835028288279252129e-01 4.717450425495479764e-03
3.035708589933559779e+03 7.908276643240921278e-01 4.060746860965850323e-03
3.038744298523494763e+03 7.963664176687149654e-01 3.939788605839884827e-03
3.041783042822019070e+03 8.014089854935654289e-01 3.539713524088106567e-03
3.044824825864842296e+03 8.035418314025951636e-01 3.710754929271362686e-03
3.047869650690708113e+03 8.057935820711391584e-01 3.485145208587799200e-03
3.050917520341399722e+03 8.072870866236723231e-01 3.308457402376253735e-03
3.053968437861742132e+03 8.065303842142366175e-01 3.550546692969861091e-03
3.057022406299604881e+03 8.066408842053651718e-01 3.451624597812005986e-03
3.060079428705905229e+03 8.072256843737374288e-01 3.335245155826808625e-03
3.063139508134612242e+03 8.069479811549815640e-01 3.287645145591323349e-03
3.066202647642748161e+03 8.057035443828605148e-01 3.295030648224320149e-03
3.069268850290391583e+03 8.042563734998425806e-01 3.285430213208767689e-03
3.072338119140682920e+03 8.034630869338724724e-01 3.205813024478225935e-03
3.075410457259824852e+03 8.024882691657589939e-01 3.103053742605727059e-03
3.078485867717085512e+03 8.012460344200310614e-01 2.998526923397136588e-03
3.081564353584803939e+03 8.017176119017743741e-01 3.776828367138676968e-03
3.084645917938389630e+03 8.018413285638611443e-01 4.183051425083577843e-03
3.087730563856328899e+03 7.997360632383084811e-01 4.141310128845325511e-03
3.090818294420186248e+03 7.991969177186778461e-01 4.163770010734985615e-03
3.093909112714607545e+03 7.974566247839947053e-01 3.936220386247460921e-03
3.097003021827323209e+03 7.932463614657023765e-01 3.775347786054308527e-03
3.100100024849151396e+03 7.881776714043468024e-01 3.670545654038577521e-03
3.103200124874001631e+03 7.813224187609834059e-01 3.658340280497966810e-03
3.106303324998876633e+03 7.736307851313098949e-01 3.674231321143512415e-03
3.109409628323876859e+03 7.655848950061848734e-01 3.928350996887777780e-03
3.112519037952201415e+03 7.557839504729134683e-01 4.470885979758883362e-03
3.115631556990154877e+03 7.459207194819280629e-01 4.681051543703060314e-03
3.118747188547145925e+03 7.354881625639526632e-01 4.768914704415105205e-03
3.121865935735694165e+03 7.261473188268466883e-01 4.595116353150906739e-03
3.124987801671431043e+03 7.175311291781153455e-01 4.392729272687489507e-03
3.128112789473103476e+03 7.099480582618428182e-01 4.122033316315215114e-03
3.131240902262577492e+03 7.041300277281681286e-01 3.407101791087687598e-03
3.134372143164840963e+03 7.010630402241233572e-01 2.897513385093968431e-03
3.137506515308006783e+03 7.005726964544803925e-01 2.820219534121817632e-03
3.140644021823316052e+03 7.038274929274319636e-01 2.840915562684018583e-03
3.143784665845140353e+03 7.096530293043804560e-01 2.910147798879447918e-03
3.146928450510986750e+03 7.178643475177336475e-01 2.934485223011837861e-03
3.150075378961498700e+03 7.282133035797806464e-01 2.932701906982878789e-03
3.153225454340461056e+03 7.430222173160941912e-01 2.897670694507649500e-03
3.156378679794802792e+03 7.595476430068229812e-01 2.896423345218822245e-03
3.159535058474598372e+03 7.769543090748438630e-01 2.859111623552002251e-03
3.162694593533074112e+03 7.970053987933374273e-01 2.305225051947280834e-03
3.165857288126608182e+03 8.184096952429776861e-01 1.929663806963689311e-03
3.169023145414736064e+03 8.392959979266789716e-01 1.873541734254761644e-03
3.172192168560151458e+03 8.585723732819575682e-01 1.868990722610076437e-03
3.175364360728712654e+03 8.772526420777991829e-01 1.875300003312315150e-03
3.178539725089442527e+03 8.952286860152731673e-01 1.900470249176416720e-03
3.181718264814533086e+03 9.115539581862712737e-01 1.957151815346589146e-03
3.184899983079348658e+03 9.258544391636168713e-01 2.001653961683611156e-03
3.188084883062429071e+03 9.403580154553403680e-01 1.940841850035778752e-03
3.191272967945492383e+03 9.514016167539747215e-01 1.997979676919499174e-03
3.194464240913438971e+03 9.596302663684955769e-01 1.853550328537795309e-03
3.197658705154353811e+03 9.640619628584212730e-01 1.837934950475773660e-03
3.200856363859509202e+03 9.657444604951216371e-01 1.994527147411633526e-03
3.204057220223369768e+03 9.634913396031156152e-01 2.612054058830402294e-03
3.207261277443593826e+03 9.583541989046007181e-01 3.403232859601570438e-03
3.210468538721038840e+03 9.513736094441008762e-01 3.493165263696570988e-03
3.213679007259760965e+03 9.435128260304928016e-01 3.314317182545851916e-03
3.216892686267021418e+03 9.347362498706252021e-01 3.277616385987419667e-03
3.220109578953289656e+03 9.251077898419641787e-01 3.021127550616510039e-03
3.223329688532243836e+03 9.161441401394734285e-01 2.883951462517225089e-03
3.226553018220777176e+03 9.066861045753754622e-01 2.654876649744974428e-03
3.229779571238999324e+03 8.977243514630788290e-01 2.599360480893350527e-03
3.233009350810239084e+03 8.886728033711522867e-01 2.681450808992781772e-03
3.236242360161050783e+03 8.811593892377671544e-01 2.846186253874342671e-03
3.239478602521212906e+03 8.738403883215597467e-01 2.845735134404243655e-03
3.242718081123734919e+03 8.671573419985934006e-01 2.780959906291980647e-03
3.245960799204859995e+03 8.615689126769119355e-01 2.801764147677490453e-03
3.249206760004065927e+03 8.563300849852332197e-01 2.585711178027919749e-03
3.252455966764071036e+03 8.508872676254054523e-01 2.431399342644559747e-03
3.255708422730835991e+03 8.448882021413740562e-01 2.373419360194223282e-03
3.258964131153567905e+03 8.389483966097646128e-01 2.209989882667736088e-03
3.262223095284722604e+03 8.327327114501265060e-01 2.096168262177574172e-03
3.265485318380008266e+03 8.245466826168212915e-01 2.545404492484280162e-03
3.268750803698389518e+03 8.156739954861098596e-01 2.559139230139811927e-03
3.272019554502088795e+03 8.076863746607502170e-01 2.221762726942144890e-03
3.275291574056592253e+03 8.010095860102560694e-01 1.938068507104655832e-03
3.278566865630649772e+03 7.944126954067807223e-01 1.840734516523166156e-03
3.281845432496281319e+03 7.905432530086691223e-01 2.246803378501012558e-03
3.285127277928778767e+03 7.865605791190450891e-01 2.302487260984381005e-03
3.288412405206708627e+03 7.828507733054107520e-01 2.201757767719510726e-03
3.291700817611916591e+03 7.794288494326190309e-01 2.168464798788523329e-03
3.294992518429529355e+03 7.768018689856561743e-01 2.209154150893422822e-03
3.298287510947960072e+03 7.735993550523081463e-01 2.204209583483603824e-03
3.301585798458909267e+03 7.712053014104047755e-01 2.140050086824798331e-03
3.304887384257369376e+03 7.687289562481295357e-01 2.131975907286631170e-03
3.308192271641627485e+03 7.655438305952252387e-01 2.433776403375237200e-03
3.311500463913270323e+03 7.632490062626684502e-01 2.650038865797763737e-03
3.314811964377184722e+03 7.623020097372531501e-01 2.798776638928897418e-03
3.318126776341563072e+03 7.621981078464837855e-01 2.791815272701433492e-03
3.321444903117905596e+03 7.640896675328460175e-01 2.732267960093323449e-03
3.324766348021024896e+03 7.674307994128388710e-01 2.732160111609279948e-03
3.328091114369046863e+03 7.705150304104716463e-01 2.604319181689727838e-03
3.331419205483417045e+03 7.761136380832620585e-01 3.050734409599013819e-03
3.334750624688901553e+03 7.831733474516864302e-01 3.568004007078426007e-03
3.338085375313591612e+03 7.904580440633198757e-01 3.628238737893391130e-03
3.341423460688906289e+03 7.994322888372517033e-01 3.041878196100041183e-03
3.344764884149596128e+03 8.064862434055946050e-01 2.534118757627347712e-03
3.348109649033746791e+03 8.121948633495637004e-01 2.578435049266720493e-03
3.351457758682781787e+03 8.160502042717671101e-01 2.793607292582878533e-03
3.354809216441465651e+03 8.203250217037192371e-01 2.701024005379535579e-03
3.358164025657908041e+03 8.249176127318473828e-01 2.746761849772335739e-03
3.361522189683567376e+03 8.289417107901319026e-01 2.746347498075383566e-03
3.364883711873251741e+03 8.317273842652225246e-01 3.044533907746132910e-03
3.368248595585126168e+03 8.341271202308647714e-01 3.058454626060573122e-03
3.371616844180712633e+03 8.378751088770952649e-01 2.707024959724837077e-03
3.374988461024894150e+03 8.443243969155556083e-01 2.644762383618252336e-03
3.378363449485920228e+03 8.531004805675161951e-01 2.697493821661730434e-03
3.381741812935407324e+03 8.651829641682644567e-01 2.699706053092946773e-03
3.385123554748343849e+03 8.797204962332124678e-01 3.107350236883989897e-03
3.388508678303093347e+03 8.967580291217198685e-01 3.166885721538037577e-03
3.391897186981397681e+03 9.182350175279259119e-01 3.171753640439645139e-03
3.395289084168380214e+03 9.429419602514997889e-01 3.783658159626944982e-03
3.398684373252549449e+03 9.696377579679807956e-01 4.801815543795151346e-03
3.402083057625803121e+03 9.968599673430880159e-01 5.372798638572588714e-03
3.405485140683430018e+03 1.023624479568297385e+00 5.462427810089385063e-03
3.408890625824114522e+03 1.048618750314333603e+00 4.794273001603300763e-03
3.412299516449939802e+03 1.069852877039833894e+00 3.869449672017699366e-03
3.415711815966390986e+03 1.086154846142061814e+00 3.681149053087753257e-03
3.419127527782358356e+03 1.097457353283234349e+00 4.167128722528223861e-03
3.422546655310141887e+03 1.105527311005300328e+00 4.358748805402969974e-03
3.425969201965453522e+03 1.106939916032947169e+00 4.343779179993879046e-03
3.429395171167419903e+03 1.106307299147237799e+00 3.571001357825821353e-03
3.432824566338588284e+03 1.104588977841396202e+00 3.423199213662305330e-03
3.436257390904928343e+03 1.101876436333401488e+00 3.326188220203237476e-03
3.439693648295834464e+03 1.098852855068568557e+00 3.021579609550830315e-03
3.443133341944131189e+03 1.098963423269333273e+00 2.951546081620293194e-03
3.446576475286076402e+03 1.102989138031986949e+00 2.936786007127596514e-03
3.450023051761363604e+03 1.109684733733729445e+00 2.829358150892454914e-03
3.453473074813126004e+03 1.119406546504059685e+00 2.687313104960958529e-03
3.456926547887940615e+03 1.128592353815234928e+00 2.750519579608866859e-03
3.460383474435829612e+03 1.138358307943649894e+00 2.896479594156461859e-03
3.463843857910266706e+03 1.149570299671920370e+00 3.348773751605792996e-03
3.467307701768178049e+03 1.160301766049014471e+00 3.392150856300959853e-03
3.470775009469947236e+03 1.168999129921703073e+00 3.213842109006660210e-03
3.474245784479418489e+03 1.176084331089161328e+00 2.926723420870649094e-03
3.477720030263898934e+03 1.180210867363272076e+00 2.965444856077589699e-03
3.481197750294164052e+03 1.181209953129115142e+00 4.189571490830570205e-03
3.484678948044459503e+03 1.180933316591157523e+00 4.599692656583404676e-03
3.488163626992504760e+03 1.180631654290813959e+00 4.079777423062535234e-03
3.491651790619498570e+03 1.180581111690571783e+00 3.106555122714967955e-03
3.495143442410119405e+03 1.182823444442607785e+00 2.770750538177867931e-03
3.498638585852530468e+03 1.188731706313219005e+00 3.499558688129012374e-03
3.502137224438384237e+03 1.195960882495112232e+00 3.681820363322490294e-03
3.505639361662823831e+03 1.201303633900344892e+00 3.556519941871999838e-03
3.509145001024487556e+03 1.204758365156509914e+00 3.419277737409489887e-03
3.512654146025513455e+03 1.207566466841220265e+00 3.419546147823381444e-03
3.516166800171540217e+03 1.209010715024227522e+00 3.937626241882700995e-03
3.519682966971712631e+03 1.209709848679259681e+00 4.065816856767047807e-03
3.523202649938685681e+03 1.210212664079907352e+00 3.932197836015341279e-03
3.526725852588625457e+03 1.210355898744290615e+00 3.266862515032260481e-03
3.530252578441215064e+03 1.211481979159276356e+00 3.606608836091747348e-03
3.533782831019657806e+03 1.213515385068529628e+00 4.417616030545922640e-03
3.537316613850678550e+03 1.214465958370397836e+00 4.202875688797072344e-03
3.540853930464530094e+03 1.213796484106174578e+00 3.375727471158398996e-03
3.544394784394995895e+03 1.210007789087518271e+00 3.611495008876540284e-03
3.547939179179392340e+03 1.203829110399414537e+00 4.016429685551875864e-03
3.551487118358572843e+03 1.197067109812180563e+00 4.014242753910316451e-03
3.555038605476932389e+03 1.189918635086617105e+00 4.078871646600777667e-03
3.558593644082410719e+03 1.179456708172990531e+00 3.672207293374150743e-03
3.562152237726494150e+03 1.169031076004385827e+00 3.396358652907919065e-03
3.565714389964221937e+03 1.160284924075900337e+00 3.370089013614219718e-03
3.569280104354187188e+03 1.153803149834629727e+00 3.330889907810212491e-03
3.572849384458542772e+03 1.147891272169289989e+00 3.187370352937258979e-03
3.576422233843002232e+03 1.141734296540531712e+00 3.931411284267706703e-03
3.579998656076846601e+03 1.138570396877686353e+00 4.027992913506082615e-03
3.583578654732924406e+03 1.137453577800991100e+00 4.006853138522514096e-03
3.587162233387658489e+03 1.137381752006407343e+00 4.074964529897647826e-03
3.590749395621047370e+03 1.137464646599942508e+00 4.078492807297531310e-03
3.594340145016669794e+03 1.139178737858060675e+00 4.572001476431612928e-03
3.597934485161687462e+03 1.141318454870710930e+00 4.453501156704313055e-03
3.601532419646850485e+03 1.142362791674130351e+00 3.640043385173387033e-03
3.605133952066498296e+03 1.141287544905112528e+00 3.276343245872967089e-03
3.608739086018566013e+03 1.137695706477739765e+00 3.380191769644187629e-03
3.612347825104585809e+03 1.131165924512040899e+00 3.282237401564938768e-03
3.615960172929691907e+03 1.123368607441350919e+00 3.033642945833433299e-03
3.619576133102622407e+03 1.116217089502153703e+00 2.864170091415290352e-03
3.623195709235726554e+03 1.110998205288621588e+00 2.921493764479210671e-03
3.626818904944963379e+03 1.106242724041948566e+00 2.362687941022998707e-03
3.630445723849909427e+03 1.104896284794341765e+00 2.074907937991440996e-03
3.634076169573760581e+03 1.108276739543794909e+00 2.213175960668848242e-03
3.637710245743335690e+03 1.115538819419509942e+00 1.906561568959146916e-03
3.641347955989080219e+03 1.124164659709122160e+00 1.783179192233404296e-03
3.644989303945070333e+03 1.132982160455136000e+00 1.626310865610254217e-03
3.648634293249016537e+03 1.144455970478214901e+00 1.924719559383333790e-03
3.652282927542266862e+03 1.156898135253916715e+00 1.719909200986547652e-03
3.655935210469810499e+03 1.167663837586132347e+00 1.615059926473546388e-03
3.659591145680281443e+03 1.177220083179583821e+00 1.723188285323033059e-03
3.663250736825963031e+03 1.187283674093610797e+00 1.530430670140921646e-03
3.666913987562790226e+03 1.195132100281273146e+00 1.507152158689570483e-03
3.670580901550354156e+03 1.200594353763069666e+00 1.375832574762172328e-03
3.674251482451905758e+03 1.204970272967871736e+00 1.492429534090546073e-03
3.677925733934358959e+03 1.207167355382141372e+00 1.551556824990866145e-03
3.681603659668294313e+03 1.208880889617639065e+00 1.538057974806905127e-03
3.685285263327964003e+03 1.209394169276407416e+00 1.764632649437224837e-03
3.688970548591293209e+03 1.210019288174289498e+00 2.086844604667478873e-03
3.692659519139885560e+03 1.211415239484758155e+00 2.205434244792451107e-03
3.696352178659026777e+03 1.214643927534556633e+00 2.006395956246428622e-03
3.700048530837686940e+03 1.218972804224047746e+00 1.914121331601978913e-03
3.703748579368525952e+03 1.226555522403500742e+00 1.880360639598743517e-03
3.707452327947895355e+03 1.237422119725319236e+00 1.844662990388857898e-03
3.711159780275844696e+03 1.251350243084053737e+00 2.252384080427324593e-03
3.714870940056121526e+03 1.267564253644679617e+00 2.597940604789208702e-03
3.718585810996179134e+03 1.285166852116399472e+00 2.170585266346093667e-03
3.722304396807176545e+03 1.303949875312595319e+00 1.779148946415164264e-03
3.726026701203984885e+03 1.321429786700425435e+00 1.711309206099396281e-03
3.729752727905190113e+03 1.337243787694901043e+00 1.696565924003734342e-03
3.733482480633096657e+03 1.352098883729971002e+00 1.606539462521184040e-03
3.737215963113731050e+03 1.364608509012083415e+00 1.587086514647773755e-03
3.740953179076846027e+03 1.375277021321662074e+00 1.569452884836608757e-03
3.744694132255923705e+03 1.384170120811215599e+00 1.624569079203438049e-03
3.748438826388181042e+03 1.390562272758151696e+00 1.569648920258397357e-03
3.752187265214570289e+03 1.396613078762495519e+00 1.557526201116166305e-03
3.755939452479786269e+03 1.400731795446583217e+00 1.459190911821348210e-03
3.759695391932267285e+03 1.404232619244951019e+00 1.405718835322956450e-03
3.763455087324201031e+03 1.407520693350399421e+00 1.460257450367102514e-03
3.767218542411526414e+03 1.410373669085431825e+00 1.203464365458943499e-03
3.770985760953939007e+03 1.410948543511072018e+00 1.430653829434016307e-03
3.774756746714894234e+03 1.412193260449557064e+00 1.339791192960989100e-03
3.778531503461610555e+03 1.413802716569444451e+00 1.355873640369131697e-03
3.782310034965073100e+03 1.415641857881074994e+00 1.298374900145701826e-03
3.786092345000039586e+03 1.417339421954631140e+00 1.371051206301951084e-03
3.789878437345040766e+03 1.418645497654572374e+00 1.182322738969543300e-03
3.793668315782387253e+03 1.422126847442695796e+00 1.363213575838118346e-03
3.797461984098170888e+03 1.425347542313349480e+00 1.368815939332096270e-03
3.801259446082270188e+03 1.428685072653214760e+00 1.398190230335511841e-03
3.805060705528353537e+03 1.432330922796851702e+00 1.469130915520917022e-03
3.808865766233883278e+03 1.435597805303116203e+00 1.392271046433454134e-03
3.812674632000118436e+03 1.438171115888016383e+00 1.281752842157012030e-03
3.816487306632119726e+03 1.438356705560295712e+00 1.435630009693265527e-03
3.820303793938753188e+03 1.437525095939500952e+00 1.460283364366270816e-03
3.824124097732693372e+03 1.435789864098206303e+00 1.471621160775311897e-03
3.827948221830427428e+03 1.432544563281202388e+00 1.398338904153223483e-03
3.831776170052258749e+03 1.428561931863486123e+00 1.396448578931908492e-03
3.835607946222312421e+03 1.424131488484328134e+00 1.385019198109707812e-03
3.839443554168536139e+03 1.418833724474033220e+00 1.412327312493025927e-03
3.843282997722705659e+03 1.412055771512551017e+00 1.289777497666716411e-03
3.847126280720429804e+03 1.405467304539920415e+00 1.167760512679449350e-03
3.850973407001151372e+03 1.397830556940616420e+00 1.173425217307103811e-03
3.854824380408153957e+03 1.389381974517734264e+00 1.268094859513457578e-03
3.858679204788563311e+03 1.380415387092255974e+00 1.234063417823260669e-03
3.862537883993353262e+03 1.371036401426473095e+00 1.291918267689667714e-03
3.866400421877347981e+03 1.361392554515870712e+00 1.311768281166493565e-03
3.870266822299226533e+03 1.350035869774433461e+00 1.321728956333906909e-03
3.874137089121526969e+03 1.337897509878726243e+00 1.377006182649477420e-03
3.878011226210649966e+03 1.324771417502837334e+00 1.320614867274538546e-03
3.881889237436861549e+03 1.310778967655030325e+00 1.215918372082117147e-03
3.885771126674299921e+03 1.296092007205480900e+00 1.000338499451783022e-03
3.889656897800975457e+03 1.279018729503637264e+00 1.611638408529210767e-03
3.893546554698777527e+03 1.262533047691770882e+00 1.828781755336321944e-03
3.897440101253477678e+03 1.246401091580256359e+00 1.862148968971360065e-03
3.901337541354732366e+03 1.231397164544171696e+00 1.585057276552548399e-03
3.905238878896088409e+03 1.218141123998048636e+00 1.302005775138681933e-03
3.909144117774985716e+03 1.207225883463745708e+00 1.806682166805854495e-03
3.913053261892762293e+03 1.198012566895256148e+00 1.999411397767051051e-03
