# starting wavelength: 3436.450
# ending wavelength: 7426.770
# wav flux eflux
3.439693648295834464e+03 1.180516163667682861e+00 3.388862099784423904e-02
3.443133341944131189e+03 1.206796472247894103e+00 2.537961220589033881e-02
3.446576475286076402e+03 1.225541752627344882e+00 1.962088260416738547e-02
3.450023051761363604e+03 1.236767642477819118e+00 1.559356542070925930e-02
3.453473074813126004e+03 1.240203456511077551e+00 1.219674888424610894e-02
3.456926547887940615e+03 1.238375806585050309e+00 1.000958965435790743e-02
3.460383474435829612e+03 1.234014609972200915e+00 8.410440764705991168e-03
3.463843857910266706e+03 1.228433889944244184e+00 7.346045184181598624e-03
3.467307701768178049e+03 1.221864224018160971e+00 6.143004792784962330e-03
3.470775009469947236e+03 1.217048262799673264e+00 6.170275687696701039e-03
3.474245784479418489e+03 1.212908002149497566e+00 5.930551029290151953e-03
3.477720030263898934e+03 1.208468600749958100e+00 5.444522459729917579e-03
3.481197750294164052e+03 1.204204948825626786e+00 5.028215947033896557e-03
3.484678948044459503e+03 1.201558518174828061e+00 4.763404900376903839e-03
3.488163626992504760e+03 1.200756324010934240e+00 4.700347917271655018e-03
3.491651790619498570e+03 1.200831854927263409e+00 4.631497402445939465e-03
3.495143442410119405e+03 1.202055336454374901e+00 4.625844087112735044e-03
3.498638585852530468e+03 1.204547696399148826e+00 4.771143831717617780e-03
3.502137224438384237e+03 1.209102338997284365e+00 5.109782257576413536e-03
3.505639361662823831e+03 1.214629197757847390e+00 4.886394261144979406e-03
3.509145001024487556e+03 1.219345204350356759e+00 4.700048996692893222e-03
3.512654146025513455e+03 1.225245423523194210e+00 4.589102554981774364e-03
3.516166800171540217e+03 1.231269794567307452e+00 4.359157225682670257e-03
3.519682966971712631e+03 1.237050719696695777e+00 3.918888947324501541e-03
3.523202649938685681e+03 1.242237593520814531e+00 3.422671283474457843e-03
3.526725852588625457e+03 1.246817634109160577e+00 3.043489487898539628e-03
3.530252578441215064e+03 1.248293874635443279e+00 3.001609255386580074e-03
3.533782831019657806e+03 1.248497191066462175e+00 2.697781669443575451e-03
3.537316613850678550e+03 1.248370291394294451e+00 2.679016183269244608e-03
3.540853930464530094e+03 1.248452271665871693e+00 2.761298112583794422e-03
3.544394784394995895e+03 1.249663497222113451e+00 2.763252359561044029e-03
3.547939179179392340e+03 1.251743518392721910e+00 2.754320290087121630e-03
3.551487118358572843e+03 1.253607142275883435e+00 2.784839395796183913e-03
3.555038605476932389e+03 1.255890804578876585e+00 2.726874642605287783e-03
3.558593644082410719e+03 1.258482638751947880e+00 2.743644466680979829e-03
3.562152237726494150e+03 1.261558189785509709e+00 2.879512606460077773e-03
3.565714389964221937e+03 1.264347481471686407e+00 3.014950739997447615e-03
3.569280104354187188e+03 1.268259540448180456e+00 2.801822579750043365e-03
3.572849384458542772e+03 1.274252625931980409e+00 2.540111051729436985e-03
3.576422233843002232e+03 1.282698087306030521e+00 3.066265059312369996e-03
3.579998656076846601e+03 1.292422982524309205e+00 3.598523710634750437e-03
3.583578654732924406e+03 1.302739338784971945e+00 3.997110390851119598e-03
3.587162233387658489e+03 1.313116383803548670e+00 3.821279761045891146e-03
3.590749395621047370e+03 1.323467392945120613e+00 3.211127072835412433e-03
3.594340145016669794e+03 1.332997401869797205e+00 2.922644398428453274e-03
3.597934485161687462e+03 1.340177027888511008e+00 3.043983489608197840e-03
3.601532419646850485e+03 1.346561699182046157e+00 3.148203950212073981e-03
3.605133952066498296e+03 1.353187334129982267e+00 3.222941683839828948e-03
3.608739086018566013e+03 1.358508497615639854e+00 3.219994955769783090e-03
3.612347825104585809e+03 1.362846111141948979e+00 3.257027310026448536e-03
3.615960172929691907e+03 1.365987518656504029e+00 3.264740486357285091e-03
3.619576133102622407e+03 1.367641382508247627e+00 3.243748591949179635e-03
3.623195709235726554e+03 1.367563274626148795e+00 3.258738151149232626e-03
3.626818904944963379e+03 1.366911192327397329e+00 3.403982484744820514e-03
3.630445723849909427e+03 1.363818846018042263e+00 3.512471681767231728e-03
3.634076169573760581e+03 1.359744978648856462e+00 3.575813535320325563e-03
3.637710245743335690e+03 1.353198966962188443e+00 3.618531364394605553e-03
3.641347955989080219e+03 1.345024017942167971e+00 3.984220984895758821e-03
3.644989303945070333e+03 1.335763359607594181e+00 4.509443754863146081e-03
3.648634293249016537e+03 1.326864866837511370e+00 4.664145776065720984e-03
3.652282927542266862e+03 1.319589201517385346e+00 4.697382430885336906e-03
3.655935210469810499e+03 1.314590597575962416e+00 4.735184478227324849e-03
3.659591145680281443e+03 1.311602159012495550e+00 4.758528797728111583e-03
3.663250736825963031e+03 1.310044999525366682e+00 4.770685822849456310e-03
3.666913987562790226e+03 1.309984712597963119e+00 4.542611500072926863e-03
3.670580901550354156e+03 1.312184919014762086e+00 4.200282218824639459e-03
3.674251482451905758e+03 1.316958026623329836e+00 3.553265286712516038e-03
3.677925733934358959e+03 1.325522387032773475e+00 3.259451409499368024e-03
3.681603659668294313e+03 1.338539371060305072e+00 3.287037614188455768e-03
3.685285263327964003e+03 1.356980135911117546e+00 3.013087393283469823e-03
3.688970548591293209e+03 1.377324123501688868e+00 2.562661518297790902e-03
3.692659519139885560e+03 1.399415926438784652e+00 2.380037756392270644e-03
3.696352178659026777e+03 1.423132597818727252e+00 2.394291067815524678e-03
3.700048530837686940e+03 1.446428473157817640e+00 2.518685225674131833e-03
3.703748579368525952e+03 1.469829611228751443e+00 2.809907854962851760e-03
3.707452327947895355e+03 1.491815836740252976e+00 2.901490340280465756e-03
3.711159780275844696e+03 1.510644037879063983e+00 2.933124592220602914e-03
3.714870940056121526e+03 1.526895683489797317e+00 3.071710222587648031e-03
3.718585810996179134e+03 1.539067533800789311e+00 3.348698448828198778e-03
3.722304396807176545e+03 1.547739820251878839e+00 3.311968206064773521e-03
3.726026701203984885e+03 1.551330463741742882e+00 2.404665604419225014e-03
3.729752727905190113e+03 1.547775320515734965e+00 1.200669360757061288e-03
3.733482480633096657e+03 1.535287299675126116e+00 8.805574344199016551e-04
3.737215963113731050e+03 1.513903535327192351e+00 1.255056170934469107e-03
3.740953179076846027e+03 1.484579379204932881e+00 1.826723503547641233e-03
3.744694132255923705e+03 1.448479388503568277e+00 2.230986183028505453e-03
3.748438826388181042e+03 1.406087461001014560e+00 2.939670980311126676e-03
3.752187265214570289e+03 1.361038018592565013e+00 2.867199460186559395e-03
3.755939452479786269e+03 1.310738728252962781e+00 3.304774218676629662e-03
3.759695391932267285e+03 1.259092585468438497e+00 3.190413985757715922e-03
3.763455087324201031e+03 1.206554849865868917e+00 2.654232181827502132e-03
3.767218542411526414e+03 1.157974896568645384e+00 2.277710266685732156e-03
3.770985760953939007e+03 1.112521948719567000e+00 1.931668041102889855e-03
3.774756746714894234e+03 1.071278714221354456e+00 1.947847056621786416e-03
3.778531503461610555e+03 1.034277189681824805e+00 1.933358168555112397e-03
3.782310034965073100e+03 1.002351936215022166e+00 1.920338153601444664e-03
3.786092345000039586e+03 9.769047697191949320e-01 1.719183534517927095e-03
3.789878437345040766e+03 9.576132771050041015e-01 1.707172041224808796e-03
3.793668315782387253e+03 9.430277292821230839e-01 1.517725552848606671e-03
3.797461984098170888e+03 9.332089434227803793e-01 1.739680751077813184e-03
3.801259446082270188e+03 9.273835683810256469e-01 2.084247368970172133e-03
3.805060705528353537e+03 9.244555263825584568e-01 2.413785147719355300e-03
3.808865766233883278e+03 9.243623411562467140e-01 2.569644560920826114e-03
3.812674632000118436e+03 9.244717971569363923e-01 2.387961903651582892e-03
3.816487306632119726e+03 9.249813512999603970e-01 2.674574612524781205e-03
3.820303793938753188e+03 9.263850472934026525e-01 3.059732788125001796e-03
3.824124097732693372e+03 9.296662574902708753e-01 3.105286415673530389e-03
3.827948221830427428e+03 9.342620569192424673e-01 3.087890763610507110e-03
3.831776170052258749e+03 9.391679652810642764e-01 3.077304412835206449e-03
3.835607946222312421e+03 9.452217193549963259e-01 3.125364564964486919e-03
3.839443554168536139e+03 9.518596212934976597e-01 3.506401005238661637e-03
3.843282997722705659e+03 9.583316494463519630e-01 3.801701223402628206e-03
3.847126280720429804e+03 9.650614334251076398e-01 3.681602345633371715e-03
3.850973407001151372e+03 9.714842179733914618e-01 3.105390889223835164e-03
3.854824380408153957e+03 9.765081304246733263e-01 2.902505356977816767e-03
3.858679204788563311e+03 9.801283894525830709e-01 3.774025754380853220e-03
3.862537883993353262e+03 9.835025657122169473e-01 4.302960989719772922e-03
3.866400421877347981e+03 9.893767874412262575e-01 3.994222546668087931e-03
3.870266822299226533e+03 9.993932815374946266e-01 3.306513417088672701e-03
3.874137089121526969e+03 1.013659051739092209e+00 2.794808170733257147e-03
3.878011226210649966e+03 1.032941864404413490e+00 2.785718450149023053e-03
3.881889237436861549e+03 1.058199641509477207e+00 2.919386257150801463e-03
3.885771126674299921e+03 1.088762633000335489e+00 2.274604827623824023e-03
3.889656897800975457e+03 1.121982550025937941e+00 2.004135235972554635e-03
3.893546554698777527e+03 1.158153184768665911e+00 2.048694458551130870e-03
3.897440101253477678e+03 1.197094552837968173e+00 2.035147976562652530e-03
3.901337541354732366e+03 1.238139514428680865e+00 2.159491537616629094e-03
3.905238878896088409e+03 1.279575393601388278e+00 2.494606891735910714e-03
3.909144117774985716e+03 1.320849235480998196e+00 2.723266370509026466e-03
3.913053261892762293e+03 1.360534281481520225e+00 2.786927060802922400e-03
3.916966315154656058e+03 1.398016408801973531e+00 2.694290848698331024e-03
3.920883281469812118e+03 1.432888162543323185e+00 2.397888076524995037e-03
3.924804164751283224e+03 1.464349251332066171e+00 2.014599182576708690e-03
3.928728968916035683e+03 1.491113291448122435e+00 2.233591399484527104e-03
3.932657697884953450e+03 1.513438554841382233e+00 2.335761845747059626e-03
3.936590355582839493e+03 1.531899232335069971e+00 1.948346788046233192e-03
3.940526945938423523e+03 1.547809058079200106e+00 1.378930462048100518e-03
3.944467472884363360e+03 1.562421425887464466e+00 1.169991716670921392e-03
3.948411940357249023e+03 1.575559087564474936e+00 1.103282714972931254e-03
3.952360352297607733e+03 1.587751627806429200e+00 1.112239477943154997e-03
3.956312712649906643e+03 1.599428149489942941e+00 8.773051174936760200e-04
3.960269025362557841e+03 1.610160839058051074e+00 6.799995977920400775e-04
3.964229294387921527e+03 1.619319810401961712e+00 8.157510036145900487e-04
3.968193523682310570e+03 1.627793513270356263e+00 6.440903588880159255e-04
3.972161717205994591e+03 1.636269731912197711e+00 4.683554711077208112e-04
3.976133878923201792e+03 1.644778247979553409e+00 5.136803509389531106e-04
3.980110012802126221e+03 1.653169551707445839e+00 6.248751931053577640e-04
3.984090122814929600e+03 1.660447521302934604e+00 6.187229870928877230e-04
3.988074212937745870e+03 1.667008620340065361e+00 6.568716185168686425e-04
3.992062287150684824e+03 1.672468786646115202e+00 7.194886921829181945e-04
3.996054349437837118e+03 1.676254628246515166e+00 5.981226207227679755e-04
4.000050403787276082e+03 1.677887955394416597e+00 6.161215401216047416e-04
4.004050454191064546e+03 1.676580615229775972e+00 7.325374893796402290e-04
4.008054504645257111e+03 1.671968295044421904e+00 7.461882119483916227e-04
4.012062559149903791e+03 1.663230374788533972e+00 7.099488308269250123e-04
4.016074621709055009e+03 1.650734517942171298e+00 7.552522750911676037e-04
4.020090696330765240e+03 1.635058003461154152e+00 7.403727188066518876e-04
4.024110787027097558e+03 1.615924740497228118e+00 7.519209455300720959e-04
4.028134897814125907e+03 1.593903744624584951e+00 7.595457457487041425e-04
4.032163032711941469e+03 1.569255108537097154e+00 8.289804877771989435e-04
4.036195195744654484e+03 1.542764150947863788e+00 8.748441869038195168e-04
4.040231390940400615e+03 1.515077063798768497e+00 8.470540974647863212e-04
4.044271622331342314e+03 1.487536452780866325e+00 7.584829400151347351e-04
4.048315893953675186e+03 1.461036837234376273e+00 7.820286695548771868e-04
4.052364209847629809e+03 1.436240597956463194e+00 9.262761157161972236e-04
4.056416574057479011e+03 1.414126796214515203e+00 9.879732763031744136e-04
4.060472990631537868e+03 1.394897307563391031e+00 7.984832462509912831e-04
4.064533463622170530e+03 1.379442173368369717e+00 7.557256937239855430e-04
4.068597997085794304e+03 1.367463645978411302e+00 8.262090570333746088e-04
4.072666595082881486e+03 1.358897221680930523e+00 1.153980529369472282e-03
4.076739261677965715e+03 1.353552511276312265e+00 1.469567702879220721e-03
4.080816000939644709e+03 1.350466736991858374e+00 1.514679584026841974e-03
4.084896816940585722e+03 1.348374961404616768e+00 1.162857444617446589e-03
4.088981713757527814e+03 1.345790524745631433e+00 9.410790631602429252e-04
4.093070695471286854e+03 1.342921611391744818e+00 9.302959103750488203e-04
4.097163766166759160e+03 1.339957867795559254e+00 9.079719364419933233e-04
4.101260929932927866e+03 1.335899794419236342e+00 1.194052683468608449e-03
4.105362190862862008e+03 1.331444031941987349e+00 1.392115155945827625e-03
4.109467553053726078e+03 1.327070161432039930e+00 1.191978240177013482e-03
4.113577020606780934e+03 1.322865239170746943e+00 9.534073972037842692e-04
4.117690597627389252e+03 1.319279245072115359e+00 6.834915028116039229e-04
4.121808288225018259e+03 1.316562470312809818e+00 7.491340255435699046e-04
4.125930096513244280e+03 1.314026855008124661e+00 7.759351047323485026e-04
4.130056026609759101e+03 1.311462714825891274e+00 8.650351811994916101e-04
4.134186082636369974e+03 1.308328346512640072e+00 8.798071986259360395e-04
4.138320268719007800e+03 1.303535167791169735e+00 7.091227194786919744e-04
4.142458588987728035e+03 1.297248085234434578e+00 9.139529711363948185e-04
4.146601047576717065e+03 1.288051464747217434e+00 1.210102588126052859e-03
4.150747648624294925e+03 1.275425615702929560e+00 1.301455517154841059e-03
4.154898396272920763e+03 1.258598731380121016e+00 1.158705365567352539e-03
4.159053294669195566e+03 1.238112562466388900e+00 1.069399800451064763e-03
4.163212347963865795e+03 1.214044251199498659e+00 1.105674343431525906e-03
4.167375560311830668e+03 1.186585285044978288e+00 1.195090280043902345e-03
4.171542935872143971e+03 1.156657616057242821e+00 1.538659858713005814e-03
4.175714478808017702e+03 1.125907579988519869e+00 1.917180795563903700e-03
4.179890193286827525e+03 1.095152550467029418e+00 1.823168757428600536e-03
4.184070083480115500e+03 1.066279539909165353e+00 1.473840830114895575e-03
4.188254153563597356e+03 1.040763721029074107e+00 1.183275737643381181e-03
4.192442407717161586e+03 1.019117924329565827e+00 1.034385556780985978e-03
4.196634850124880359e+03 1.001983133395270453e+00 1.175960404659466291e-03
4.200831484975006788e+03 9.892836859777649483e-01 1.133909770113619795e-03
4.205032316459983122e+03 9.808081933091102877e-01 1.067926653454324797e-03
4.209237348776444378e+03 9.769009400779629093e-01 9.607160760620657393e-04
4.213446586125221984e+03 9.771508574261187352e-01 9.298996247919967669e-04
4.217660032711349231e+03 9.809643461197448122e-01 1.063905091720686790e-03
4.221877692744061278e+03 9.882450017576885903e-01 1.141543186954860302e-03
4.226099570436806971e+03 9.978099062721778045e-01 1.132546668070906438e-03
4.230325670007245208e+03 1.008926090441357948e+00 1.112435755423131544e-03
4.234555995677254032e+03 1.020617565745267630e+00 1.176943396690261975e-03
4.238790551672932452e+03 1.032908106948132287e+00 1.245610005548411416e-03
4.243029342224606808e+03 1.044757620605261339e+00 1.041689741559087947e-03
4.247272371566832589e+03 1.055302032301339787e+00 8.406817086119470301e-04
4.251519643938400804e+03 1.063869108633999083e+00 1.075457254643933909e-03
4.255771163582340705e+03 1.070866255639976172e+00 1.089171042390639499e-03
4.260026934745924336e+03 1.076286518448289709e+00 9.747629987501321876e-04
4.264286961680671993e+03 1.079854890831605019e+00 8.745110581219216802e-04
4.268551248642354039e+03 1.081769955439221498e+00 8.846429890352577093e-04
4.272819799890998183e+03 1.081964606613860624e+00 8.830288187705520120e-04
4.277092619690890388e+03 1.080791235177545939e+00 8.981440155875482050e-04
4.281369712310583054e+03 1.078209070695222760e+00 9.580176097628040777e-04
4.285651082022895025e+03 1.074389749899614666e+00 9.733901378454929169e-04
4.289936733104918858e+03 1.069755431042363814e+00 9.116287321700148770e-04
4.294226669838025373e+03 1.064762681925913279e+00 8.627672419742459398e-04
4.298520896507864563e+03 1.059785806745845438e+00 8.515512843512577966e-04
4.302819417404373780e+03 1.054668762606809196e+00 8.139963655747032038e-04
4.307122236821779552e+03 1.049745334108208361e+00 8.000522194791164030e-04
4.311429359058603040e+03 1.045098252111215986e+00 8.452461742968218937e-04
4.315740788417662770e+03 1.040680855403988581e+00 8.134916565368212815e-04
4.320056529206081905e+03 1.036835566681773457e+00 6.149108775343807521e-04
4.324376585735290064e+03 1.032886323738218426e+00 4.753552092011501689e-04
4.328700962321026054e+03 1.028565174270750449e+00 4.698618836541757307e-04
4.333029663283348782e+03 1.023921180089784722e+00 4.744033477821209504e-04
4.337362692946633615e+03 1.019100064079874635e+00 5.389435509578987225e-04
4.341700055639581478e+03 1.014155315403969748e+00 5.355695082946466696e-04
4.346041755695222491e+03 1.008745786347407858e+00 4.720375173996516267e-04
4.350387797450919606e+03 1.002960893879510706e+00 6.400187378361722702e-04
4.354738185248371337e+03 9.969080956549222217e-01 8.326031161994048180e-04
4.359092923433621763e+03 9.914449478418445594e-01 7.932504338844973508e-04
4.363452016357056891e+03 9.867844509522016860e-01 7.788674374674498880e-04
4.367815468373414660e+03 9.826277711447373164e-01 7.743323559421830347e-04
4.372183283841789489e+03 9.789999406416357575e-01 7.619678044924006527e-04
4.376555467125633186e+03 9.761623798292382581e-01 7.722578459515277299e-04
4.380932022592760404e+03 9.743993046412575687e-01 7.767793135722530270e-04
4.385312954615354101e+03 9.737534455162767388e-01 7.865589037957157036e-04
4.389698267569970994e+03 9.746199060298156303e-01 7.862999437865983128e-04
4.394087965837542470e+03 9.764915747500575449e-01 8.365410621808870659e-04
4.398482053803381859e+03 9.786639318240337726e-01 8.769130897270535846e-04
4.402880535857186260e+03 9.812157987767419209e-01 9.365182594963878185e-04
4.407283416393044718e+03 9.837548470765606901e-01 1.061666687030420790e-03
4.411690699809440048e+03 9.858940026472694518e-01 1.097020111475153093e-03
4.416102390509250654e+03 9.874674947693911076e-01 9.782464744962633511e-04
4.420518492899761441e+03 9.882803943358789978e-01 9.385773283639111579e-04
4.424939011392662906e+03 9.884458906757765950e-01 1.132703991896562594e-03
4.429363950404056595e+03 9.880055861030914155e-01 1.392552638603750418e-03
4.433793314354462382e+03 9.877048159497064939e-01 1.241383314889880863e-03
4.438227107668818462e+03 9.878515945367496442e-01 8.844526437730858195e-04
4.442665334776488635e+03 9.891344456666725238e-01 9.926401169582717721e-04
4.447108000111265937e+03 9.913262597270977583e-01 1.069602872690646102e-03
4.451555108111379013e+03 9.943058762763697933e-01 1.011162342106740634e-03
4.456006663219492111e+03 9.979090231821293733e-01 1.027921091265294800e-03
4.460462669882713271e+03 1.002594170420294750e+00 1.168835150434610962e-03
4.464923132552597053e+03 1.008657302336466000e+00 1.287730350268006391e-03
4.469388055685150903e+03 1.016446142683185894e+00 1.232871589506464010e-03
4.473857443740837880e+03 1.026118297865183493e+00 1.264645247636611743e-03
4.478331301184580298e+03 1.037050280431413229e+00 1.282440058990810426e-03
