# starting wavelength: 3220.280
# ending wavelength: 5877.890
# wav flux eflux
3.223329688532243836e+03 -1.944087766840393305e-01 5.772738416440781339e-02
3.226553018220777176e+03 -2.209124718617566097e-01 4.264570726035970399e-02
3.229779571238999324e+03 -2.261455767949601403e-01 3.162403911451941441e-02
3.233009350810239084e+03 -2.161902804791362431e-01 2.504422154975889311e-02
3.236242360161050783e+03 -1.960005065624908227e-01 2.183516700397533997e-02
3.239478602521212906e+03 -1.705839347081923307e-01 2.130726152948124105e-02
3.242718081123734919e+03 -1.523739825981951790e-01 1.678035658290174745e-02
3.245960799204859995e+03 -1.325928315829270066e-01 1.381566234749643900e-02
3.249206760004065927e+03 -1.142309033173026789e-01 1.169589496914367859e-02
3.252455966764071036e+03 -9.731020140164942100e-02 9.855418510144349845e-03
3.255708422730835991e+03 -8.064219798460767197e-02 8.514078225017417470e-03
3.258964131153567905e+03 -6.406091137020399062e-02 7.591991291930684678e-03
3.262223095284722604e+03 -4.633167279579382403e-02 7.516286777943063761e-03
3.265485318380008266e+03 -3.260034936396505323e-02 6.871909705620923500e-03
3.268750803698389518e+03 -2.077294080128588155e-02 6.519258431013088932e-03
3.272019554502088795e+03 -1.102444741986086107e-02 6.166314899839594327e-03
3.275291574056592253e+03 -3.221973016865220529e-03 5.926108952238222545e-03
3.278566865630649772e+03 1.532348140388217761e-03 5.723217730916092469e-03
3.281845432496281319e+03 1.631340136862835521e-03 5.037475833714886650e-03
3.285127277928778767e+03 -1.185930562590975512e-03 5.067734456478623084e-03
3.288412405206708627e+03 -4.872496598464490236e-03 4.981346067495472964e-03
3.291700817611916591e+03 -1.203634029197705319e-02 5.335317280010996172e-03
3.294992518429529355e+03 -1.769619145918828115e-02 5.421160990390079364e-03
3.298287510947960072e+03 -2.735126021931232748e-02 6.163251320244825249e-03
3.301585798458909267e+03 -3.751697779012257150e-02 6.764587772492681658e-03
3.304887384257369376e+03 -4.717027010916317181e-02 6.810349571001850233e-03
3.308192271641627485e+03 -5.708529204420066672e-02 6.873248352029538537e-03
3.311500463913270323e+03 -6.398323256088865596e-02 6.589150156836538763e-03
3.314811964377184722e+03 -6.676590378589014607e-02 6.527746741486796511e-03
3.318126776341563072e+03 -6.885882611846004531e-02 6.259460942019118637e-03
3.321444903117905596e+03 -6.832767721892578361e-02 5.913463253834932119e-03
3.324766348021024896e+03 -6.564678635540674434e-02 6.002002876458493660e-03
3.328091114369046863e+03 -5.881448061426965829e-02 6.012359480404246871e-03
3.331419205483417045e+03 -4.708644712449323866e-02 6.162737039049149060e-03
3.334750624688901553e+03 -3.005176002188307549e-02 6.277975006950196370e-03
3.338085375313591612e+03 -9.960453446415926115e-03 5.709780780332761319e-03
3.341423460688906289e+03 1.230895460541694963e-02 5.392732701947438451e-03
3.344764884149596128e+03 3.432763485703177464e-02 8.102831576351316942e-03
3.348109649033746791e+03 5.994853184408331648e-02 9.633000291645286983e-03
3.351457758682781787e+03 9.215708028007287000e-02 9.669132068191105961e-03
3.354809216441465651e+03 1.283973775403565720e-01 9.601391084304416665e-03
3.358164025657908041e+03 1.649123598105766975e-01 9.634101337072797575e-03
3.361522189683567376e+03 2.077984105692892158e-01 1.055923604303194915e-02
3.364883711873251741e+03 2.531516955266029378e-01 1.197671063607503965e-02
3.368248595585126168e+03 2.995887179223559182e-01 1.316087164642174880e-02
3.371616844180712633e+03 3.400546616514986131e-01 1.356484078305006738e-02
3.374988461024894150e+03 3.787955708502081520e-01 1.360087373252771327e-02
3.378363449485920228e+03 4.174296567842670225e-01 1.385998411794984661e-02
3.381741812935407324e+03 4.526330078454359196e-01 1.362020938267996008e-02
3.385123554748343849e+03 4.870300824966312114e-01 1.360619614138015160e-02
3.388508678303093347e+03 5.158678370943853286e-01 1.330972825725946183e-02
3.391897186981397681e+03 5.320340841458004455e-01 1.335780203370024594e-02
3.395289084168380214e+03 5.402462217413848133e-01 1.346965816672115145e-02
3.398684373252549449e+03 5.395149870755172605e-01 1.371664736769773532e-02
3.402083057625803121e+03 5.266550840467885131e-01 1.366670184706035400e-02
3.405485140683430018e+03 5.024401689636602830e-01 1.411043279739884228e-02
3.408890625824114522e+03 4.721683148816580022e-01 1.411101544664160670e-02
3.412299516449939802e+03 4.350312544036934459e-01 1.456410622244821637e-02
3.415711815966390986e+03 3.891178642978789792e-01 1.488456820326249444e-02
3.419127527782358356e+03 3.394902016462615912e-01 1.551364602697144143e-02
3.422546655310141887e+03 2.894663465936609947e-01 1.676524643251343927e-02
3.425969201965453522e+03 2.398035809715466649e-01 1.932394717340927756e-02
3.429395171167419903e+03 1.924619439993814629e-01 2.174228612053367288e-02
3.432824566338588284e+03 1.581435464808094160e-01 2.076963351915272690e-02
3.436257390904928343e+03 1.236652916075395570e-01 1.565775694810772611e-02
3.439693648295834464e+03 1.103571386544345834e-01 1.329702840167218056e-02
3.443133341944131189e+03 1.235631491517014124e-01 1.627334685913553805e-02
3.446576475286076402e+03 1.562435639786035613e-01 1.949140419902381516e-02
3.450023051761363604e+03 1.965123350973379535e-01 1.775592191548639245e-02
3.453473074813126004e+03 2.456060672814917301e-01 1.501243390056990201e-02
3.456926547887940615e+03 3.004967803052426278e-01 1.460215010979307344e-02
3.460383474435829612e+03 3.546913606959614107e-01 1.436226915411241249e-02
3.463843857910266706e+03 4.113401651173864693e-01 1.471974082140207508e-02
3.467307701768178049e+03 4.611411824306464458e-01 1.452408978490549347e-02
3.470775009469947236e+03 5.047634593775220946e-01 1.549042709427962163e-02
3.474245784479418489e+03 5.375835735925724723e-01 1.627860651067142284e-02
3.477720030263898934e+03 5.532823407032408936e-01 1.631350815679460595e-02
3.481197750294164052e+03 5.546295276034510779e-01 1.651661781110873306e-02
3.484678948044459503e+03 5.531506794866655197e-01 1.749791161678200188e-02
3.488163626992504760e+03 5.411638769962446860e-01 1.885289203699586080e-02
3.491651790619498570e+03 5.255673278951388250e-01 1.928080481328597884e-02
3.495143442410119405e+03 5.102513065102356471e-01 1.980010264825084881e-02
3.498638585852530468e+03 4.963657573953904056e-01 1.963798608210525626e-02
3.502137224438384237e+03 4.765018056205357344e-01 1.848429073445726975e-02
3.505639361662823831e+03 4.566489468175052302e-01 1.591556646541596523e-02
3.509145001024487556e+03 4.466804689282621865e-01 1.598413819198867339e-02
3.512654146025513455e+03 4.521066001776204990e-01 1.571748029927036092e-02
3.516166800171540217e+03 4.595900734030805013e-01 1.405127372535417904e-02
3.519682966971712631e+03 4.716141060886723246e-01 9.561770581424645227e-03
3.523202649938685681e+03 4.737070261575120345e-01 1.086199240890457773e-02
3.526725852588625457e+03 4.772932736517397911e-01 1.069046871022896576e-02
3.530252578441215064e+03 4.785680523194122404e-01 1.027767825580685850e-02
3.533782831019657806e+03 4.775671184736877128e-01 9.466724436809398693e-03
3.537316613850678550e+03 4.809011889746675483e-01 7.995556098198242090e-03
3.540853930464530094e+03 4.969774565046652381e-01 9.618632141260612806e-03
3.544394784394995895e+03 5.114093638904683159e-01 8.460283434351444434e-03
3.547939179179392340e+03 5.176934871254132986e-01 1.183054551686114203e-02
3.551487118358572843e+03 5.270444307831508857e-01 1.454368347900160049e-02
3.555038605476932389e+03 5.418480746624528832e-01 1.388186349393557770e-02
3.558593644082410719e+03 5.656974655137494423e-01 1.422204636220269179e-02
3.562152237726494150e+03 5.894151017412700977e-01 1.455642821325587102e-02
3.565714389964221937e+03 6.191146625732442121e-01 1.643211835978196020e-02
3.569280104354187188e+03 6.390169259674618463e-01 1.748666893274673437e-02
3.572849384458542772e+03 6.512155392604337401e-01 1.764970448665072883e-02
3.576422233843002232e+03 6.574561688570760287e-01 1.655208647824613771e-02
3.579998656076846601e+03 6.525340074235488341e-01 1.587269427650707734e-02
3.583578654732924406e+03 6.331791307823673165e-01 1.780669095325380577e-02
3.587162233387658489e+03 6.070721100675646742e-01 1.804339145780747833e-02
3.590749395621047370e+03 5.676006902662933395e-01 1.775388110376526982e-02
3.594340145016669794e+03 5.262053420690760985e-01 1.823446477002877569e-02
3.597934485161687462e+03 4.799554008922501391e-01 1.663694852538008181e-02
3.601532419646850485e+03 4.410324774374075885e-01 1.301560364675470247e-02
3.605133952066498296e+03 4.198562563612918130e-01 1.579771865918963222e-02
3.608739086018566013e+03 4.135431832796013785e-01 1.582385556474095317e-02
3.612347825104585809e+03 4.048468574621543192e-01 1.188754606295964154e-02
3.615960172929691907e+03 3.791203005177403718e-01 1.396816462532759172e-02
3.619576133102622407e+03 3.525823991778388455e-01 1.610435805116129659e-02
3.623195709235726554e+03 3.342461624518830443e-01 1.611215166171934415e-02
3.626818904944963379e+03 3.197848141654665577e-01 1.588732497392533055e-02
3.630445723849909427e+03 3.082423589837117173e-01 1.468891612285405830e-02
3.634076169573760581e+03 3.084761510194732881e-01 1.480886238869677692e-02
3.637710245743335690e+03 3.104790143486966802e-01 1.451831642442973427e-02
3.641347955989080219e+03 3.169412073684221287e-01 1.426864169269081474e-02
3.644989303945070333e+03 3.303735235446148555e-01 1.423818661648058349e-02
3.648634293249016537e+03 3.462366788163249720e-01 1.411820515283798011e-02
3.652282927542266862e+03 3.625589412094549213e-01 1.388444947909604245e-02
3.655935210469810499e+03 3.873318660032172289e-01 1.094347178953227265e-02
3.659591145680281443e+03 4.012892318934471736e-01 1.168031924212919147e-02
3.663250736825963031e+03 4.127096267181148415e-01 1.122583945578059170e-02
3.666913987562790226e+03 4.195233591032008769e-01 8.255281770102920400e-03
3.670580901550354156e+03 4.326543010998379346e-01 7.679007664706666292e-03
3.674251482451905758e+03 4.493745645011889556e-01 7.916076228973249404e-03
3.677925733934358959e+03 4.714166444285268209e-01 6.558884404000496320e-03
3.681603659668294313e+03 4.887348928402386328e-01 6.640869575949078993e-03
3.685285263327964003e+03 5.017685743540546417e-01 8.095413276957215062e-03
3.688970548591293209e+03 5.206009969691031136e-01 7.671688502357151829e-03
3.692659519139885560e+03 5.472465649564151047e-01 7.583671349935380314e-03
3.696352178659026777e+03 5.757876210910729542e-01 7.278469472082726294e-03
3.700048530837686940e+03 6.089949276806967404e-01 7.843155957605620759e-03
3.703748579368525952e+03 6.441498211205628488e-01 7.976108116810660953e-03
3.707452327947895355e+03 6.759899960479724967e-01 8.311569266953028681e-03
3.711159780275844696e+03 7.038818761743081964e-01 8.581507658601605915e-03
3.714870940056121526e+03 7.296791342011038628e-01 1.022046247545667537e-02
3.718585810996179134e+03 7.418878829305101119e-01 9.361442221385058923e-03
3.722304396807176545e+03 7.418130447926327697e-01 8.426479145518887479e-03
3.726026701203984885e+03 7.303884491499296194e-01 6.820132498540414263e-03
3.729752727905190113e+03 6.960458805278033623e-01 7.358552545387636069e-03
3.733482480633096657e+03 6.488289470364935196e-01 9.499249710240091973e-03
3.737215963113731050e+03 5.929047667184409454e-01 8.788156336819495998e-03
3.740953179076846027e+03 5.356029158371423682e-01 9.519532886334444027e-03
3.744694132255923705e+03 4.822123046992207729e-01 9.933414301217434461e-03
3.748438826388181042e+03 4.373557082964106280e-01 1.106935618036627815e-02
3.752187265214570289e+03 4.030152749172473126e-01 9.454492882641413187e-03
3.755939452479786269e+03 3.802240464538166886e-01 8.838994235401770316e-03
3.759695391932267285e+03 3.742372729941259024e-01 1.138791834428777745e-02
3.763455087324201031e+03 3.788069389920094565e-01 1.209533792734189886e-02
3.767218542411526414e+03 3.909212852249968062e-01 1.257802441200687321e-02
3.770985760953939007e+03 4.019203269917562271e-01 9.921514134905055210e-03
3.774756746714894234e+03 4.093092957566661361e-01 1.021175747316159857e-02
3.778531503461610555e+03 4.179705894570696079e-01 1.003516744027448809e-02
3.782310034965073100e+03 4.222326928773370014e-01 9.855349715429785953e-03
3.786092345000039586e+03 4.265497960669581978e-01 9.671284872245817718e-03
3.789878437345040766e+03 4.229055145743246813e-01 7.966260479027223451e-03
3.793668315782387253e+03 4.209046788858427091e-01 7.589661248591047203e-03
3.797461984098170888e+03 4.207601229034153012e-01 7.860651955767013893e-03
3.801259446082270188e+03 4.155365806224672887e-01 7.725280788461865410e-03
3.805060705528353537e+03 4.074836339279497843e-01 8.129033379477346166e-03
3.808865766233883278e+03 4.034538094356471816e-01 7.663996686297580574e-03
3.812674632000118436e+03 3.978391131671016323e-01 7.794625525369154768e-03
3.816487306632119726e+03 3.922058526310087112e-01 7.689925094355016220e-03
3.820303793938753188e+03 3.856891180765691929e-01 6.456643798037805734e-03
3.824124097732693372e+03 3.860094688584138067e-01 7.210108122520023435e-03
3.827948221830427428e+03 3.850624896227823335e-01 7.049636988911387424e-03
3.831776170052258749e+03 3.899593540006910386e-01 7.214969521435357462e-03
3.835607946222312421e+03 3.953341445135802323e-01 7.294578973842563360e-03
3.839443554168536139e+03 4.068479716582782402e-01 6.759732119990877544e-03
3.843282997722705659e+03 4.157375158262043291e-01 8.034638967019062245e-03
3.847126280720429804e+03 4.309084462626174838e-01 7.215349210449780240e-03
3.850973407001151372e+03 4.554194455988656021e-01 8.223004458628387775e-03
3.854824380408153957e+03 4.782251696008752995e-01 8.163189973671098124e-03
3.858679204788563311e+03 5.033170073494578345e-01 8.290748833684646185e-03
3.862537883993353262e+03 5.294216530461138825e-01 8.822262428004823409e-03
3.866400421877347981e+03 5.569575654782359386e-01 8.704565246154401595e-03
3.870266822299226533e+03 5.822230040687372821e-01 7.210892272245351259e-03
3.874137089121526969e+03 5.974730013520495042e-01 6.067827844360617479e-03
3.878011226210649966e+03 6.027784396056951044e-01 6.423428084088043943e-03
3.881889237436861549e+03 6.031316292983002203e-01 6.488374722774976899e-03
3.885771126674299921e+03 5.957221170905535601e-01 6.631427317927513811e-03
3.889656897800975457e+03 5.839249975956779526e-01 6.384380052342686872e-03
3.893546554698777527e+03 5.721697935014563585e-01 5.926858354144965216e-03
3.897440101253477678e+03 5.678269236135337072e-01 6.513880256475885339e-03
3.901337541354732366e+03 5.713318940217823050e-01 5.951868178024950599e-03
3.905238878896088409e+03 5.884704840519249247e-01 6.029746219708586284e-03
3.909144117774985716e+03 6.155716982433296902e-01 5.710891542097978543e-03
3.913053261892762293e+03 6.556192440853152448e-01 7.219434691429278683e-03
3.916966315154656058e+03 7.018890975014506761e-01 7.575384428356198713e-03
3.920883281469812118e+03 7.612355702748453412e-01 8.029351422640978314e-03
3.924804164751283224e+03 8.265965485046560257e-01 5.662844771608788359e-03
3.928728968916035683e+03 8.898024986956387661e-01 6.482730814317439784e-03
3.932657697884953450e+03 9.549188479372179295e-01 6.759877842590661379e-03
3.936590355582839493e+03 1.020596042376440193e+00 7.600156126171936886e-03
3.940526945938423523e+03 1.081678116801323641e+00 8.590189236119366925e-03
3.944467472884363360e+03 1.134654903988328689e+00 8.727357646038035391e-03
3.948411940357249023e+03 1.175844592965704427e+00 9.087279399826573081e-03
3.952360352297607733e+03 1.206670116708150386e+00 9.851813173943471669e-03
3.956312712649906643e+03 1.225773131254276782e+00 9.284008276025542544e-03
3.960269025362557841e+03 1.232136592736592817e+00 9.217529667331315554e-03
3.964229294387921527e+03 1.226952451235747921e+00 9.477619947904756051e-03
3.968193523682310570e+03 1.205601057864088554e+00 1.296821564687212699e-02
3.972161717205994591e+03 1.180263610503945682e+00 1.233054378615982931e-02
3.976133878923201792e+03 1.152979425944936187e+00 1.044673080706341739e-02
3.980110012802126221e+03 1.128268123051434202e+00 1.084812683623232257e-02
3.984090122814929600e+03 1.103172415780967475e+00 1.138228242090853076e-02
3.988074212937745870e+03 1.079711115370620700e+00 1.079822153402648817e-02
3.992062287150684824e+03 1.055404240281660133e+00 1.032398285043976613e-02
3.996054349437837118e+03 1.034064813988851750e+00 1.021978713933019769e-02
4.000050403787276082e+03 1.013546444276258063e+00 1.128485475799517225e-02
4.004050454191064546e+03 9.996404647902208396e-01 1.039113921912375969e-02
4.008054504645257111e+03 9.928098989648620476e-01 1.025696037523735581e-02
4.012062559149903791e+03 9.935266636699680021e-01 1.136173499921015739e-02
4.016074621709055009e+03 9.936468496947699069e-01 1.132316580386492563e-02
4.020090696330765240e+03 9.941018973294080130e-01 1.111694458906988155e-02
4.024110787027097558e+03 1.001006577675827236e+00 1.095065399786180650e-02
4.028134897814125907e+03 1.009296045846512779e+00 1.013816783535523292e-02
4.032163032711941469e+03 1.016346280965272797e+00 1.068154692933167421e-02
4.036195195744654484e+03 1.027504914237662215e+00 1.059284547112926585e-02
4.040231390940400615e+03 1.039480188824504214e+00 1.053783768087482135e-02
4.044271622331342314e+03 1.042692662188980268e+00 8.844328141118471334e-03
4.048315893953675186e+03 1.051548156113735422e+00 8.706315168792090609e-03
4.052364209847629809e+03 1.060701665511849523e+00 9.438701172622573216e-03
4.056416574057479011e+03 1.073554939944226128e+00 9.868716452636309977e-03
4.060472990631537868e+03 1.079104628292908430e+00 8.852276222579127940e-03
4.064533463622170530e+03 1.081287386354771174e+00 7.562778563634637262e-03
4.068597997085794304e+03 1.076770543587078466e+00 7.432833674705535167e-03
4.072666595082881486e+03 1.063717340418611768e+00 7.478018664526533098e-03
4.076739261677965715e+03 1.045167673661231422e+00 6.472463596426808463e-03
4.080816000939644709e+03 1.026330068395990391e+00 6.024663266391918487e-03
4.084896816940585722e+03 1.006321561915116902e+00 5.812200458238473214e-03
4.088981713757527814e+03 9.894245812027643305e-01 5.783416637480900090e-03
4.093070695471286854e+03 9.713824172027550885e-01 6.429021916684597195e-03
4.097163766166759160e+03 9.599484446061230525e-01 6.425558678624007300e-03
4.101260929932927866e+03 9.586693183297803067e-01 6.339830753690315311e-03
4.105362190862862008e+03 9.610997394732971877e-01 6.247717953410922981e-03
4.109467553053726078e+03 9.700531089063866297e-01 6.602658552313880359e-03
4.113577020606780934e+03 9.861189581829219453e-01 6.866393081913879474e-03
4.117690597627389252e+03 1.006030305786121071e+00 6.979469832542704345e-03
4.121808288225018259e+03 1.022470067917504055e+00 6.752646759834966816e-03
4.125930096513244280e+03 1.046500540790935352e+00 6.548287204757350689e-03
4.130056026609759101e+03 1.068918982550556285e+00 6.053288970482332935e-03
4.134186082636369974e+03 1.091069591496305335e+00 4.491835542629574532e-03
4.138320268719007800e+03 1.104327065749363790e+00 4.540545505339239202e-03
4.142458588987728035e+03 1.113441168095350653e+00 4.940382833400393942e-03
4.146601047576717065e+03 1.114789496043106398e+00 5.014987709032394693e-03
4.150747648624294925e+03 1.110105553055707350e+00 5.793420944593689371e-03
4.154898396272920763e+03 1.102735148968843948e+00 8.010289131054058528e-03
4.159053294669195566e+03 1.098608898003416545e+00 8.674333324518780988e-03
4.163212347963865795e+03 1.096376786215796706e+00 8.978572265887919956e-03
4.167375560311830668e+03 1.095855844938392831e+00 9.319140601512889907e-03
4.171542935872143971e+03 1.091911500007029634e+00 8.812838781143533459e-03
4.175714478808017702e+03 1.094339169596999506e+00 8.961963287088526436e-03
4.179890193286827525e+03 1.102530619767811304e+00 1.164018793964359533e-02
4.184070083480115500e+03 1.110223737409965938e+00 1.300457644918921567e-02
4.188254153563597356e+03 1.117132744626855523e+00 1.185835423151703448e-02
4.192442407717161586e+03 1.120759449723760071e+00 1.195521239816567556e-02
4.196634850124880359e+03 1.125424058595330346e+00 1.165272301838749316e-02
