# starting wavelength: 2960.940
# ending wavelength: 8448.870
# wav flux eflux
2.963754456489549284e+03 3.384907444587115677e+00 6.956810610458991420e-03
2.966718210946040017e+03 3.363751223789083866e+00 5.071064842152182318e-03
2.969684929156986982e+03 3.345869988753494173e+00 3.900686564776640382e-03
2.972654614086145102e+03 3.330578968340604629e+00 3.056807301485421190e-03
2.975627268700231980e+03 3.317472127311309915e+00 2.442165224272954422e-03
2.978602895968933353e+03 3.306239759174844028e+00 1.955862150257050777e-03
2.981581498864903097e+03 3.296875481469641045e+00 1.643041321943360675e-03
2.984563080363769132e+03 3.289127439753111837e+00 1.355348837577363729e-03
2.987547643444133882e+03 3.283143527850025389e+00 1.223816423074410107e-03
2.990535191087578823e+03 3.279255274025067113e+00 1.497605787546439030e-03
2.993525726278667662e+03 3.277574600207238564e+00 1.916264668449941004e-03
2.996519252004947248e+03 3.277486248309532613e+00 2.004101091791477950e-03
2.999515771256953030e+03 3.278226085821443814e+00 1.886762638669902716e-03
3.002515287028211333e+03 3.279629910459790132e+00 1.771993509858315859e-03
3.005517802315240260e+03 3.281097782876429392e+00 1.685077991157304987e-03
3.008523320117556523e+03 3.282942909950331778e+00 1.592437955357664655e-03
3.011531843437674979e+03 3.284268007449667071e+00 1.566003634780770322e-03
3.014543375281113640e+03 3.285151394368757138e+00 1.701194565015994985e-03
3.017557918656395941e+03 3.286090970641351028e+00 1.857246911171577756e-03
3.020575476575053472e+03 3.287433386182447848e+00 1.946541093384516682e-03
3.023596052051629158e+03 3.289026461718844274e+00 2.000219654944178447e-03
3.026619648103681811e+03 3.290754038786197100e+00 2.026181266593811425e-03
3.029646267751786581e+03 3.292336697357823638e+00 1.975205637554625689e-03
3.032675914019539505e+03 3.294056668773300611e+00 1.905454926964533346e-03
3.035708589933559779e+03 3.296047418935620588e+00 1.849430958817671958e-03
3.038744298523494763e+03 3.298257254317281451e+00 1.808631443492400353e-03
3.041783042822019070e+03 3.300334783546616357e+00 1.746791533032477457e-03
3.044824825864842296e+03 3.302462105835728856e+00 1.634765717725148457e-03
3.047869650690708113e+03 3.304818871511169931e+00 1.552299495092875374e-03
3.050917520341399722e+03 3.307357844926553270e+00 1.502246090198390690e-03
3.053968437861742132e+03 3.310011804990536710e+00 1.478390631851945114e-03
3.057022406299604881e+03 3.312857559310448341e+00 1.476823796059383064e-03
3.060079428705905229e+03 3.315500165847824032e+00 1.512701986327874169e-03
3.063139508134612242e+03 3.318665967429669905e+00 1.523346197936929075e-03
3.066202647642748161e+03 3.321761908861547319e+00 1.499655543921934097e-03
3.069268850290391583e+03 3.324884715564754956e+00 1.437231982576464605e-03
3.072338119140682920e+03 3.327859291563922906e+00 1.310156076522172967e-03
3.075410457259824852e+03 3.330418499035441737e+00 1.197188537478218037e-03
3.078485867717085512e+03 3.332585697751461407e+00 1.150405555629370165e-03
3.081564353584803939e+03 3.334233948249755386e+00 1.167912067611152037e-03
3.084645917938389630e+03 3.335193705531299457e+00 1.213456387648162611e-03
3.087730563856328899e+03 3.335581868358287405e+00 1.132365014957407252e-03
3.090818294420186248e+03 3.335506167528198951e+00 9.513726647607272839e-04
3.093909112714607545e+03 3.335129825892529709e+00 9.607845972545020485e-04
3.097003021827323209e+03 3.334434563528827056e+00 1.225744442935036271e-03
3.100100024849151396e+03 3.333211017914934793e+00 1.432053857114052231e-03
3.103200124874001631e+03 3.331090208601585001e+00 1.426779120475983554e-03
3.106303324998876633e+03 3.327779688082159737e+00 1.335816359186979508e-03
3.109409628323876859e+03 3.323330633332849171e+00 1.236440852716036995e-03
3.112519037952201415e+03 3.317818916504362114e+00 1.163129387787002322e-03
3.115631556990154877e+03 3.311671749658338104e+00 1.137610232168270990e-03
3.118747188547145925e+03 3.303784760517849417e+00 1.271220442254118515e-03
3.121865935735694165e+03 3.294911129878656642e+00 1.333159316310964827e-03
3.124987801671431043e+03 3.285382056991936306e+00 1.337275434183249649e-03
3.128112789473103476e+03 3.275253650359418511e+00 1.334073510644010006e-03
3.131240902262577492e+03 3.264326578258670786e+00 1.329627370015205217e-03
3.134372143164840963e+03 3.252545356836477275e+00 1.325632676022280888e-03
3.137506515308006783e+03 3.239817457171056514e+00 1.347888660102010373e-03
3.140644021823316052e+03 3.226935488601830215e+00 1.342469539431852482e-03
3.143784665845140353e+03 3.213482229677165236e+00 1.327249449593973125e-03
3.146928450510986750e+03 3.199373453665228961e+00 1.308894968199403579e-03
3.150075378961498700e+03 3.185203457380121783e+00 1.308882720720195040e-03
3.153225454340461056e+03 3.171018805578508903e+00 1.334011658753791714e-03
3.156378679794802792e+03 3.156951434424910996e+00 1.386467238366360672e-03
3.159535058474598372e+03 3.143269801495330640e+00 1.435146103349349903e-03
3.162694593533074112e+03 3.130287226587891158e+00 1.471925130820065731e-03
3.165857288126608182e+03 3.118039716412299267e+00 1.500892983287796870e-03
3.169023145414736064e+03 3.106593306679422462e+00 1.509965079309769304e-03
3.172192168560151458e+03 3.095902238472921120e+00 1.567537530033775257e-03
3.175364360728712654e+03 3.085731099236669106e+00 1.573688673211609676e-03
3.178539725089442527e+03 3.076109973656498742e+00 1.577560519421244718e-03
3.181718264814533086e+03 3.066953725032780742e+00 1.567249295492223731e-03
3.184899983079348658e+03 3.058242377506856347e+00 1.542441188857049004e-03
3.188084883062429071e+03 3.050293811617556639e+00 1.659014548615358976e-03
3.191272967945492383e+03 3.043321233699062489e+00 1.871157470831517466e-03
3.194464240913438971e+03 3.037229951046254595e+00 1.847758837666575336e-03
3.197658705154353811e+03 3.031633975303620776e+00 1.626596403914774792e-03
3.200856363859509202e+03 3.025930244157744475e+00 1.242339026127596687e-03
3.204057220223369768e+03 3.019564994968383598e+00 9.282735936498753187e-04
3.207261277443593826e+03 3.012611403354599204e+00 8.451941134369027331e-04
3.210468538721038840e+03 3.005147935734952647e+00 8.746176504639129349e-04
3.213679007259760965e+03 2.997067914559095492e+00 8.887673355985226554e-04
3.216892686267021418e+03 2.988502622316671964e+00 8.486762506444752580e-04
3.220109578953289656e+03 2.979741350156545288e+00 8.052928077485690820e-04
3.223329688532243836e+03 2.970899168562008530e+00 7.871728225899948632e-04
3.226553018220777176e+03 2.962003486518035800e+00 8.024844595539542538e-04
3.229779571238999324e+03 2.952923093493705409e+00 8.044677753365827048e-04
3.233009350810239084e+03 2.944006363476229460e+00 7.456825048299846803e-04
3.236242360161050783e+03 2.935823047051272727e+00 7.709801011562323649e-04
3.239478602521212906e+03 2.928724922782198092e+00 1.034320093405643928e-03
3.242718081123734919e+03 2.922415088187594545e+00 1.415734720724752321e-03
3.245960799204859995e+03 2.917130063912698912e+00 1.571505656877676986e-03
3.249206760004065927e+03 2.913970705470772860e+00 1.595427708366904153e-03
3.252455966764071036e+03 2.912789502492369120e+00 1.483784950445546629e-03
3.255708422730835991e+03 2.914000717815730113e+00 1.377247299994478974e-03
3.258964131153567905e+03 2.917644141186248152e+00 1.463678141718313891e-03
3.262223095284722604e+03 2.923529851404053748e+00 1.728259735495811175e-03
3.265485318380008266e+03 2.931566077253683122e+00 2.016143249844250512e-03
3.268750803698389518e+03 2.941067289850576305e+00 2.138828793414783262e-03
3.272019554502088795e+03 2.951808368648325409e+00 2.112159490302454191e-03
3.275291574056592253e+03 2.963492649668876933e+00 2.096925916341054602e-03
3.278566865630649772e+03 2.976141207028744518e+00 2.012790138725716656e-03
3.281845432496281319e+03 2.989492942967251210e+00 1.909986208888745512e-03
3.285127277928778767e+03 3.003840108053189351e+00 1.893541856491026427e-03
3.288412405206708627e+03 3.018092048106599812e+00 1.904949935048036360e-03
3.291700817611916591e+03 3.032363356460636705e+00 1.952656456838781094e-03
3.294992518429529355e+03 3.046050789991737950e+00 1.995692977713735359e-03
3.298287510947960072e+03 3.059079902013507102e+00 1.845391873159734448e-03
3.301585798458909267e+03 3.070857255476946879e+00 1.584588243538689488e-03
3.304887384257369376e+03 3.082783392662497679e+00 1.494156936397240086e-03
3.308192271641627485e+03 3.094261284776874898e+00 1.580243764062192260e-03
3.311500463913270323e+03 3.105184394977761997e+00 1.800884705397391965e-03
3.314811964377184722e+03 3.115045330236042798e+00 1.964528567763022902e-03
3.318126776341563072e+03 3.123104720411019386e+00 2.037202348002252559e-03
3.321444903117905596e+03 3.129229131561658050e+00 1.825490762169044165e-03
3.324766348021024896e+03 3.132281226585341027e+00 1.305279964144595442e-03
3.328091114369046863e+03 3.131657023824097053e+00 9.382012490783137992e-04
3.331419205483417045e+03 3.127045389651408325e+00 7.456883464284412653e-04
3.334750624688901553e+03 3.118520873003400862e+00 6.444039362050859926e-04
3.338085375313591612e+03 3.106208420231701517e+00 6.738780041705194407e-04
3.341423460688906289e+03 3.089976207427040933e+00 6.889789307099472918e-04
3.344764884149596128e+03 3.070517094868133956e+00 7.980566098582921259e-04
3.348109649033746791e+03 3.048414733853243686e+00 1.017673311611396380e-03
3.351457758682781787e+03 3.024278057118202856e+00 1.348944527825530603e-03
3.354809216441465651e+03 2.998045882329090528e+00 1.780621692175609391e-03
3.358164025657908041e+03 2.971814697196572208e+00 1.957657390172884686e-03
3.361522189683567376e+03 2.946337068030274065e+00 2.077202111022137879e-03
3.364883711873251741e+03 2.922511884498276036e+00 1.893916867882854170e-03
3.368248595585126168e+03 2.901374163664826700e+00 1.356880380187635692e-03
3.371616844180712633e+03 2.883856543064348799e+00 1.113195773300821581e-03
3.374988461024894150e+03 2.870603890816372683e+00 8.260296642790045671e-04
3.378363449485920228e+03 2.862481852394034743e+00 7.037626332984950545e-04
3.381741812935407324e+03 2.859267476663496232e+00 7.504273557360655132e-04
3.385123554748343849e+03 2.860673153816127634e+00 8.526865703044360150e-04
3.388508678303093347e+03 2.866936270314403234e+00 1.380570117755853263e-03
3.391897186981397681e+03 2.877431191022449042e+00 1.940073366468901940e-03
3.395289084168380214e+03 2.889625038560401649e+00 1.850402131221285263e-03
3.398684373252549449e+03 2.905339857358028244e+00 2.304057281361200377e-03
3.402083057625803121e+03 2.921754375958626859e+00 2.516680636791058124e-03
3.405485140683430018e+03 2.937369884795752562e+00 2.383832496517516129e-03
3.408890625824114522e+03 2.951844147066226665e+00 1.851198930298180150e-03
3.412299516449939802e+03 2.961644578412737872e+00 1.532870350771418618e-03
3.415711815966390986e+03 2.967240137501457209e+00 1.406714635270590570e-03
3.419127527782358356e+03 2.968359810392737330e+00 1.591192227826412420e-03
3.422546655310141887e+03 2.964972299168038283e+00 1.865298818035693480e-03
3.425969201965453522e+03 2.957406730147481788e+00 1.982815356490234219e-03
3.429395171167419903e+03 2.945741449913748866e+00 1.944142846014227256e-03
3.432824566338588284e+03 2.930429314428513177e+00 1.647199545302008425e-03
3.436257390904928343e+03 2.912549037192369017e+00 1.328017572709980481e-03
3.439693648295834464e+03 2.893026461684835571e+00 8.927120609837342711e-04
3.443133341944131189e+03 2.872609195586897979e+00 7.028311081082292983e-04
3.446576475286076402e+03 2.851859450205850077e+00 7.124536613558106555e-04
3.450023051761363604e+03 2.831373091100363393e+00 7.285057248901674826e-04
3.453473074813126004e+03 2.811854886988713442e+00 7.225306092915272614e-04
3.456926547887940615e+03 2.793468082219031867e+00 5.603520441219238517e-04
3.460383474435829612e+03 2.775569835484381187e+00 7.157626446844672641e-04
3.463843857910266706e+03 2.758857619446085430e+00 7.147881961257086109e-04
3.467307701768178049e+03 2.744457331906020148e+00 6.374173249597680103e-04
3.470775009469947236e+03 2.732883641231431682e+00 6.104088214392333666e-04
3.474245784479418489e+03 2.724097870763731777e+00 7.898891110110561409e-04
3.477720030263898934e+03 2.717768095924220084e+00 9.472964667230134592e-04
3.481197750294164052e+03 2.714072749083547453e+00 1.215733745915327426e-03
3.484678948044459503e+03 2.711644184089126330e+00 1.164567437047475283e-03
3.488163626992504760e+03 2.710054966180893032e+00 1.082754945193612839e-03
3.491651790619498570e+03 2.709470395830647416e+00 1.076692700509322828e-03
3.495143442410119405e+03 2.709829469057269069e+00 1.113523233427218470e-03
3.498638585852530468e+03 2.711051647709185719e+00 1.193615290674655219e-03
3.502137224438384237e+03 2.712946039356044281e+00 1.260011090715697441e-03
3.505639361662823831e+03 2.715769516959265495e+00 1.257628092443748187e-03
3.509145001024487556e+03 2.718819653077068299e+00 1.133035614243566719e-03
3.512654146025513455e+03 2.722930134951593750e+00 1.016232361465347180e-03
3.516166800171540217e+03 2.727857257153596837e+00 1.136838893314918390e-03
3.519682966971712631e+03 2.732882704194630641e+00 1.219542922492773251e-03
3.523202649938685681e+03 2.738272152764161582e+00 1.083806550666865064e-03
3.526725852588625457e+03 2.742941456147217405e+00 7.918249424654505170e-04
3.530252578441215064e+03 2.746260387938206371e+00 6.679435939530084651e-04
3.533782831019657806e+03 2.747732066397892581e+00 5.935157220229522485e-04
3.537316613850678550e+03 2.746856519985974465e+00 6.403841459994602699e-04
3.540853930464530094e+03 2.743406238306491218e+00 7.513022589591599127e-04
3.544394784394995895e+03 2.736859165245414172e+00 7.964913179725792306e-04
3.547939179179392340e+03 2.726993704152809617e+00 7.889165100611946358e-04
3.551487118358572843e+03 2.714361035438790370e+00 7.101623856532533318e-04
3.555038605476932389e+03 2.698286519196351207e+00 1.040210041642643506e-03
3.558593644082410719e+03 2.679634546684170004e+00 1.192008886816526723e-03
3.562152237726494150e+03 2.659474592573801033e+00 1.140676308759361367e-03
3.565714389964221937e+03 2.637632926349704476e+00 1.089560605578413855e-03
3.569280104354187188e+03 2.614470298262220993e+00 1.066417425123038611e-03
3.572849384458542772e+03 2.590181002800584054e+00 1.047159942618881802e-03
3.576422233843002232e+03 2.565153922414620702e+00 1.023220435506006724e-03
3.579998656076846601e+03 2.540105444843368421e+00 1.015773770577587613e-03
3.583578654732924406e+03 2.515571920514581450e+00 9.699838627462788231e-04
3.587162233387658489e+03 2.491376130872284378e+00 1.123747811679579696e-03
3.590749395621047370e+03 2.468314354802617405e+00 1.179064629450476617e-03
3.594340145016669794e+03 2.446672717791971152e+00 1.093865141964389318e-03
3.597934485161687462e+03 2.426881782669397580e+00 1.102906025772855706e-03
3.601532419646850485e+03 2.408735496711740254e+00 1.110524407973212174e-03
3.605133952066498296e+03 2.392597975496908891e+00 1.109821105778426150e-03
3.608739086018566013e+03 2.378820842846081529e+00 1.079918725268547283e-03
3.612347825104585809e+03 2.367506460083383946e+00 1.024123979368280748e-03
3.615960172929691907e+03 2.358559655029190960e+00 9.770218658385714221e-04
3.619576133102622407e+03 2.351740789691590727e+00 9.652501636840742864e-04
3.623195709235726554e+03 2.346593002319737664e+00 9.086332574136931706e-04
3.626818904944963379e+03 2.343362680724371483e+00 9.578555569544895502e-04
3.630445723849909427e+03 2.341978125879614847e+00 1.062868255522277615e-03
3.634076169573760581e+03 2.341613714390253786e+00 1.057564027531209504e-03
3.637710245743335690e+03 2.342642790421425314e+00 1.044980593231101870e-03
3.641347955989080219e+03 2.344891185429221370e+00 1.033040260214570637e-03
3.644989303945070333e+03 2.348208606037639701e+00 9.983768900744529814e-04
3.648634293249016537e+03 2.352081474024227958e+00 9.916079399262963355e-04
3.652282927542266862e+03 2.355988629709155902e+00 1.009574021341895760e-03
3.655935210469810499e+03 2.359583409135150411e+00 1.047873418042630841e-03
3.659591145680281443e+03 2.362865107335822223e+00 1.153272294367020667e-03
3.663250736825963031e+03 2.365823140001114488e+00 1.218690061768964647e-03
3.666913987562790226e+03 2.368047908945677182e+00 1.048270192744783476e-03
3.670580901550354156e+03 2.369377814094496326e+00 1.004924213705826177e-03
3.674251482451905758e+03 2.369723323603448950e+00 1.211518979487606227e-03
3.677925733934358959e+03 2.369453015533098839e+00 1.362864290199375687e-03
3.681603659668294313e+03 2.369039814903460162e+00 1.307938264493466434e-03
3.685285263327964003e+03 2.368963171322240324e+00 1.066580334398927517e-03
3.688970548591293209e+03 2.369517995957249212e+00 8.065727209254641575e-04
3.692659519139885560e+03 2.371039169224291143e+00 7.223178943632588972e-04
3.696352178659026777e+03 2.374058941723130367e+00 7.345636755862571107e-04
3.700048530837686940e+03 2.378417361319603796e+00 8.218350522981227903e-04
3.703748579368525952e+03 2.383825299201447923e+00 9.514663737925830277e-04
3.707452327947895355e+03 2.390545523614017398e+00 9.418062462190994726e-04
3.711159780275844696e+03 2.398291561639231961e+00 1.020890686753729180e-03
3.714870940056121526e+03 2.406454177085551649e+00 1.364082767448157509e-03
3.718585810996179134e+03 2.414072468737209487e+00 1.791391639454397236e-03
3.722304396807176545e+03 2.420094247890080208e+00 2.068451487474567019e-03
3.726026701203984885e+03 2.423618431070603041e+00 2.017908591184406665e-03
3.729752727905190113e+03 2.423984690947662557e+00 1.731877371264508659e-03
3.733482480633096657e+03 2.420503829050774325e+00 1.239072023650653618e-03
3.737215963113731050e+03 2.412035532750586242e+00 1.083795145925926968e-03
3.740953179076846027e+03 2.398690683520748657e+00 1.379178861365458779e-03
3.744694132255923705e+03 2.380828883505984983e+00 1.711297320808117563e-03
3.748438826388181042e+03 2.359542052511139687e+00 1.744410247881808453e-03
3.752187265214570289e+03 2.336413134439109918e+00 1.397356691193821351e-03
3.755939452479786269e+03 2.313116500122666341e+00 9.277292481564328695e-04
3.759695391932267285e+03 2.290360580436511473e+00 7.186358870983396846e-04
3.763455087324201031e+03 2.268212267003643312e+00 6.725857115879717730e-04
3.767218542411526414e+03 2.247916193406767071e+00 6.949870086016021698e-04
3.770985760953939007e+03 2.229399481237642977e+00 9.704809201839004499e-04
3.774756746714894234e+03 2.212235752852109272e+00 1.170955914643128162e-03
3.778531503461610555e+03 2.196105215640872022e+00 1.120551092009196715e-03
3.782310034965073100e+03 2.181306832214520153e+00 1.013148402205752601e-03
3.786092345000039586e+03 2.167604847166691773e+00 8.983470264101803271e-04
3.789878437345040766e+03 2.154649614674671199e+00 8.052630752274812179e-04
3.793668315782387253e+03 2.141960949010782933e+00 7.874045177806128851e-04
3.797461984098170888e+03 2.129376328326447965e+00 7.743004016617580088e-04
3.801259446082270188e+03 2.117587736032969126e+00 9.238371588276531217e-04
3.805060705528353537e+03 2.106526640230157899e+00 1.054998903504651654e-03
3.808865766233883278e+03 2.095410172954646377e+00 1.056859887489379132e-03
3.812674632000118436e+03 2.084864621977346122e+00 1.375822284926663929e-03
3.816487306632119726e+03 2.075585771798856172e+00 1.761168150427026543e-03
3.820303793938753188e+03 2.068233676278729227e+00 2.067610392960494547e-03
3.824124097732693372e+03 2.064084201446839906e+00 2.046659062488416937e-03
3.827948221830427428e+03 2.063968027801979854e+00 1.956198457410662003e-03
3.831776170052258749e+03 2.067698267141642621e+00 1.837154211373617091e-03
3.835607946222312421e+03 2.074735859994886855e+00 1.756693824310933240e-03
3.839443554168536139e+03 2.086131864599561236e+00 2.539720962443185563e-03
3.843282997722705659e+03 2.100278895239496624e+00 2.703075560448761714e-03
3.847126280720429804e+03 2.115381132972586009e+00 2.288098040295805016e-03
3.850973407001151372e+03 2.130291586990017638e+00 2.101599642672298627e-03
3.854824380408153957e+03 2.145177661593779650e+00 2.007425411342182286e-03
3.858679204788563311e+03 2.159135370390853570e+00 2.016331128225056987e-03
