# starting wavelength: 1847.290
# ending wavelength: 9983.740
# wav flux eflux
1.849088296372663308e+03 4.734903577768586613e-01 4.156056536805477486e-02
1.850937384669036646e+03 4.931958151372526356e-01 3.267289055005350579e-02
1.852788322053706224e+03 5.063654989194396050e-01 2.439411041305071526e-02
1.854641110375760718e+03 5.153371316563818416e-01 1.866583870952054358e-02
1.856495751486136896e+03 5.206343426187302059e-01 1.505886240309906553e-02
1.858352247237623715e+03 5.211724326524698192e-01 1.238913011506574680e-02
1.860210599484861859e+03 5.175905582874894550e-01 1.021011696518081373e-02
1.862070810084347386e+03 5.112672762171968088e-01 8.711826656419613749e-03
1.863932880894432401e+03 5.039743961033708031e-01 7.488665982052730187e-03
1.865796813775327564e+03 4.972002085841841779e-01 6.571026628086924261e-03
1.867662610589103451e+03 4.915574582300881179e-01 5.900961903817543951e-03
1.869530273199693056e+03 4.882775359545630800e-01 5.687831217980316052e-03
1.871399803472893382e+03 4.865889087086426312e-01 5.435571475142102899e-03
1.873271203276367032e+03 4.862457541798302918e-01 5.154713208234225005e-03
1.875144474479644032e+03 4.874368311578693436e-01 4.913258445268685846e-03
1.877019618954124098e+03 4.896677556064275016e-01 4.669590359559792035e-03
1.878896638573078917e+03 4.960689910087852095e-01 5.011397956810149240e-03
1.880775535211652596e+03 5.046312273680461091e-01 5.686701212533561665e-03
1.882656310746864847e+03 5.137376961956594545e-01 6.186701668640142565e-03
1.884538967057612354e+03 5.245509281947634550e-01 6.338855573075504596e-03
1.886423506024670587e+03 5.363534821033955069e-01 5.990622632725128502e-03
1.888309929530695854e+03 5.478642605992507519e-01 6.496324413828876050e-03
1.890198239460227342e+03 5.570032405217059113e-01 6.460325282210205994e-03
1.892088437699688029e+03 5.664808989462530864e-01 6.256587214661459700e-03
1.893980526137388324e+03 5.755132092832221380e-01 5.546236840806897592e-03
1.895874506663526518e+03 5.825489503832962379e-01 4.593150376240634838e-03
1.897770381170190603e+03 5.848175519439832160e-01 4.413460779526787864e-03
1.899668151551361461e+03 5.837506302833811445e-01 4.826495684472117964e-03
1.901567819702913312e+03 5.819629784454101173e-01 4.862559216321098859e-03
1.903469387522616898e+03 5.770351315528734482e-01 5.005334635905185452e-03
1.905372856910140172e+03 5.708579285579362672e-01 5.046979030657427166e-03
1.907278229767051016e+03 5.617239705187739851e-01 5.271257785709370508e-03
1.909185507996818615e+03 5.507006047851897845e-01 5.342575105239969098e-03
1.911094693504816178e+03 5.382889610619474574e-01 5.019079202618036140e-03
1.913005788198321625e+03 5.248567262541055101e-01 4.395981672465956377e-03
1.914918793986520541e+03 5.105568313371493527e-01 4.006961220355416929e-03
1.916833712780507540e+03 4.960082825267185802e-01 3.486830892099160827e-03
1.918750546493288766e+03 4.802406230315092173e-01 3.379016215998196203e-03
1.920669297039782805e+03 4.643488307028871276e-01 3.241674686702280487e-03
1.922589966336823181e+03 4.485056324528838845e-01 3.188134430781932281e-03
1.924512556303160636e+03 4.329637786979341763e-01 3.113580883270878220e-03
1.926437068859464262e+03 4.175980585706049464e-01 3.072548647735200145e-03
1.928363505928324457e+03 4.038249007890554187e-01 2.993740944078904405e-03
1.930291869434253385e+03 3.900190835342290385e-01 2.941078941133464311e-03
1.932222161303688381e+03 3.783735966242727233e-01 2.919998535263616454e-03
1.934154383464992634e+03 3.683070194129902108e-01 2.982981346182363158e-03
1.936088537848458373e+03 3.595411260352266436e-01 2.780494546946159912e-03
1.938024626386307318e+03 3.515250556659182957e-01 2.680204907314169809e-03
1.939962651012694323e+03 3.442810902814040785e-01 2.714682610738427225e-03
1.941902613663707598e+03 3.383536141228805083e-01 2.914013084423532421e-03
1.943844516277372122e+03 3.338241775469474870e-01 3.084570468827925287e-03
1.945788360793650099e+03 3.316282117124025319e-01 2.946011135906946403e-03
1.947734149154444367e+03 3.305390162966109768e-01 2.566307151081629288e-03
1.949681883303599307e+03 3.333758442264361799e-01 2.570120881382918863e-03
1.951631565186903572e+03 3.381811407801840197e-01 2.587144146707457803e-03
1.953583196752091226e+03 3.461120752853270033e-01 3.138755761457696393e-03
1.955536779948844014e+03 3.548392813929618361e-01 3.233226017315481583e-03
1.957492316728793412e+03 3.660013950763513768e-01 3.438931252468085172e-03
1.959449809045522898e+03 3.779575801132871171e-01 3.313674879856005721e-03
1.961409258854569089e+03 3.923078403193068775e-01 3.547425399286639660e-03
1.963370668113424244e+03 4.079236689477254707e-01 3.325747848122140218e-03
1.965334038781538311e+03 4.238526499187116325e-01 3.213462375057576838e-03
1.967299372820320514e+03 4.403289665155404320e-01 3.340701102772181998e-03
1.969266672193141403e+03 4.573960530968129712e-01 3.436982572613148622e-03
1.971235938865335356e+03 4.765147267437998546e-01 3.460531525604427366e-03
1.973207174804201259e+03 4.967113684215329616e-01 3.499135611096124230e-03
1.975180381979006143e+03 5.178119874114115451e-01 3.513678610876336175e-03
1.977155562360985869e+03 5.396840737897845575e-01 3.530002268154651662e-03
1.979132717923347400e+03 5.625173008696663368e-01 3.567961755245390235e-03
1.981111850641271531e+03 5.865672844348791548e-01 3.744111893916161199e-03
1.983092962491913340e+03 6.103597409019914100e-01 3.742552799016352766e-03
1.985076055454405832e+03 6.343386137067531516e-01 3.751287538352367744e-03
1.987061131509861070e+03 6.590299365791444375e-01 3.739021834702900039e-03
1.989048192641371543e+03 6.836005076367002165e-01 3.658734827933677203e-03
1.991037240834013573e+03 7.083920101041846218e-01 3.630922436155652796e-03
1.993028278074848231e+03 7.325301336578204925e-01 3.602592947677902245e-03
1.995021306352923602e+03 7.581032910429092997e-01 3.689405453068941940e-03
1.997016327659277295e+03 7.832861768786675283e-01 3.680267570673448688e-03
1.999013343986937116e+03 8.096514008948096919e-01 3.658507692038658662e-03
2.001012357330924715e+03 8.367642378152021498e-01 3.599034161281117455e-03
2.003013369688256489e+03 8.654266967417091339e-01 3.406635420832646814e-03
2.005016383057945404e+03 8.941439699958048104e-01 3.234130711021917549e-03
2.007021399441003950e+03 9.214919236977157091e-01 3.233950426234134118e-03
2.009028420840445506e+03 9.486985212383506338e-01 3.206322265883938729e-03
2.011037449261286611e+03 9.759398962425651636e-01 3.019310275260927642e-03
2.013048486710548559e+03 1.003754142405782757e+00 2.984928714355009581e-03
2.015061535197259900e+03 1.031322668144860621e+00 3.087014261038245611e-03
2.017076596732457801e+03 1.058698911791425168e+00 3.296684599820189857e-03
2.019093673329191006e+03 1.084044317931577961e+00 3.239521140293072712e-03
2.021112767002520741e+03 1.109358989612152069e+00 3.235381797897460623e-03
2.023133879769523901e+03 1.134470020411713742e+00 3.297344408737471616e-03
2.025157013649294186e+03 1.158502331279363862e+00 2.938110953224739880e-03
2.027182170662944145e+03 1.181016939945549682e+00 2.591241242797715730e-03
2.029209352833607682e+03 1.200881291272589912e+00 2.490103774303745274e-03
2.031238562186442095e+03 1.219120722110681676e+00 2.216214049832662507e-03
2.033269800748629223e+03 1.234429496747318167e+00 2.711653967582720176e-03
2.035303070549378390e+03 1.248420563343571210e+00 2.817836513638018615e-03
2.037338373619928461e+03 1.261396699820546807e+00 2.759810131916376388e-03
2.039375711993548975e+03 1.273730391258728556e+00 2.638066491363197201e-03
2.041415087705543328e+03 1.284677958784130825e+00 2.541583705494669665e-03
2.043456502793249456e+03 1.293970892240133619e+00 2.328353191240287948e-03
2.045499959296043471e+03 1.303325052469594292e+00 2.234660771524263605e-03
2.047545459255340120e+03 1.312517026414405708e+00 2.152294094351171316e-03
2.049593004714596191e+03 1.322336169684376284e+00 2.281545016206434906e-03
2.051642597719311652e+03 1.330803372727426215e+00 2.279678265864071036e-03
2.053694240317031472e+03 1.338082880970801858e+00 2.367298500310664744e-03
2.055747934557349254e+03 1.346829587864824651e+00 2.332300548974312882e-03
2.057803682491907239e+03 1.356297293619207922e+00 2.324284804735241797e-03
2.059861486174399943e+03 1.366253536756194542e+00 2.324525058584556072e-03
2.061921347660575066e+03 1.376140272504680517e+00 2.427511906398836013e-03
2.063983269008236221e+03 1.386841585489084760e+00 2.453895240380591074e-03
2.066047252277245207e+03 1.398994106659307235e+00 2.459844706352783215e-03
2.068113299529522919e+03 1.411997821328110803e+00 2.499521369686900224e-03
2.070181412829052988e+03 1.426281659052350381e+00 2.528233650754004459e-03
2.072251594241882685e+03 1.441060735790244962e+00 2.625788106423652003e-03
2.074323845836125656e+03 1.456687099464046620e+00 2.600746729583193907e-03
2.076398169681962372e+03 1.473316118618009707e+00 2.434434053230081444e-03
2.078474567851645133e+03 1.490225975058123487e+00 2.422266166701947561e-03
2.080553042419497160e+03 1.509516998921147435e+00 2.961745565633074236e-03
2.082633595461917594e+03 1.530171156151953094e+00 3.888843114890238716e-03
2.084716229057380133e+03 1.549744699712140683e+00 4.231584360749999357e-03
2.086800945286438036e+03 1.568236051639379625e+00 4.306142823016907012e-03
2.088887746231725032e+03 1.585545227270298785e+00 4.434441104246359712e-03
2.090976633977957590e+03 1.603212445449584411e+00 4.345146571527703887e-03
2.093067610611936288e+03 1.618217811833910336e+00 3.671897950379985134e-03
2.095160678222548995e+03 1.630256307525664861e+00 3.198326148243955339e-03
2.097255838900772233e+03 1.640266298789285759e+00 2.825847633305988635e-03
2.099353094739673452e+03 1.646594222168352495e+00 2.850651162177778638e-03
2.101452447834414215e+03 1.649436999935711246e+00 3.162998475365097744e-03
2.103553900282249288e+03 1.650214593123920936e+00 3.204917969371315692e-03
2.105657454182532092e+03 1.648465602810370800e+00 3.406636644474995718e-03
2.107763111636715166e+03 1.643453690634005815e+00 3.721770352422437700e-03
2.109870874748352890e+03 1.637039462188312644e+00 3.576085490750166313e-03
2.111980745623101939e+03 1.629859977529068971e+00 3.105445521049012177e-03
2.114092726368725380e+03 1.622830962009245814e+00 2.809039127979771032e-03
2.116206819095094943e+03 1.615164892150426690e+00 2.646466872274085957e-03
2.118323025914190566e+03 1.607519843679420690e+00 2.666943363899183100e-03
2.120441348940105854e+03 1.598565780159237226e+00 2.470311265334704503e-03
2.122561790289046257e+03 1.589420162065640074e+00 2.492466513769968448e-03
2.124684352079336350e+03 1.580828834593550614e+00 2.528955308655582695e-03
2.126809036431416189e+03 1.571057579918354152e+00 2.428352127563183915e-03
2.128935845467848594e+03 1.560506588831337860e+00 2.313754256547063005e-03
2.131064781313316871e+03 1.549401905922052514e+00 2.254581926730033718e-03
2.133195846094631179e+03 1.538977617885841420e+00 2.073192457774809556e-03
2.135329041940726256e+03 1.527787634414097484e+00 1.884953254727093344e-03
2.137464370982667788e+03 1.515296553504760668e+00 1.872286343456731287e-03
2.139601835353651040e+03 1.501983296160208647e+00 1.857714252760857710e-03
2.141741437189005410e+03 1.487556746954148634e+00 1.789014824691842172e-03
2.143883178626195331e+03 1.472865819575051249e+00 1.970386684772713979e-03
2.146027061804822097e+03 1.457343061559619013e+00 2.233549131710139361e-03
2.148173088866627495e+03 1.440756338967895456e+00 2.481814999478776807e-03
2.150321261955494720e+03 1.422883329025716570e+00 2.776498149291890989e-03
2.152471583217451098e+03 1.402117397061267479e+00 2.886637489963300891e-03
2.154624054800669455e+03 1.379279152070062242e+00 2.900506996230393063e-03
2.156778678855470844e+03 1.355010676082508025e+00 2.798521512501135709e-03
2.158935457534326815e+03 1.328806726501659652e+00 2.562881086257807247e-03
2.161094392991861696e+03 1.300549121087003490e+00 2.610312007115511788e-03
2.163255487384854405e+03 1.270040020109671319e+00 2.924374143603723948e-03
2.165418742872240273e+03 1.239196495195901804e+00 3.034777710097230369e-03
2.167584161615112862e+03 1.206968012220315689e+00 3.312418275912189930e-03
2.169751745776728967e+03 1.174189177973591569e+00 3.716113029055834616e-03
2.171921497522506343e+03 1.141536298036471830e+00 4.230388717900901777e-03
2.174093419020029614e+03 1.108828552183921401e+00 4.498456802621479331e-03
2.176267512439050279e+03 1.077344157399127811e+00 4.301099493492614029e-03
2.178443779951489887e+03 1.048736356734922825e+00 3.801903653060289580e-03
2.180622223731442318e+03 1.024076915611510818e+00 3.159180610530931514e-03
2.182802845955174234e+03 1.003594153791599330e+00 2.688710083847725175e-03
2.184985648801130083e+03 9.872734185017942865e-01 2.323741212462666211e-03
2.187170634449932095e+03 9.757918873386184355e-01 2.511443453929567467e-03
2.189357805084383017e+03 9.705410365095904490e-01 2.978234349418521637e-03
2.191547162889467927e+03 9.702124879231603938e-01 3.296581278009213124e-03
2.193738710052358329e+03 9.732643566120022793e-01 3.444413650465624407e-03
2.195932448762411241e+03 9.789888170073213214e-01 3.205493510808709798e-03
2.198128381211174201e+03 9.879417536839144587e-01 2.824544095760187119e-03
2.200326509592386174e+03 1.000238727831182617e+00 2.138613966225487353e-03
2.202526836101979370e+03 1.014987518237230768e+00 1.940826860029915869e-03
2.204729362938081977e+03 1.031746833125347207e+00 1.895923085591385854e-03
2.206934092301020883e+03 1.050277194949950976e+00 1.869711977260892248e-03
2.209141026393322591e+03 1.070826503338043079e+00 1.979792214725410379e-03
2.211350167419716854e+03 1.093087625760123416e+00 2.229586513976483317e-03
2.213561517587137132e+03 1.115943638327657750e+00 2.458487343525976414e-03
2.215775079104725137e+03 1.138316080192469881e+00 2.401947020988418231e-03
2.217990854183830379e+03 1.160513548684263485e+00 2.296728583405450302e-03
2.220208845038015170e+03 1.182344739169644221e+00 2.246636661699806699e-03
2.222429053883053712e+03 1.203405125022888100e+00 2.230454726117148817e-03
2.224651482936937555e+03 1.223992930941329993e+00 2.270104849940131515e-03
2.226876134419875143e+03 1.243919437574002362e+00 2.379885766593735526e-03
2.229103010554295906e+03 1.263454348643885172e+00 2.382411770312696520e-03
2.231332113564850715e+03 1.283269270648657256e+00 2.404657671780780458e-03
2.233563445678416429e+03 1.303002285695730178e+00 2.401709239595755264e-03
2.235797009124095439e+03 1.322463265347585848e+00 2.357236973754926485e-03
2.238032806133220220e+03 1.341066414467759094e+00 2.337104927555114751e-03
2.240270838939354235e+03 1.359532438178739255e+00 2.211680673455599169e-03
2.242511109778294667e+03 1.378730017550778841e+00 2.039779533827462514e-03
2.244753620888073328e+03 1.398347519173414266e+00 1.851582063262216266e-03
2.246998374508962115e+03 1.418986265281342307e+00 1.837135128516059063e-03
2.249245372883472101e+03 1.440212046108100274e+00 1.906474565401491484e-03
2.251494618256356262e+03 1.462212899738364325e+00 2.107091230348049835e-03
2.253746112874613573e+03 1.484823615384263551e+00 2.144951201758468415e-03
2.255999858987488551e+03 1.508247867002127762e+00 1.909219421555667304e-03
2.258255858846477167e+03 1.532236974702512411e+00 1.496643569527178214e-03
2.260514114705324118e+03 1.555609195205858164e+00 1.169251486186012731e-03
2.262774628820030102e+03 1.578216061472768272e+00 1.278768502354578514e-03
2.265037403448850910e+03 1.600257102207023996e+00 1.822205895515321321e-03
2.267302440852300606e+03 1.621738005743538658e+00 2.294094894303625939e-03
2.269569743293153806e+03 1.644558421570221141e+00 2.137730351046943263e-03
2.271839313036447493e+03 1.668195246797335551e+00 2.013158066865753087e-03
2.274111152349484655e+03 1.692840297247232950e+00 2.185869105803372146e-03
2.276385263501835198e+03 1.717491551242668502e+00 2.221262321827514614e-03
2.278661648765337759e+03 1.742718948684328417e+00 2.331994232629609146e-03
2.280940310414103806e+03 1.767741735698860284e+00 2.433496610868750819e-03
2.283221250724518541e+03 1.792572872999913525e+00 2.438825987763528023e-03
2.285504471975243632e+03 1.817461167865843885e+00 2.426703376836730330e-03
2.287789976447219942e+03 1.842069301280678584e+00 2.449773040955440136e-03
2.290077766423667981e+03 1.866917402219905764e+00 2.487237225244175523e-03
2.292367844190092001e+03 1.891076571721122868e+00 2.508549784689693540e-03
2.294660212034283177e+03 1.915022751811347623e+00 2.523929294294643185e-03
2.296954872246318246e+03 1.938854082587233352e+00 2.518581267767182764e-03
2.299251827118564961e+03 1.962194439706792748e+00 2.502229455077913198e-03
2.301551078945684367e+03 1.984278541926133954e+00 2.539671427938734218e-03
2.303852630024630798e+03 2.004468735084176778e+00 2.448981837186334394e-03
2.306156482654656429e+03 2.024330365163232504e+00 2.275261799375274084e-03
2.308462639137311726e+03 2.044577751840558122e+00 2.478563802303959413e-03
2.310771101776449996e+03 2.063607194553725321e+00 2.534044067403715041e-03
2.313081872878226932e+03 2.081491001718565936e+00 2.538407171287036974e-03
2.315394954751106070e+03 2.098788114589123399e+00 2.518439955273658708e-03
2.317710349705857880e+03 2.115024505087450546e+00 2.542397192111249711e-03
2.320028060055564310e+03 2.130893102161436570e+00 2.500982029513730553e-03
2.322348088115621067e+03 2.146642587311292427e+00 2.342032062233457505e-03
2.324670436203737154e+03 2.160776115345047543e+00 2.334955637182362532e-03
2.326995106639941696e+03 2.173503516976633243e+00 2.394642033311660933e-03
2.329322101746582575e+03 2.184061580685095816e+00 1.981788986179023812e-03
2.331651423848329614e+03 2.193753943520189154e+00 1.688064042183765132e-03
2.333983075272179121e+03 2.203121812268512336e+00 1.674562750935658156e-03
2.336317058347452075e+03 2.211779270120564522e+00 1.679597515502668018e-03
2.338653375405800034e+03 2.218981420236949553e+00 1.632777417594981134e-03
2.340992028781206500e+03 2.224959756366529984e+00 1.669580907762484908e-03
2.343333020809988739e+03 2.229570986230557939e+00 1.516554736855360401e-03
2.345676353830799599e+03 2.232456844211378577e+00 1.477863509652868569e-03
2.348022030184631149e+03 2.233796343799033135e+00 1.495242397631658428e-03
2.350370052214816496e+03 2.233795627465874123e+00 1.457799319650694009e-03
2.352720422267032063e+03 2.232188602693740975e+00 1.387472255100127274e-03
2.355073142689299857e+03 2.228019403104857687e+00 1.346881934657622208e-03
2.357428215831989746e+03 2.222331239413416260e+00 1.401556607473133410e-03
2.359785644047822643e+03 2.214515828389761687e+00 1.372861237630837710e-03
2.362145429691871414e+03 2.204021778170047519e+00 1.369157095437316873e-03
2.364507575121564059e+03 2.191279346299971564e+00 1.350213572996249254e-03
2.366872082696686448e+03 2.176388558825389730e+00 1.359241518840429135e-03
2.369238954779383675e+03 2.160258765294427175e+00 1.422902120612549656e-03
2.371608193734163706e+03 2.143296197092421806e+00 1.334064147112258396e-03
2.373979801927898734e+03 2.124628374410400866e+00 1.328017127334577474e-03
2.376353781729827460e+03 2.104690282881456209e+00 1.264802268265120171e-03
2.378730135511558274e+03 2.083308799738776695e+00 1.227047461756987671e-03
2.381108865647070616e+03 2.060580384747147775e+00 1.162649391034479510e-03
2.383489974512718163e+03 2.037825221307569823e+00 1.037840421008809789e-03
2.385873464487232013e+03 2.015621618221264733e+00 1.232507068680916513e-03
2.388259337951719772e+03 1.993012447463461623e+00 1.393738296246713844e-03
2.390647597289672376e+03 1.970549214505891156e+00 1.692192552631741715e-03
2.393038244886962730e+03 1.947321151205312351e+00 1.662106143023988269e-03
2.395431283131850705e+03 1.923303710577600523e+00 1.613131199795738834e-03
2.397826714414983144e+03 1.899642287774875538e+00 1.461406531373777391e-03
2.400224541129398858e+03 1.875234361775338643e+00 1.478021779136607381e-03
2.402624765670529086e+03 1.851368343740241507e+00 1.397127488048568967e-03
2.405027390436200676e+03 1.826548133960226084e+00 1.485895980882227753e-03
2.407432417826637447e+03 1.802510042104420229e+00 1.516255977802825460e-03
