# starting wavelength: 2893.650
# ending wavelength: 8069.200
# wav flux eflux
2.896399327654986337e+03 6.286959129380371714e-01 3.328498678672879574e-02
2.899295726982642009e+03 5.844776451580031562e-01 2.483803346908651510e-02
2.902195022709625846e+03 5.687526297754327276e-01 1.858827667160357217e-02
2.905097217732336503e+03 5.785749673139868321e-01 1.422281547396549162e-02
2.908002314950069831e+03 6.103035990759524410e-01 1.304114165027840840e-02
2.910910317265020694e+03 6.560885801948341811e-01 1.423740889391435574e-02
2.913821227582286610e+03 7.055488327754937394e-01 1.189151600780125571e-02
2.916735048809870023e+03 7.598210311971866915e-01 9.828255204456114516e-03
2.919651783858680574e+03 8.178815408459239045e-01 8.706325887826734874e-03
2.922571435642540564e+03 8.761539716581460135e-01 8.461314521926534271e-03
2.925494007078184040e+03 9.328598678509661957e-01 8.159074324843198014e-03
2.928419501085263164e+03 9.868514683547643385e-01 8.118639760690804161e-03
2.931347920586349119e+03 1.040868130502983213e+00 7.428589146357358723e-03
2.934279268506936660e+03 1.088564352529180601e+00 7.688191934428790890e-03
2.937213547775444567e+03 1.133107271600998223e+00 7.847811519951626569e-03
2.940150761323221104e+03 1.174205407919748811e+00 8.093844996587764781e-03
2.943090912084544925e+03 1.212818653449672990e+00 8.198840286364070251e-03
2.946034002996630534e+03 1.248754228312588310e+00 8.298513431855945519e-03
2.948980036999628283e+03 1.281172412584475673e+00 7.784511427962438959e-03
2.951929017036628920e+03 1.311094848961920967e+00 7.174986632837225715e-03
2.954880946053666321e+03 1.337555924335314339e+00 6.159346186158320101e-03
2.957835826999721121e+03 1.362045924866306379e+00 5.792638034316601771e-03
2.960793662826721629e+03 1.382820398448235011e+00 5.482157818362413948e-03
2.963754456489549284e+03 1.400208931637683119e+00 5.356295647330732053e-03
2.966718210946040017e+03 1.413784333883269184e+00 5.283950912881034585e-03
2.969684929156986982e+03 1.425560130919764967e+00 5.288043193859737374e-03
2.972654614086145102e+03 1.436193927343320631e+00 5.393016087388285452e-03
2.975627268700231980e+03 1.444177230939266199e+00 5.262538729742180510e-03
2.978602895968933353e+03 1.449210594155580845e+00 4.747232007348783575e-03
2.981581498864903097e+03 1.450310144255959832e+00 4.277437992575238400e-03
2.984563080363769132e+03 1.447953124133571468e+00 4.277720678015383901e-03
2.987547643444133882e+03 1.441784734668705825e+00 4.317868043628393313e-03
2.990535191087578823e+03 1.432328748573287847e+00 4.660156212496570187e-03
2.993525726278667662e+03 1.418656596924006807e+00 5.407642844032440992e-03
2.996519252004947248e+03 1.401527972357269336e+00 6.182652508675115337e-03
2.999515771256953030e+03 1.382943964334544029e+00 6.417272887614850450e-03
3.002515287028211333e+03 1.364378104722545615e+00 6.415327742857150975e-03
3.005517802315240260e+03 1.345842063036675640e+00 6.415681392813188562e-03
3.008523320117556523e+03 1.325014889891216185e+00 5.988283571305510339e-03
3.011531843437674979e+03 1.306226833565742318e+00 5.788289867646309247e-03
3.014543375281113640e+03 1.287054897556277666e+00 5.740748386202370809e-03
3.017557918656395941e+03 1.268766475041211317e+00 6.591296562125590827e-03
3.020575476575053472e+03 1.252708918716298303e+00 7.330585635465552280e-03
3.023596052051629158e+03 1.236565643235077117e+00 7.597717496776396420e-03
3.026619648103681811e+03 1.218751955844997070e+00 7.703764717703714265e-03
3.029646267751786581e+03 1.199565662758335094e+00 7.447986720211278826e-03
3.032675914019539505e+03 1.180069190610141261e+00 6.906742079870675614e-03
3.035708589933559779e+03 1.158383685461535917e+00 6.347832225971316612e-03
3.038744298523494763e+03 1.133583326604495234e+00 5.904316289952811492e-03
3.041783042822019070e+03 1.105777839536062013e+00 5.581334832521780975e-03
3.044824825864842296e+03 1.074233146234731873e+00 6.121597804142877609e-03
3.047869650690708113e+03 1.040796329998889602e+00 6.786206478675879672e-03
3.050917520341399722e+03 1.005861057757822641e+00 7.275506673143040601e-03
3.053968437861742132e+03 9.698852547156838755e-01 8.084721790447640943e-03
3.057022406299604881e+03 9.329050670111229682e-01 9.047023413827296606e-03
3.060079428705905229e+03 8.975464659710140625e-01 9.142395529849888999e-03
3.063139508134612242e+03 8.635068017053608713e-01 8.652886411650012946e-03
3.066202647642748161e+03 8.325672971011364165e-01 7.216516061402498614e-03
3.069268850290391583e+03 8.067443582107690636e-01 4.484082318654572692e-03
3.072338119140682920e+03 7.902777223110312166e-01 4.118912768290400664e-03
3.075410457259824852e+03 7.816627254671019154e-01 5.263103331110306586e-03
3.078485867717085512e+03 7.792758330208886530e-01 6.368800928577084998e-03
3.081564353584803939e+03 7.824739050463560552e-01 6.857005062808566725e-03
3.084645917938389630e+03 7.888734121002758393e-01 6.441740596690496111e-03
3.087730563856328899e+03 8.002102602863377934e-01 5.833543405703880275e-03
3.090818294420186248e+03 8.156893943904215405e-01 5.466219356698364014e-03
3.093909112714607545e+03 8.351263768473825566e-01 5.219294465396246037e-03
3.097003021827323209e+03 8.559535658493540033e-01 5.047172286253356031e-03
3.100100024849151396e+03 8.786119999504854450e-01 4.897039930330905795e-03
3.103200124874001631e+03 9.029484092921186145e-01 4.823668704089767098e-03
3.106303324998876633e+03 9.275876392369339918e-01 4.854024015830651212e-03
3.109409628323876859e+03 9.540320813226969010e-01 4.965733020733084473e-03
3.112519037952201415e+03 9.829688516085480776e-01 5.978504290097936928e-03
3.115631556990154877e+03 1.011786368301591077e+00 7.487732351788093862e-03
3.118747188547145925e+03 1.037589218354591170e+00 8.769521093868231504e-03
3.121865935735694165e+03 1.057707283860690683e+00 9.018265477370482688e-03
3.124987801671431043e+03 1.071690288634706612e+00 8.837735742821848511e-03
3.128112789473103476e+03 1.081410181577541874e+00 8.542512410809109322e-03
3.131240902262577492e+03 1.086427900637531252e+00 7.952252052403439159e-03
3.134372143164840963e+03 1.083670830673077790e+00 8.510671313110293804e-03
3.137506515308006783e+03 1.074711594575928686e+00 9.784975172184018355e-03
3.140644021823316052e+03 1.062723792158324354e+00 1.072639410361897645e-02
3.143784665845140353e+03 1.053672953523455913e+00 1.105274685740932974e-02
3.146928450510986750e+03 1.037802664492139870e+00 1.162772760782339321e-02
3.150075378961498700e+03 1.021120866399554128e+00 1.134690455850373252e-02
3.153225454340461056e+03 1.005380813374417315e+00 1.056078476908764961e-02
3.156378679794802792e+03 9.907143796007994441e-01 9.491166660542315822e-03
3.159535058474598372e+03 9.748852981039914933e-01 7.281151986264157612e-03
3.162694593533074112e+03 9.664475584065345126e-01 7.026733685712562537e-03
3.165857288126608182e+03 9.622870153037245133e-01 7.032144677711153410e-03
3.169023145414736064e+03 9.631896321645094794e-01 7.048473717350700087e-03
3.172192168560151458e+03 9.699327076574530970e-01 7.062632002394353924e-03
3.175364360728712654e+03 9.797766643877323656e-01 6.705259013474207733e-03
3.178539725089442527e+03 9.915330573813254667e-01 6.311897939384735270e-03
3.181718264814533086e+03 1.005621541392106799e+00 5.324519017455859454e-03
3.184899983079348658e+03 1.021351171873949637e+00 4.271139635512172586e-03
3.188084883062429071e+03 1.037513173371838349e+00 4.148606777887203431e-03
3.191272967945492383e+03 1.054548921991812049e+00 4.077727373343249286e-03
3.194464240913438971e+03 1.070246741731970763e+00 4.016534095414368670e-03
3.197658705154353811e+03 1.084898516933318069e+00 3.346995379665508846e-03
3.200856363859509202e+03 1.099462542773056439e+00 3.208765217969454259e-03
3.204057220223369768e+03 1.114568849417495677e+00 3.465032485501960517e-03
3.207261277443593826e+03 1.127964148274650302e+00 3.347411735393439076e-03
3.210468538721038840e+03 1.140352901706846112e+00 3.203533039215933180e-03
3.213679007259760965e+03 1.149554404563910115e+00 3.055526526752450067e-03
3.216892686267021418e+03 1.156565281588378236e+00 2.800749760542351266e-03
3.220109578953289656e+03 1.162110872382668525e+00 2.647498982743654115e-03
3.223329688532243836e+03 1.163825096116674063e+00 2.561177510450401984e-03
3.226553018220777176e+03 1.161997107428634823e+00 2.714674924498384784e-03
3.229779571238999324e+03 1.158385918930895375e+00 2.691613651019646430e-03
3.233009350810239084e+03 1.153484163842831700e+00 2.456068769893778123e-03
3.236242360161050783e+03 1.147988006732250543e+00 2.353664850664246612e-03
3.239478602521212906e+03 1.142735013731003502e+00 2.656606249267874729e-03
3.242718081123734919e+03 1.136216503396769717e+00 2.912004237157345566e-03
3.245960799204859995e+03 1.127529959553719152e+00 2.892830520326757256e-03
3.249206760004065927e+03 1.117770257379304244e+00 3.014281360586027782e-03
3.252455966764071036e+03 1.106877710042780016e+00 3.025767736920614761e-03
3.255708422730835991e+03 1.096331571157258766e+00 3.155136621948498137e-03
3.258964131153567905e+03 1.087356492028172195e+00 2.990535261987248630e-03
3.262223095284722604e+03 1.078609731603680233e+00 3.069478001589182829e-03
3.265485318380008266e+03 1.068648128297956967e+00 3.072942969603721479e-03
3.268750803698389518e+03 1.059209652504056187e+00 2.863803337699518357e-03
3.272019554502088795e+03 1.052157358842007673e+00 2.838233238293092625e-03
3.275291574056592253e+03 1.046804334863077113e+00 2.996319968108860764e-03
3.278566865630649772e+03 1.042022064668738590e+00 3.050538760444383452e-03
3.281845432496281319e+03 1.038757617304145286e+00 3.110783563564622264e-03
3.285127277928778767e+03 1.036317729388529285e+00 3.052571364857669268e-03
3.288412405206708627e+03 1.034382167881838122e+00 3.176653229969726190e-03
3.291700817611916591e+03 1.034355896623517346e+00 3.243684387864522768e-03
3.294992518429529355e+03 1.035579709022212525e+00 3.286588770169083466e-03
3.298287510947960072e+03 1.038727794294716178e+00 3.315643518980713501e-03
3.301585798458909267e+03 1.043512428049720553e+00 3.353531410776450488e-03
3.304887384257369376e+03 1.048875123246231666e+00 3.598468208394901661e-03
3.308192271641627485e+03 1.052734327871994058e+00 3.648035586637440441e-03
3.311500463913270323e+03 1.055858967584329511e+00 3.617457720568767986e-03
3.314811964377184722e+03 1.059195427597208639e+00 3.781507821369660145e-03
3.318126776341563072e+03 1.064051011176655681e+00 3.315856614876429992e-03
3.321444903117905596e+03 1.068114399746281862e+00 2.892091655324129009e-03
3.324766348021024896e+03 1.070233101114987484e+00 2.879904170983284360e-03
3.328091114369046863e+03 1.070584944533326643e+00 2.988751825584067684e-03
3.331419205483417045e+03 1.069418364176754288e+00 3.018631829397053559e-03
3.334750624688901553e+03 1.067958397071751220e+00 3.053049160547376562e-03
3.338085375313591612e+03 1.065391484570997527e+00 3.068241535189267667e-03
3.341423460688906289e+03 1.061790104583997030e+00 2.433645994982043276e-03
3.344764884149596128e+03 1.059229059553572272e+00 2.057778440515775024e-03
3.348109649033746791e+03 1.058874469185231648e+00 2.266628083325259585e-03
3.351457758682781787e+03 1.058681035703969764e+00 2.320322643711153487e-03
3.354809216441465651e+03 1.059948020831352311e+00 2.134518761546101533e-03
3.358164025657908041e+03 1.061612010762665870e+00 1.929016966066481563e-03
3.361522189683567376e+03 1.063092595061998935e+00 2.149429514966792309e-03
3.364883711873251741e+03 1.064034415780440002e+00 1.898029517420095564e-03
3.368248595585126168e+03 1.067140202555448614e+00 1.767738120083314855e-03
3.371616844180712633e+03 1.072065526362674159e+00 2.110539216843269721e-03
3.374988461024894150e+03 1.077232237869524711e+00 1.804151354198887600e-03
3.378363449485920228e+03 1.082306877560764491e+00 1.740973601075444452e-03
3.381741812935407324e+03 1.086375558335596958e+00 1.812406078745711470e-03
3.385123554748343849e+03 1.090225932368737771e+00 2.016291484329296637e-03
3.388508678303093347e+03 1.095332975871896819e+00 2.012341138191537163e-03
3.391897186981397681e+03 1.101634714837137707e+00 2.831979322583513380e-03
3.395289084168380214e+03 1.106729457375460912e+00 3.459044445634846393e-03
3.398684373252549449e+03 1.108857860039875298e+00 3.579782436232773098e-03
3.402083057625803121e+03 1.106887677703115358e+00 3.345900239053782588e-03
3.405485140683430018e+03 1.101982019674467184e+00 3.379465050115844534e-03
3.408890625824114522e+03 1.092535971416840779e+00 3.576836056539926725e-03
3.412299516449939802e+03 1.080627738671701366e+00 3.789225666023772823e-03
3.415711815966390986e+03 1.067079355624558357e+00 4.145231759621841212e-03
3.419127527782358356e+03 1.052622230031134531e+00 4.723212978755410123e-03
3.422546655310141887e+03 1.038858501470061979e+00 4.612832456898622972e-03
3.425969201965453522e+03 1.026827637194732246e+00 3.714087913925196837e-03
3.429395171167419903e+03 1.018034481250322365e+00 3.044704348334216146e-03
3.432824566338588284e+03 1.013241817551385759e+00 3.265160833686283227e-03
3.436257390904928343e+03 1.012214310237872672e+00 3.505812514873946507e-03
3.439693648295834464e+03 1.014564410827673901e+00 3.467467327282616057e-03
3.443133341944131189e+03 1.017288733872939277e+00 3.007598012478233506e-03
3.446576475286076402e+03 1.018767249375814865e+00 1.616755813652447603e-03
3.450023051761363604e+03 1.016969003979642183e+00 1.294590546329857199e-03
3.453473074813126004e+03 1.011802055968825220e+00 1.578698539905797277e-03
3.456926547887940615e+03 1.004571069460149069e+00 1.763103705812123613e-03
3.460383474435829612e+03 9.964267197454759195e-01 1.892965727415916490e-03
3.463843857910266706e+03 9.873007231479936641e-01 1.898701549800927476e-03
3.467307701768178049e+03 9.782376807170112265e-01 1.639692096084566404e-03
3.470775009469947236e+03 9.705257516557787012e-01 1.631571505344967974e-03
3.474245784479418489e+03 9.636425034264781697e-01 2.138963513116874313e-03
3.477720030263898934e+03 9.569845907600547097e-01 2.067776600490370872e-03
3.481197750294164052e+03 9.503431039420449089e-01 1.867198821075331024e-03
3.484678948044459503e+03 9.437305286077605215e-01 1.912939643248703653e-03
3.488163626992504760e+03 9.380333121170093547e-01 2.128259460119173632e-03
3.491651790619498570e+03 9.334236225886279881e-01 2.526121242471772357e-03
3.495143442410119405e+03 9.310411816640311589e-01 2.446356443241039583e-03
3.498638585852530468e+03 9.314001522737942462e-01 2.335199119501920120e-03
3.502137224438384237e+03 9.333563587775780546e-01 2.262642768376112341e-03
3.505639361662823831e+03 9.376320625376037832e-01 2.376768326557732267e-03
3.509145001024487556e+03 9.436618008278938596e-01 2.353611979351250948e-03
3.512654146025513455e+03 9.509661944582472604e-01 2.223675138120682470e-03
3.516166800171540217e+03 9.595201749623880616e-01 2.049698252285670191e-03
3.519682966971712631e+03 9.685656543387941575e-01 1.806403211224606861e-03
3.523202649938685681e+03 9.772483111916969722e-01 1.701525062305158167e-03
3.526725852588625457e+03 9.854113713686997178e-01 1.694013453825718831e-03
3.530252578441215064e+03 9.921543414367295366e-01 1.592069168668524886e-03
3.533782831019657806e+03 9.975288129058365039e-01 1.378837767427724178e-03
3.537316613850678550e+03 1.003342776055089702e+00 1.415099951025278234e-03
3.540853930464530094e+03 1.009394021778220463e+00 1.520929847584643387e-03
3.544394784394995895e+03 1.015836703842455169e+00 1.568969152359425126e-03
3.547939179179392340e+03 1.022997535007507119e+00 1.596576030474864544e-03
3.551487118358572843e+03 1.030575561612934399e+00 1.676071106025634350e-03
3.555038605476932389e+03 1.038519062987891317e+00 1.635222477661749108e-03
3.558593644082410719e+03 1.047168516340995614e+00 1.226316353201605631e-03
3.562152237726494150e+03 1.057230557752696143e+00 1.319731254279733106e-03
3.565714389964221937e+03 1.068725036727306676e+00 1.309211491312857380e-03
3.569280104354187188e+03 1.080471459523368205e+00 1.332828283014249717e-03
3.572849384458542772e+03 1.091702652587030586e+00 1.182953770806705182e-03
3.576422233843002232e+03 1.101535502561376445e+00 1.136712990056653206e-03
3.579998656076846601e+03 1.108839093319320623e+00 1.040733423402018156e-03
3.583578654732924406e+03 1.113540396104166108e+00 1.192998965405335770e-03
3.587162233387658489e+03 1.115559120806944637e+00 1.467201126778327862e-03
3.590749395621047370e+03 1.115440046385282935e+00 1.431892631136440566e-03
3.594340145016669794e+03 1.114370680021018467e+00 1.454060219058699640e-03
3.597934485161687462e+03 1.111817551100009016e+00 1.494827481137223817e-03
3.601532419646850485e+03 1.106955794989255226e+00 1.413067510866430595e-03
3.605133952066498296e+03 1.101222113426349347e+00 1.471275034001200046e-03
3.608739086018566013e+03 1.094638762828249900e+00 1.998756063453582636e-03
3.612347825104585809e+03 1.087100211004439876e+00 1.924855564321816979e-03
3.615960172929691907e+03 1.078434517180338670e+00 2.363162052694415486e-03
3.619576133102622407e+03 1.069205164480178771e+00 2.879770970747362949e-03
3.623195709235726554e+03 1.060325695060100992e+00 3.073346618098563021e-03
3.626818904944963379e+03 1.053012396344604307e+00 3.166677673434804136e-03
3.630445723849909427e+03 1.046626040896092569e+00 3.102031864814238336e-03
3.634076169573760581e+03 1.041206213689597426e+00 3.521799612712051605e-03
3.637710245743335690e+03 1.037098873422158007e+00 4.142971740130633497e-03
3.641347955989080219e+03 1.033642102697224230e+00 4.270937945990224346e-03
3.644989303945070333e+03 1.031693037134643331e+00 3.842447600724127263e-03
3.648634293249016537e+03 1.028941293075351648e+00 3.421430051884749579e-03
3.652282927542266862e+03 1.024430508496017245e+00 3.859959983321998526e-03
3.655935210469810499e+03 1.019508002368605171e+00 4.487630485386551529e-03
3.659591145680281443e+03 1.015086052520854931e+00 4.827647948302589247e-03
3.663250736825963031e+03 1.012095929436889419e+00 4.689575548773944336e-03
3.666913987562790226e+03 1.011021999503752378e+00 4.043068424890228392e-03
3.670580901550354156e+03 1.012547909368106014e+00 3.653321960749435042e-03
3.674251482451905758e+03 1.018956272657478790e+00 4.606074744033549113e-03
3.677925733934358959e+03 1.029731000270325714e+00 4.287009978372742676e-03
3.681603659668294313e+03 1.039607036222052638e+00 3.529391253584072356e-03
3.685285263327964003e+03 1.045955642247050399e+00 2.804550137258509518e-03
3.688970548591293209e+03 1.049597172932077882e+00 2.787798417250015540e-03
3.692659519139885560e+03 1.050229049185531283e+00 3.808991020668544853e-03
3.696352178659026777e+03 1.048239545538784956e+00 4.547918977595208530e-03
3.700048530837686940e+03 1.046804595045261355e+00 4.279288602304857046e-03
3.703748579368525952e+03 1.047811908442104922e+00 3.975079234519316579e-03
3.707452327947895355e+03 1.051024513054387599e+00 3.385785782054045318e-03
3.711159780275844696e+03 1.056712423897779862e+00 3.552686386482209729e-03
3.714870940056121526e+03 1.066243265636212856e+00 4.415288379831729289e-03
3.718585810996179134e+03 1.076907378572788287e+00 4.870488326399172521e-03
3.722304396807176545e+03 1.086542702539706529e+00 4.412775385916522554e-03
3.726026701203984885e+03 1.093103446406228141e+00 3.249671278734975188e-03
3.729752727905190113e+03 1.095122490141765326e+00 2.420434198143750493e-03
3.733482480633096657e+03 1.091765194913158599e+00 2.272390446234778729e-03
3.737215963113731050e+03 1.081949159755274614e+00 2.571470821638494400e-03
3.740953179076846027e+03 1.066839164020489283e+00 3.183116247453427698e-03
3.744694132255923705e+03 1.049065374904355918e+00 2.904882744954856173e-03
3.748438826388181042e+03 1.031752377989855196e+00 2.285148765455764178e-03
3.752187265214570289e+03 1.017151725013722974e+00 2.060967120607094544e-03
3.755939452479786269e+03 1.004175631265413093e+00 1.990835761473889846e-03
3.759695391932267285e+03 9.932806538179507205e-01 2.121461223693906113e-03
3.763455087324201031e+03 9.850158335310228441e-01 2.437196559802558022e-03
3.767218542411526414e+03 9.776324391276528525e-01 2.413488025093014130e-03
3.770985760953939007e+03 9.716448952660672322e-01 2.096844830734987362e-03
