# starting wavelength: 3291.880
# ending wavelength: 8298.220
# wav flux eflux
3.294992518429529355e+03 7.523327476986997331e-01 5.125653624584921436e-02
3.298287510947960072e+03 7.265208609582657351e-01 3.764733111977516117e-02
3.301585798458909267e+03 7.122460031294221006e-01 2.820433768015386325e-02
3.304887384257369376e+03 7.063929072435902734e-01 2.165848836782520784e-02
3.308192271641627485e+03 7.068302809247771767e-01 1.708267802899740909e-02
3.311500463913270323e+03 7.119413085328966107e-01 1.478607384607236522e-02
3.314811964377184722e+03 7.181769084479795451e-01 1.389389906057957209e-02
3.318126776341563072e+03 7.240310323150145333e-01 1.234193790750628267e-02
3.321444903117905596e+03 7.303872966631700381e-01 1.062626674983590050e-02
3.324766348021024896e+03 7.373064625077518919e-01 9.318857244514458862e-03
3.328091114369046863e+03 7.431763699218932873e-01 8.825091440263159448e-03
3.331419205483417045e+03 7.516693653075046111e-01 7.956770793709660658e-03
3.334750624688901553e+03 7.588875491669410112e-01 7.558360787879750235e-03
3.338085375313591612e+03 7.665072917444046841e-01 7.299887176006543237e-03
3.341423460688906289e+03 7.747155610695583006e-01 7.154598314810745908e-03
3.344764884149596128e+03 7.849120036541149537e-01 6.884018253191800420e-03
3.348109649033746791e+03 7.975697659107784387e-01 6.657195787314587089e-03
3.351457758682781787e+03 8.109718693091965136e-01 6.555867084319212147e-03
3.354809216441465651e+03 8.242945009196812611e-01 6.814917555024770264e-03
3.358164025657908041e+03 8.370268818326707105e-01 7.233670939172875958e-03
3.361522189683567376e+03 8.479650527913267233e-01 7.545630791886880073e-03
3.364883711873251741e+03 8.602620832532699158e-01 8.779239892882748086e-03
3.368248595585126168e+03 8.701648739601745008e-01 9.206157379082402156e-03
3.371616844180712633e+03 8.766750258542266305e-01 9.064447819252099969e-03
3.374988461024894150e+03 8.800673366103828332e-01 8.840415843385877534e-03
3.378363449485920228e+03 8.819525770741285520e-01 8.571374243755782579e-03
3.381741812935407324e+03 8.847995682147569152e-01 7.869213276323030332e-03
3.385123554748343849e+03 8.847693028924755732e-01 6.972356671118592857e-03
3.388508678303093347e+03 8.783566113952994137e-01 7.754381546213425479e-03
3.391897186981397681e+03 8.691976257555319441e-01 8.600289968433639382e-03
3.395289084168380214e+03 8.598331076237492043e-01 9.036260710733013193e-03
3.398684373252549449e+03 8.493704238068957579e-01 9.355222100793737783e-03
3.402083057625803121e+03 8.382465679287692817e-01 9.103610018844472684e-03
3.405485140683430018e+03 8.208986271317382233e-01 7.816838601306198842e-03
3.408890625824114522e+03 8.080412918870195638e-01 6.935898622881698714e-03
3.412299516449939802e+03 7.984631656111059739e-01 6.712709568852449384e-03
3.415711815966390986e+03 7.901193785254346791e-01 6.653237832448853986e-03
3.419127527782358356e+03 7.826564258950792219e-01 6.546626330795987658e-03
3.422546655310141887e+03 7.769736913847422599e-01 6.508157126140836149e-03
3.425969201965453522e+03 7.740483488402187806e-01 6.485625982068656502e-03
3.429395171167419903e+03 7.740856879559433468e-01 6.438806424376493191e-03
3.432824566338588284e+03 7.765514876713501824e-01 6.644747948510436319e-03
3.436257390904928343e+03 7.813116085820812629e-01 6.666316653187500871e-03
3.439693648295834464e+03 7.909450501292660807e-01 6.372046824159247058e-03
3.443133341944131189e+03 8.044233085900506230e-01 5.914484181035588664e-03
3.446576475286076402e+03 8.191652387592751605e-01 5.760668827286316747e-03
3.450023051761363604e+03 8.335270549005502350e-01 5.808817895022523950e-03
3.453473074813126004e+03 8.484126265464733141e-01 6.013922090709195034e-03
3.456926547887940615e+03 8.632754398649041816e-01 6.295887514337098097e-03
3.460383474435829612e+03 8.782123972411540747e-01 6.650653150057614198e-03
3.463843857910266706e+03 8.925105296394846288e-01 6.823026315040656153e-03
3.467307701768178049e+03 9.049874677770312070e-01 6.830448391015929085e-03
3.470775009469947236e+03 9.160649382351956360e-01 6.796670151897288466e-03
3.474245784479418489e+03 9.266421100359700791e-01 6.749873526991252703e-03
3.477720030263898934e+03 9.365778307799171865e-01 6.755665561320392185e-03
3.481197750294164052e+03 9.470177345610257813e-01 6.498320637842748375e-03
3.484678948044459503e+03 9.569719025567071657e-01 6.715118719018315328e-03
3.488163626992504760e+03 9.623087802378942346e-01 7.286915893202227171e-03
3.491651790619498570e+03 9.675822293383893324e-01 7.395623988938357027e-03
3.495143442410119405e+03 9.736137475776122097e-01 7.381500063100909954e-03
3.498638585852530468e+03 9.792652365820821991e-01 7.143661415913308069e-03
3.502137224438384237e+03 9.810929745419869619e-01 6.139744997290975427e-03
3.505639361662823831e+03 9.874635253542923818e-01 6.725711579086844985e-03
3.509145001024487556e+03 9.938872523453213814e-01 7.643471705346837133e-03
3.512654146025513455e+03 9.997133175412620254e-01 8.054455129518255790e-03
3.516166800171540217e+03 1.003443009855746304e+00 8.363772791514846941e-03
3.519682966971712631e+03 1.006027283543371675e+00 7.792837845707286694e-03
3.523202649938685681e+03 1.007484334314269203e+00 6.698822013638074287e-03
3.526725852588625457e+03 1.006587867940299086e+00 6.431213639468905639e-03
3.530252578441215064e+03 1.003674039555495501e+00 6.649681127308773067e-03
3.533782831019657806e+03 9.980602600046223349e-01 7.312427180503337787e-03
3.537316613850678550e+03 9.932966309358439716e-01 7.548053875514914787e-03
3.540853930464530094e+03 9.849848404793765111e-01 7.526034681001477454e-03
3.544394784394995895e+03 9.763307481051406445e-01 6.971455736914253243e-03
3.547939179179392340e+03 9.675620644769521439e-01 6.740659425243999275e-03
3.551487118358572843e+03 9.568509777312271813e-01 6.634133694073534281e-03
3.555038605476932389e+03 9.468824585000675809e-01 6.457460972357416742e-03
3.558593644082410719e+03 9.377998117362885688e-01 6.452040323465489668e-03
3.562152237726494150e+03 9.304389625817530707e-01 6.342385074642519459e-03
3.565714389964221937e+03 9.233521090587957225e-01 6.486895701699874756e-03
3.569280104354187188e+03 9.180697028839981400e-01 6.763681688765940669e-03
3.572849384458542772e+03 9.154787590414019682e-01 6.881963252362186326e-03
3.576422233843002232e+03 9.155001346194778789e-01 6.884091884138129197e-03
3.579998656076846601e+03 9.182960934662539598e-01 6.882675421322916216e-03
3.583578654732924406e+03 9.230040995498220990e-01 7.044626290926285679e-03
3.587162233387658489e+03 9.264001582264322909e-01 7.299588137610342475e-03
3.590749395621047370e+03 9.311761254073167571e-01 7.586793110206769587e-03
3.594340145016669794e+03 9.365380812744341643e-01 8.193050832001280703e-03
3.597934485161687462e+03 9.414761933160178398e-01 8.852168975111160756e-03
3.601532419646850485e+03 9.464410688747937339e-01 9.146585024391980234e-03
3.605133952066498296e+03 9.495686592347412081e-01 8.587695251099558905e-03
3.608739086018566013e+03 9.518758067497633535e-01 7.934511695392876957e-03
3.612347825104585809e+03 9.529533240522257698e-01 7.583826970291676975e-03
3.615960172929691907e+03 9.518477647786809381e-01 7.763648192333270567e-03
3.619576133102622407e+03 9.480262337159099939e-01 8.148722611811423308e-03
3.623195709235726554e+03 9.419164428917863319e-01 8.363066970308504280e-03
3.626818904944963379e+03 9.356157240462031899e-01 7.969037339093772154e-03
3.630445723849909427e+03 9.289757763200959806e-01 6.881142045108536512e-03
3.634076169573760581e+03 9.236326356152780859e-01 4.803049731075918760e-03
3.637710245743335690e+03 9.218843242491806533e-01 4.045096981508518319e-03
3.641347955989080219e+03 9.259292864761876629e-01 4.092099078105843057e-03
3.644989303945070333e+03 9.335888012654487422e-01 4.099439756552558309e-03
3.648634293249016537e+03 9.467844374892824266e-01 3.953694995250101735e-03
3.652282927542266862e+03 9.669536294663890752e-01 3.403703672210731199e-03
3.655935210469810499e+03 9.877963344573609250e-01 3.245930693867159211e-03
3.659591145680281443e+03 1.007628694405902081e+00 3.360737008109898095e-03
3.663250736825963031e+03 1.027139387691603734e+00 3.502357904239600944e-03
3.666913987562790226e+03 1.045389897849242633e+00 3.523577459259347091e-03
3.670580901550354156e+03 1.061060556522058773e+00 3.492575801788249008e-03
3.674251482451905758e+03 1.074579228674690023e+00 3.487190648382191508e-03
3.677925733934358959e+03 1.085891857182703646e+00 3.555899179006470189e-03
3.681603659668294313e+03 1.095495989092611921e+00 3.690516161066743732e-03
3.685285263327964003e+03 1.102744929910339344e+00 4.343294613454207719e-03
3.688970548591293209e+03 1.111008691905043699e+00 4.553560029317640229e-03
3.692659519139885560e+03 1.113694250613603831e+00 5.624153172293099717e-03
3.696352178659026777e+03 1.116698604166482145e+00 5.167501877057509643e-03
3.700048530837686940e+03 1.119850514767037897e+00 3.863551176100175465e-03
3.703748579368525952e+03 1.128945311142198316e+00 3.630726550225042964e-03
3.707452327947895355e+03 1.141480225081831001e+00 4.814896011103776685e-03
3.711159780275844696e+03 1.154421965551176710e+00 5.410779479704144572e-03
3.714870940056121526e+03 1.168741694608101733e+00 5.557379705068182102e-03
3.718585810996179134e+03 1.181174757619330773e+00 5.070872447911545233e-03
3.722304396807176545e+03 1.190734344958759960e+00 4.001857703937536023e-03
3.726026701203984885e+03 1.195336863783513337e+00 3.194780534659680173e-03
3.729752727905190113e+03 1.193094466979648161e+00 3.125406719778554745e-03
3.733482480633096657e+03 1.184878642691859163e+00 3.097412934073139491e-03
3.737215963113731050e+03 1.171188384139355110e+00 3.156832814734484346e-03
3.740953179076846027e+03 1.150282201840196805e+00 3.149772133143330464e-03
3.744694132255923705e+03 1.122647847140953115e+00 3.011006237963982386e-03
3.748438826388181042e+03 1.089040734939978883e+00 2.894646995501026516e-03
3.752187265214570289e+03 1.049303415684646357e+00 2.851479413011703476e-03
3.755939452479786269e+03 1.006905638227649336e+00 3.724946165988142748e-03
3.759695391932267285e+03 9.640762818985720850e-01 4.638683001953816665e-03
3.763455087324201031e+03 9.235179609761869912e-01 5.224824013147394940e-03
3.767218542411526414e+03 8.857442812749127814e-01 5.258533176386772506e-03
3.770985760953939007e+03 8.521168172629374205e-01 4.252595651272323037e-03
3.774756746714894234e+03 8.263002228138909278e-01 3.995201663631881527e-03
3.778531503461610555e+03 8.079580567325084228e-01 4.986776924251858263e-03
3.782310034965073100e+03 7.957773152795706295e-01 5.272346295137749980e-03
3.786092345000039586e+03 7.890079092366565350e-01 4.917944998740768521e-03
3.789878437345040766e+03 7.864174597095666686e-01 4.878770428576494761e-03
3.793668315782387253e+03 7.887368565629138129e-01 4.050013638980935748e-03
3.797461984098170888e+03 7.929968143129018099e-01 3.587888115636591463e-03
3.801259446082270188e+03 7.970370826698481848e-01 3.625622285247188936e-03
3.805060705528353537e+03 8.011750352696777044e-01 3.614555229295134293e-03
3.808865766233883278e+03 8.039451730588599299e-01 3.833472424995402680e-03
3.812674632000118436e+03 8.045290648046889981e-01 4.465242601077963787e-03
3.816487306632119726e+03 8.015848961119691474e-01 4.552427812340995202e-03
3.820303793938753188e+03 7.964820157650613908e-01 4.266585668146781647e-03
3.824124097732693372e+03 7.881366445708692936e-01 4.149620145767313716e-03
3.827948221830427428e+03 7.769913848963131420e-01 4.751470322769168857e-03
3.831776170052258749e+03 7.636315866884242354e-01 5.488748349578786816e-03
3.835607946222312421e+03 7.509977491886173917e-01 5.417555078127264320e-03
3.839443554168536139e+03 7.398751077942762322e-01 4.869201112198649761e-03
3.843282997722705659e+03 7.312458488094409903e-01 3.896107192225402912e-03
3.847126280720429804e+03 7.280703770857592794e-01 3.706058614388410295e-03
3.850973407001151372e+03 7.315597563492660660e-01 4.329081774504052287e-03
3.854824380408153957e+03 7.399939630044261030e-01 3.724421702488090596e-03
3.858679204788563311e+03 7.517391654284747426e-01 3.715836550057746886e-03
3.862537883993353262e+03 7.683486890642314826e-01 4.019686978643377019e-03
3.866400421877347981e+03 7.902025539208341609e-01 4.137807630923185515e-03
3.870266822299226533e+03 8.173554532185141053e-01 4.208796889165194489e-03
3.874137089121526969e+03 8.468667871578654527e-01 4.318298649949516010e-03
3.878011226210649966e+03 8.798695575579198458e-01 5.011225811178735522e-03
3.881889237436861549e+03 9.149459673700558460e-01 5.248964077365661680e-03
3.885771126674299921e+03 9.506169689600085793e-01 4.778087155129814682e-03
3.889656897800975457e+03 9.853303594022478906e-01 4.867095330356887781e-03
3.893546554698777527e+03 1.021248194423794775e+00 4.898615259709919630e-03
3.897440101253477678e+03 1.057199389419553714e+00 4.957219239682936381e-03
3.901337541354732366e+03 1.091757536026887632e+00 5.157039331471560684e-03
3.905238878896088409e+03 1.126640958317858043e+00 4.770739058564506078e-03
3.909144117774985716e+03 1.163107862170313256e+00 4.307195397375160328e-03
3.913053261892762293e+03 1.201237013126659203e+00 3.653479177036310799e-03
3.916966315154656058e+03 1.242465702736794464e+00 3.718199004370752181e-03
3.920883281469812118e+03 1.287928296011237261e+00 4.642369041634153079e-03
3.924804164751283224e+03 1.332896176330921278e+00 3.552974060908621872e-03
3.928728968916035683e+03 1.375204288749871440e+00 2.607505380514863521e-03
3.932657697884953450e+03 1.412193377521544502e+00 2.616222547982072991e-03
3.936590355582839493e+03 1.444822883065571162e+00 2.655507365188882266e-03
3.940526945938423523e+03 1.473319523964117472e+00 2.698869730229505343e-03
3.944467472884363360e+03 1.497518079767162336e+00 3.004138201625309711e-03
3.948411940357249023e+03 1.516120899710082792e+00 3.046755962242945429e-03
3.952360352297607733e+03 1.528784910309810563e+00 3.096038027102654931e-03
3.956312712649906643e+03 1.536091200365155451e+00 4.020041159750998259e-03
3.960269025362557841e+03 1.539512826554582769e+00 4.728302567818611774e-03
3.964229294387921527e+03 1.541666192113658296e+00 4.328244554817051865e-03
3.968193523682310570e+03 1.545509944258759205e+00 4.056618863863283540e-03
3.972161717205994591e+03 1.551332882088329423e+00 4.041895465981279814e-03
3.976133878923201792e+03 1.557711894545516840e+00 3.996068702346336661e-03
3.980110012802126221e+03 1.566136703910962602e+00 4.233232481782053455e-03
3.984090122814929600e+03 1.575077724623600073e+00 4.435718616869553654e-03
3.988074212937745870e+03 1.583643517861374583e+00 4.412380563838507602e-03
3.992062287150684824e+03 1.594127545775620325e+00 4.141626481208106163e-03
3.996054349437837118e+03 1.605532213574458966e+00 3.195206921906335908e-03
4.000050403787276082e+03 1.612978886694464320e+00 3.192093963048934016e-03
4.004050454191064546e+03 1.618645871570037142e+00 3.222459188596107048e-03
4.008054504645257111e+03 1.619597974347575464e+00 2.914140451287346861e-03
4.012062559149903791e+03 1.619882955327822671e+00 2.082230759058111089e-03
4.016074621709055009e+03 1.620578320862452681e+00 2.284631741682651134e-03
4.020090696330765240e+03 1.620318822213507204e+00 2.402405655905014582e-03
4.024110787027097558e+03 1.618515837768170540e+00 2.051879957946880183e-03
4.028134897814125907e+03 1.613371117099854146e+00 1.848416063887983740e-03
4.032163032711941469e+03 1.604811319984659645e+00 1.850190132805218249e-03
4.036195195744654484e+03 1.593310452843008207e+00 1.907161800905083021e-03
4.040231390940400615e+03 1.579106815235145955e+00 2.303652438640281866e-03
4.044271622331342314e+03 1.560577890452542693e+00 2.261054065733760637e-03
4.048315893953675186e+03 1.538137100732613449e+00 2.189302647610239048e-03
4.052364209847629809e+03 1.511891515933393881e+00 2.200163704201086104e-03
4.056416574057479011e+03 1.483608682724003369e+00 2.135119182258418419e-03
4.060472990631537868e+03 1.452184346121534464e+00 2.738902658062808762e-03
4.064533463622170530e+03 1.418724677316633320e+00 3.725529068500489129e-03
4.068597997085794304e+03 1.389176423702765728e+00 3.833409033138769802e-03
4.072666595082881486e+03 1.364458302750805041e+00 3.714829353136368893e-03
4.076739261677965715e+03 1.343797428272355488e+00 3.230987339938496024e-03
4.080816000939644709e+03 1.330055620295732766e+00 3.339203398971291991e-03
4.084896816940585722e+03 1.320796282991734127e+00 3.165383473151367824e-03
4.088981713757527814e+03 1.319099715098575043e+00 3.497925407678389997e-03
4.093070695471286854e+03 1.323277209472322413e+00 3.115384915227987269e-03
4.097163766166759160e+03 1.331510917200801503e+00 2.599104020762742304e-03
4.101260929932927866e+03 1.343310459867455897e+00 2.171936383540769202e-03
4.105362190862862008e+03 1.356151538520614430e+00 2.213733296091722601e-03
4.109467553053726078e+03 1.370475152918175121e+00 2.181744357259832179e-03
4.113577020606780934e+03 1.385913538440050052e+00 2.245540719951893104e-03
4.117690597627389252e+03 1.401498931190521047e+00 2.454470072019681280e-03
4.121808288225018259e+03 1.414402520771959715e+00 2.400604368067588319e-03
4.125930096513244280e+03 1.425622466584263393e+00 2.422987940757783884e-03
4.130056026609759101e+03 1.435835521128347114e+00 2.442794851099544876e-03
4.134186082636369974e+03 1.444645922927056292e+00 2.523556139190494350e-03
4.138320268719007800e+03 1.446417409740887727e+00 2.354399965125878597e-03
4.142458588987728035e+03 1.440745094040658980e+00 2.835585990698212110e-03
4.146601047576717065e+03 1.431451778917494755e+00 2.957670680045635173e-03
4.150747648624294925e+03 1.418048094753164179e+00 2.917773983329660127e-03
4.154898396272920763e+03 1.400493489902225219e+00 2.994596276285962835e-03
4.159053294669195566e+03 1.378746697617020400e+00 3.000897996170783649e-03
4.163212347963865795e+03 1.351924151422513098e+00 2.982569229052092416e-03
4.167375560311830668e+03 1.322712842374766273e+00 2.945495030065391380e-03
4.171542935872143971e+03 1.290611433984554912e+00 2.942177168440983630e-03
4.175714478808017702e+03 1.256451075016426389e+00 2.994851311074614181e-03
4.179890193286827525e+03 1.222179755119311872e+00 3.029813534586873157e-03
4.184070083480115500e+03 1.187262772975347547e+00 3.211935378489961124e-03
4.188254153563597356e+03 1.155356054166970070e+00 3.239208579477154994e-03
4.192442407717161586e+03 1.127756235206305080e+00 3.197924017639489688e-03
4.196634850124880359e+03 1.104454001220346315e+00 3.169876688507363826e-03
4.200831484975006788e+03 1.084990164082596076e+00 2.808021756932480191e-03
4.205032316459983122e+03 1.071049611972855864e+00 2.427355795649563126e-03
4.209237348776444378e+03 1.065186324253690309e+00 2.827907155663537779e-03
4.213446586125221984e+03 1.066074429842602367e+00 1.913524541998562348e-03
4.217660032711349231e+03 1.068802346611794629e+00 2.092416279605078828e-03
4.221877692744061278e+03 1.075184704734680974e+00 2.059873572847056942e-03
4.226099570436806971e+03 1.086465086935142876e+00 2.142785235387199665e-03
4.230325670007245208e+03 1.100732429785550970e+00 2.181617009636598655e-03
4.234555995677254032e+03 1.117679032029707198e+00 2.150968745540964965e-03
4.238790551672932452e+03 1.135026964082858081e+00 2.215411956395304562e-03
4.243029342224606808e+03 1.152188192974733072e+00 2.425512873057431365e-03
4.247272371566832589e+03 1.168675309127932271e+00 2.574352769780257569e-03
4.251519643938400804e+03 1.183461580312547223e+00 2.547315864837718883e-03
4.255771163582340705e+03 1.194113524252886638e+00 2.392192283270690775e-03
4.260026934745924336e+03 1.201648650546330632e+00 2.454475077398113759e-03
4.264286961680671993e+03 1.205052295518293182e+00 2.719053020178360640e-03
4.268551248642354039e+03 1.206172724967007115e+00 2.864780598685562427e-03
4.272819799890998183e+03 1.205693381808991438e+00 2.821532033494562452e-03
4.277092619690890388e+03 1.203454117343243368e+00 2.493076628879114468e-03
4.281369712310583054e+03 1.200400652911481236e+00 2.021492061526148059e-03
4.285651082022895025e+03 1.198862289774434098e+00 1.788496225203912689e-03
4.289936733104918858e+03 1.200148650726269084e+00 2.431274180976214679e-03
