# starting wavelength: 3178.710
# ending wavelength: 8117.730
# wav flux eflux
3.181718264814533086e+03 2.531267498667725491e+00 1.364780952024679736e-02
3.184899983079348658e+03 2.530536916858967977e+00 1.052979743894444029e-02
3.188084883062429071e+03 2.527884040426771062e+00 7.824175845545938007e-03
3.191272967945492383e+03 2.524275033969185955e+00 6.700770273032236567e-03
3.194464240913438971e+03 2.518355241195754601e+00 5.966087492126708434e-03
3.197658705154353811e+03 2.509566304096235712e+00 5.093904809302871040e-03
3.200856363859509202e+03 2.498234897897281925e+00 4.122060939079594775e-03
3.204057220223369768e+03 2.485535281238446359e+00 3.445906012959906468e-03
3.207261277443593826e+03 2.472114042200665107e+00 2.941995530578449432e-03
3.210468538721038840e+03 2.458020899825888783e+00 2.535002323892804246e-03
3.213679007259760965e+03 2.443480287319662825e+00 2.236689084204557428e-03
3.216892686267021418e+03 2.428985613660803455e+00 2.010664481693303415e-03
3.220109578953289656e+03 2.414881015781813023e+00 1.848989643410949187e-03
3.223329688532243836e+03 2.402209927867880346e+00 1.989651905291255421e-03
3.226553018220777176e+03 2.390352748852296205e+00 2.199222256691389741e-03
3.229779571238999324e+03 2.378776106844597837e+00 2.288521886038206304e-03
3.233009350810239084e+03 2.367288615112389749e+00 2.270056369118176459e-03
3.236242360161050783e+03 2.355990075361871217e+00 2.209495463431191114e-03
3.239478602521212906e+03 2.344950085203539203e+00 2.136030109471121537e-03
3.242718081123734919e+03 2.335145706972237445e+00 1.964305987583961615e-03
3.245960799204859995e+03 2.325779924025247691e+00 1.927095300507171861e-03
3.249206760004065927e+03 2.317316203022033338e+00 1.952978693351885850e-03
3.252455966764071036e+03 2.310487193036995013e+00 1.957009196817271254e-03
3.255708422730835991e+03 2.304029783676724286e+00 1.941223176120719087e-03
3.258964131153567905e+03 2.297862834059930304e+00 2.193003919314475032e-03
3.262223095284722604e+03 2.292639807289072351e+00 2.663293334310724240e-03
3.265485318380008266e+03 2.289102415011560865e+00 2.947017078073534309e-03
3.268750803698389518e+03 2.288188888236243113e+00 2.990373671954119680e-03
3.272019554502088795e+03 2.287886340920849193e+00 2.986874304986981022e-03
3.275291574056592253e+03 2.289369972345098425e+00 2.842418397673233520e-03
3.278566865630649772e+03 2.292853194418366325e+00 2.745409675716402407e-03
3.281845432496281319e+03 2.297651822665990551e+00 2.682112786055823681e-03
3.285127277928778767e+03 2.303970964206140781e+00 2.814061551220470390e-03
3.288412405206708627e+03 2.311506482596997092e+00 3.166369302078577037e-03
3.291700817611916591e+03 2.320383518644623333e+00 3.910218847323702548e-03
3.294992518429529355e+03 2.329643628553986989e+00 4.173921822087187095e-03
3.298287510947960072e+03 2.338828168609809133e+00 4.061613775825400827e-03
3.301585798458909267e+03 2.347390992130623744e+00 3.752203587494780650e-03
3.304887384257369376e+03 2.354552330843138197e+00 3.623723977604732544e-03
3.308192271641627485e+03 2.360125362386097603e+00 3.863186264692869409e-03
3.311500463913270323e+03 2.363879097801314444e+00 4.580640871792086843e-03
3.314811964377184722e+03 2.367184843558941765e+00 4.871063692678761700e-03
3.318126776341563072e+03 2.370419474740792509e+00 5.082297074499394010e-03
3.321444903117905596e+03 2.372436983645272335e+00 5.254492450518885582e-03
3.324766348021024896e+03 2.373387696227453159e+00 6.064874757889439187e-03
3.328091114369046863e+03 2.372047221310052745e+00 7.308269050664645272e-03
3.331419205483417045e+03 2.367925515748616760e+00 8.474737221869628120e-03
3.334750624688901553e+03 2.360280155337119101e+00 9.140607964322686185e-03
3.338085375313591612e+03 2.349333230387372407e+00 9.000699085131919769e-03
3.341423460688906289e+03 2.330875879788580018e+00 8.956469973805654058e-03
3.344764884149596128e+03 2.307588034464424620e+00 9.674901462365253363e-03
3.348109649033746791e+03 2.281426072917725811e+00 1.074284658403185794e-02
3.351457758682781787e+03 2.253311095300737588e+00 1.199377006676112002e-02
3.354809216441465651e+03 2.224927404159050770e+00 1.311833041666389185e-02
3.358164025657908041e+03 2.197782850345892491e+00 1.394713759777840671e-02
3.361522189683567376e+03 2.173521068436612858e+00 1.415622498120413034e-02
3.364883711873251741e+03 2.155013247670819698e+00 1.392681810875258906e-02
3.368248595585126168e+03 2.140546629881141527e+00 1.377833869310014954e-02
3.371616844180712633e+03 2.129130999993944950e+00 1.281757727552273150e-02
3.374988461024894150e+03 2.123605168677513255e+00 1.208048208775485029e-02
3.378363449485920228e+03 2.124081701718922854e+00 1.198461012541834035e-02
3.381741812935407324e+03 2.130562413482941508e+00 1.255574040965078825e-02
3.385123554748343849e+03 2.142116162478773234e+00 1.331034562283468607e-02
3.388508678303093347e+03 2.160290154736386192e+00 1.403085359132876138e-02
3.391897186981397681e+03 2.181845898181462573e+00 1.379679693656991543e-02
3.395289084168380214e+03 2.206948528393579689e+00 1.283737760508652653e-02
3.398684373252549449e+03 2.232977059414671395e+00 1.096533799460082219e-02
3.402083057625803121e+03 2.256973667560569830e+00 8.830010326968392581e-03
3.405485140683430018e+03 2.277908264421816931e+00 7.133956441535470837e-03
3.408890625824114522e+03 2.294586032281251686e+00 6.773770263690657989e-03
3.412299516449939802e+03 2.306103191728253510e+00 7.144576647400779391e-03
3.415711815966390986e+03 2.312083089612662068e+00 7.013774859929672138e-03
3.419127527782358356e+03 2.314196688904256227e+00 5.572931911516611041e-03
3.422546655310141887e+03 2.310422364941419726e+00 4.060570806702119492e-03
3.425969201965453522e+03 2.304465546034585977e+00 3.086669152937232541e-03
3.429395171167419903e+03 2.297028089855763788e+00 2.370762047688196490e-03
3.432824566338588284e+03 2.288960861948402759e+00 2.148292398389248670e-03
3.436257390904928343e+03 2.281251779749425612e+00 2.097653162574084507e-03
3.439693648295834464e+03 2.273546792744240541e+00 1.999153247091853963e-03
3.443133341944131189e+03 2.265650385951785140e+00 1.866495367048117944e-03
3.446576475286076402e+03 2.258578004966520947e+00 1.823070959321001095e-03
3.450023051761363604e+03 2.252382575536748810e+00 1.955640751966971139e-03
3.453473074813126004e+03 2.246463214124697405e+00 2.150682554186554834e-03
3.456926547887940615e+03 2.240592555841592226e+00 2.305134989846032746e-03
3.460383474435829612e+03 2.234984788957761648e+00 2.445933405100533808e-03
3.463843857910266706e+03 2.229942587115917974e+00 2.477519083150418917e-03
3.467307701768178049e+03 2.225501377723619445e+00 2.303514409981357886e-03
3.470775009469947236e+03 2.220974251876380645e+00 2.128108884552257479e-03
3.474245784479418489e+03 2.216625420190601936e+00 1.875880822741309668e-03
3.477720030263898934e+03 2.212317616632098805e+00 1.871513929375185096e-03
3.481197750294164052e+03 2.208291543530187084e+00 2.153942902256023636e-03
3.484678948044459503e+03 2.203409527048816319e+00 2.378241079858575604e-03
3.488163626992504760e+03 2.200254722419713982e+00 2.533961989930305202e-03
3.491651790619498570e+03 2.199028005782225570e+00 2.490735917262286957e-03
3.495143442410119405e+03 2.199851548949243618e+00 2.264122433526573070e-03
3.498638585852530468e+03 2.202724312166921106e+00 1.760747548032146146e-03
3.502137224438384237e+03 2.208402625101415939e+00 1.342345730778318064e-03
3.505639361662823831e+03 2.217150127984397479e+00 1.295126254924214727e-03
3.509145001024487556e+03 2.229065477295793851e+00 1.428354617093626367e-03
3.512654146025513455e+03 2.244040546270335668e+00 1.482292106436890189e-03
3.516166800171540217e+03 2.261407072627467318e+00 1.606898144960795805e-03
3.519682966971712631e+03 2.279792805919253151e+00 1.486824435465601167e-03
3.523202649938685681e+03 2.300242203432452115e+00 1.463728348332055335e-03
3.526725852588625457e+03 2.321078191039688932e+00 1.358276650125943589e-03
3.530252578441215064e+03 2.341665700391303062e+00 1.041281049395513091e-03
3.533782831019657806e+03 2.361269629670748493e+00 8.327127190075290716e-04
3.537316613850678550e+03 2.378848732511759767e+00 8.035564798153317558e-04
3.540853930464530094e+03 2.394700787506440331e+00 8.945890616869436353e-04
3.544394784394995895e+03 2.408346147871353704e+00 1.084749510285413837e-03
3.547939179179392340e+03 2.419798203517836033e+00 1.132964985504761758e-03
3.551487118358572843e+03 2.429707127641287379e+00 1.057911604414694864e-03
3.555038605476932389e+03 2.437874407202494265e+00 1.234466794271066054e-03
3.558593644082410719e+03 2.443925844729909258e+00 1.574910381714026385e-03
3.562152237726494150e+03 2.446654162993605830e+00 1.819142734641519430e-03
3.565714389964221937e+03 2.445816352710230124e+00 1.860892806318460192e-03
3.569280104354187188e+03 2.441403258613310978e+00 1.899638347924857695e-03
3.572849384458542772e+03 2.433568574030379406e+00 1.875579951215207344e-03
3.576422233843002232e+03 2.422406274455638719e+00 1.895925113103336503e-03
3.579998656076846601e+03 2.408319225516626361e+00 2.011909419266539982e-03
3.583578654732924406e+03 2.391730105229862069e+00 2.215709445313590424e-03
3.587162233387658489e+03 2.372511605949282121e+00 2.279747811296298308e-03
3.590749395621047370e+03 2.351292668575328371e+00 2.184106596071746110e-03
3.594340145016669794e+03 2.328419700033290685e+00 1.944128185892833290e-03
3.597934485161687462e+03 2.304963061231826593e+00 1.644299280014686242e-03
3.601532419646850485e+03 2.281894690938761183e+00 1.472019278589883993e-03
3.605133952066498296e+03 2.259720039194796470e+00 1.451990147512914218e-03
3.608739086018566013e+03 2.239493345027173010e+00 1.487611267888748739e-03
3.612347825104585809e+03 2.221981331439785379e+00 1.480041706572856079e-03
3.615960172929691907e+03 2.207145503065466308e+00 1.438336476665768617e-03
3.619576133102622407e+03 2.194501938014532971e+00 1.498537349488124511e-03
3.623195709235726554e+03 2.184318436490199744e+00 1.524194048157056234e-03
3.626818904944963379e+03 2.175866111115402735e+00 1.550859789388025784e-03
3.630445723849909427e+03 2.168994659471213282e+00 1.557613456833185006e-03
3.634076169573760581e+03 2.164925388331618628e+00 1.544610444864494064e-03
3.637710245743335690e+03 2.163258439441834380e+00 1.398847781083935315e-03
3.641347955989080219e+03 2.163468323787174796e+00 1.217124092487077008e-03
3.644989303945070333e+03 2.164778532130684940e+00 1.155774813811675638e-03
3.648634293249016537e+03 2.166852741482604205e+00 1.157559070338723623e-03
3.652282927542266862e+03 2.169177550206710769e+00 1.183128162971846826e-03
3.655935210469810499e+03 2.171485099287899345e+00 1.384124347874117348e-03
3.659591145680281443e+03 2.173596021463068517e+00 1.727834251166050989e-03
3.663250736825963031e+03 2.174758226691292151e+00 1.874027565026602660e-03
3.666913987562790226e+03 2.174248621385062918e+00 1.638609452169299254e-03
3.670580901550354156e+03 2.172151825624775157e+00 1.483338614677546987e-03
3.674251482451905758e+03 2.168167918162274610e+00 1.312460306609193649e-03
3.677925733934358959e+03 2.161929631163721499e+00 1.796276890079778407e-03
3.681603659668294313e+03 2.153893832908345018e+00 2.098770175398525367e-03
3.685285263327964003e+03 2.145538405925778935e+00 1.858576261037737888e-03
3.688970548591293209e+03 2.137788498382115598e+00 1.506369487746721508e-03
3.692659519139885560e+03 2.131520091379408122e+00 1.060441259151251748e-03
3.696352178659026777e+03 2.127365387198343338e+00 9.362316098788247849e-04
3.700048530837686940e+03 2.126258622554986211e+00 9.518561206585525415e-04
3.703748579368525952e+03 2.128086971233750457e+00 9.714117343888430730e-04
3.707452327947895355e+03 2.133225568545569661e+00 9.833349429518708704e-04
3.711159780275844696e+03 2.141420324678648068e+00 1.098018232260011872e-03
3.714870940056121526e+03 2.151593045745620714e+00 1.135403947831231577e-03
3.718585810996179134e+03 2.162756048096946770e+00 1.234457610907013347e-03
3.722304396807176545e+03 2.173883981561770540e+00 1.240268731814210676e-03
3.726026701203984885e+03 2.184889118198968916e+00 1.659504464328821066e-03
3.729752727905190113e+03 2.194517607872030318e+00 2.004299856783117294e-03
3.733482480633096657e+03 2.201508868307987754e+00 2.149352524522342867e-03
3.737215963113731050e+03 2.204102781834154090e+00 1.776337434753336641e-03
3.740953179076846027e+03 2.201256721364230895e+00 1.395563964656048239e-03
3.744694132255923705e+03 2.191688585841662817e+00 1.827573255638356275e-03
3.748438826388181042e+03 2.176116735351544929e+00 2.731669209320326634e-03
3.752187265214570289e+03 2.156600278233743673e+00 3.101881355862473513e-03
3.755939452479786269e+03 2.134930811470904910e+00 3.134132455919867808e-03
3.759695391932267285e+03 2.112174921518639170e+00 2.800168004370244199e-03
3.763455087324201031e+03 2.089612733900080510e+00 2.549154402711301028e-03
3.767218542411526414e+03 2.067363494113215960e+00 2.359647184963177026e-03
3.770985760953939007e+03 2.046310059074995635e+00 2.466954494213231472e-03
3.774756746714894234e+03 2.026348318420157835e+00 2.550636803803547382e-03
3.778531503461610555e+03 2.007703234198078945e+00 2.333896325453168989e-03
3.782310034965073100e+03 1.990204742251500125e+00 1.809285853464284808e-03
3.786092345000039586e+03 1.973248244321256006e+00 1.444882419122433355e-03
3.789878437345040766e+03 1.956343211587410647e+00 1.459708986942311829e-03
3.793668315782387253e+03 1.939075314481968126e+00 1.380854933498742868e-03
3.797461984098170888e+03 1.922886513883077519e+00 1.280338349317307074e-03
3.801259446082270188e+03 1.907962053225627175e+00 8.529108771663244026e-04
3.805060705528353537e+03 1.895249335164510551e+00 7.092508640267296402e-04
3.808865766233883278e+03 1.884877055072045726e+00 9.797113463138912726e-04
3.812674632000118436e+03 1.876826143261366875e+00 8.664431189207664075e-04
3.816487306632119726e+03 1.869159357394792220e+00 8.536813139180456523e-04
3.820303793938753188e+03 1.862755551439267965e+00 8.505925329789236402e-04
3.824124097732693372e+03 1.857258336871071336e+00 9.094374695216600772e-04
3.827948221830427428e+03 1.852126961539872996e+00 9.503324960847177056e-04
3.831776170052258749e+03 1.847737503571067474e+00 1.016864702933584740e-03
3.835607946222312421e+03 1.844253481074440648e+00 1.269950207666310088e-03
3.839443554168536139e+03 1.841823692272590796e+00 1.585368845531757217e-03
3.843282997722705659e+03 1.840581103235062521e+00 1.703618738806236517e-03
3.847126280720429804e+03 1.840774522257167201e+00 1.928801496625488733e-03
3.850973407001151372e+03 1.842185416645214069e+00 2.114141749797922472e-03
3.854824380408153957e+03 1.845180056418180836e+00 2.231962595229894982e-03
3.858679204788563311e+03 1.849865335586182491e+00 2.313451944964015246e-03
3.862537883993353262e+03 1.856358366485521438e+00 2.715569297609785483e-03
3.866400421877347981e+03 1.864887751186658615e+00 3.072002912326727078e-03
3.870266822299226533e+03 1.874488158694083362e+00 3.599666718057967750e-03
3.874137089121526969e+03 1.887302399032874334e+00 3.691916795440644290e-03
3.878011226210649966e+03 1.903088615876822320e+00 4.528706245606896330e-03
3.881889237436861549e+03 1.920839825723473782e+00 4.995568074459485162e-03
3.885771126674299921e+03 1.937302208632905254e+00 4.779700409341426648e-03
3.889656897800975457e+03 1.949619420409010928e+00 4.673158499534111297e-03
3.893546554698777527e+03 1.962371674108210673e+00 4.536649160980079330e-03
3.897440101253477678e+03 1.974674763155544799e+00 4.432199145622702646e-03
3.901337541354732366e+03 1.985739095472802251e+00 4.377367014269793744e-03
3.905238878896088409e+03 1.994259419814162548e+00 4.278707380007555454e-03
3.909144117774985716e+03 2.000514762231891286e+00 3.926661888013160094e-03
3.913053261892762293e+03 2.004377687911597761e+00 3.518400272392640648e-03
3.916966315154656058e+03 2.006326001519137314e+00 3.344900737558235016e-03
3.920883281469812118e+03 2.005088782974720818e+00 2.949518972840339034e-03
3.924804164751283224e+03 2.001920366644813765e+00 2.551789804042571292e-03
3.928728968916035683e+03 1.996358095197456661e+00 2.120117838635167742e-03
3.932657697884953450e+03 1.987212781817159435e+00 2.036419371741180189e-03
3.936590355582839493e+03 1.974957145794460134e+00 1.990159100883292630e-03
3.940526945938423523e+03 1.959719240382299610e+00 1.826557482667655113e-03
3.944467472884363360e+03 1.941540302230775783e+00 9.305822941340114200e-04
3.948411940357249023e+03 1.922545058385102479e+00 9.344237112677430349e-04
3.952360352297607733e+03 1.902243953508661489e+00 8.748729235685849537e-04
3.956312712649906643e+03 1.881377665558612078e+00 7.299280230976961954e-04
3.960269025362557841e+03 1.859854729920399130e+00 6.429551901886799764e-04
3.964229294387921527e+03 1.837373192505138197e+00 6.361447087441284357e-04
3.968193523682310570e+03 1.814926060403990515e+00 6.347794488121422107e-04
3.972161717205994591e+03 1.792709113583443203e+00 6.263920583166745441e-04
3.976133878923201792e+03 1.771272491521687087e+00 6.536744146907303528e-04
3.980110012802126221e+03 1.750842858867907026e+00 6.744388704548367596e-04
3.984090122814929600e+03 1.732444189188224737e+00 6.788137368589082076e-04
3.988074212937745870e+03 1.715789101433168096e+00 9.072250764308145872e-04
3.992062287150684824e+03 1.701785798767227131e+00 1.050465144351313447e-03
3.996054349437837118e+03 1.690183163844475533e+00 7.685039499663638436e-04
4.000050403787276082e+03 1.682085079312724885e+00 8.984047831934994198e-04
4.004050454191064546e+03 1.676942160097911749e+00 9.706356964208906479e-04
4.008054504645257111e+03 1.674268941598797245e+00 1.088966273290068332e-03
4.012062559149903791e+03 1.674591498893437613e+00 1.166031582437918957e-03
4.016074621709055009e+03 1.677474095004585442e+00 1.201059105714259809e-03
4.020090696330765240e+03 1.682713929895748528e+00 1.061727417836051072e-03
4.024110787027097558e+03 1.689174534927253779e+00 1.101072126456857821e-03
4.028134897814125907e+03 1.696341349035990209e+00 1.122271937755159972e-03
4.032163032711941469e+03 1.704429135403986662e+00 1.159582671905116762e-03
4.036195195744654484e+03 1.713064056454984385e+00 1.304890174260609154e-03
4.040231390940400615e+03 1.721334147944125315e+00 1.548083475501160376e-03
4.044271622331342314e+03 1.729304278551593521e+00 1.636751323886569565e-03
4.048315893953675186e+03 1.736482706141527999e+00 1.541941407576461745e-03
4.052364209847629809e+03 1.741550849993544370e+00 1.386949015979292927e-03
4.056416574057479011e+03 1.744722475777958692e+00 1.197286020624357137e-03
4.060472990631537868e+03 1.745810492057668029e+00 1.055013332497093488e-03
4.064533463622170530e+03 1.743680754344701711e+00 9.582510238268887289e-04
4.068597997085794304e+03 1.739568017452067572e+00 8.615541485670010933e-04
4.072666595082881486e+03 1.734672748003923459e+00 8.149916868798751796e-04
4.076739261677965715e+03 1.729251285885390121e+00 8.091772424303120530e-04
4.080816000939644709e+03 1.722724818529614232e+00 5.849493200708444753e-04
4.084896816940585722e+03 1.716413836346726729e+00 5.681969909780891720e-04
4.088981713757527814e+03 1.710059375078710531e+00 5.556607686818843417e-04
4.093070695471286854e+03 1.704159995201594224e+00 5.808263432672596677e-04
4.097163766166759160e+03 1.698104731655476041e+00 6.344034092233818154e-04
4.101260929932927866e+03 1.691573075233812951e+00 6.097180471343904449e-04
4.105362190862862008e+03 1.684543179041226857e+00 5.116873665473009028e-04
4.109467553053726078e+03 1.676890099475768059e+00 4.769750285201460765e-04
4.113577020606780934e+03 1.669019364167617647e+00 4.186577961566447480e-04
4.117690597627389252e+03 1.660255653312504576e+00 3.627036141927937108e-04
4.121808288225018259e+03 1.650726098500212791e+00 3.732404504773695429e-04
4.125930096513244280e+03 1.640587885087367415e+00 3.692760283930513442e-04
4.130056026609759101e+03 1.629858887120071875e+00 3.101337722998425469e-04
4.134186082636369974e+03 1.618693865092190265e+00 2.725881250361635922e-04
4.138320268719007800e+03 1.607369563836641202e+00 3.708295291331677114e-04
4.142458588987728035e+03 1.595448086216776584e+00 4.756583715883187140e-04
