# starting wavelength: 2587.180
# ending wavelength: 5535.730
# wav flux eflux
2.589654106284630871e+03 1.620154951099007423e+00 1.445155540073796673e-02
2.592243760390916577e+03 1.565846898573614698e+00 1.292686172072708001e-02
2.594836004151308316e+03 1.518210684230712149e+00 9.985256388270958433e-03
2.597430840155460373e+03 1.478543673807594772e+00 7.523512177034914067e-03
2.600028270995616822e+03 1.445718439786531251e+00 6.569926206675349815e-03
2.602628299266613340e+03 1.415874847694528871e+00 5.408612901174807662e-03
2.605230927565880847e+03 1.389071953891438671e+00 5.561997608427364861e-03
2.607836158493447329e+03 1.362679820040144874e+00 5.175443673931347417e-03
2.610443994651941921e+03 1.336559436933791201e+00 4.283527609459433956e-03
2.613054438646594463e+03 1.310577440913077707e+00 4.277832377013914521e-03
2.615667493085241858e+03 1.284079534339359618e+00 4.393176349058956591e-03
2.618283160578328079e+03 1.257169425255520556e+00 4.556673753491288260e-03
2.620901443738907346e+03 1.231410595541533759e+00 4.283385458684382807e-03
2.623522345182646859e+03 1.206958819050465870e+00 3.989295156288572702e-03
2.626145867527830433e+03 1.184528708314579237e+00 3.711409742256026323e-03
2.628772013395359409e+03 1.164132002642918051e+00 3.553029402896830998e-03
2.631400785408755382e+03 1.145496729711438011e+00 3.534575081485490100e-03
2.634032186194165206e+03 1.127248854318090521e+00 3.420549051509551124e-03
2.636666218380360078e+03 1.109341788295840292e+00 3.269221264119236570e-03
2.639302884598741457e+03 1.092808951283581242e+00 3.232520692419645070e-03
2.641942187483341058e+03 1.076496531547659119e+00 3.290256963228116709e-03
2.644584129670825405e+03 1.061981084488843985e+00 3.270197875967004088e-03
2.647228713800496735e+03 1.047538131937444383e+00 3.217560206928201955e-03
2.649875942514298458e+03 1.034626785438848451e+00 3.156558058894991161e-03
2.652525818456813340e+03 1.023389093331096289e+00 3.139545804164922682e-03
2.655178344275271229e+03 1.013277129036134649e+00 3.209770028717314361e-03
2.657833522619547239e+03 1.004654677827923948e+00 3.415465882489039217e-03
2.660491356142167660e+03 9.983175627342789626e-01 3.566710355959454033e-03
2.663151847498310872e+03 9.950607947446117318e-01 3.540220897586510932e-03
2.665814999345810065e+03 9.939985837139390101e-01 3.501822209110772889e-03
2.668480814345156887e+03 9.947842017530792447e-01 3.402008866303556870e-03
2.671149295159502799e+03 9.979766947158866808e-01 3.431100455643246953e-03
2.673820444454663175e+03 1.003471029243261592e+00 3.292470960618144957e-03
2.676494264899118662e+03 1.011037993329056750e+00 3.075092764974813285e-03
2.679170759164018818e+03 1.020631492163319942e+00 2.824794848509718046e-03
2.681849929923183481e+03 1.032445593323421784e+00 2.708602907557945087e-03
2.684531779853107764e+03 1.048361695521426329e+00 2.691100822576808840e-03
2.687216311632961606e+03 1.067389194722323520e+00 2.687167856893822246e-03
2.689903527944595680e+03 1.088849768230470749e+00 2.618319181169850851e-03
2.692593431472540942e+03 1.113530015723698474e+00 2.553684436515832237e-03
2.695286024904014539e+03 1.140193864580516969e+00 2.284953206779216737e-03
2.697981310928919356e+03 1.168526984723711415e+00 2.218161255725280105e-03
2.700679292239849019e+03 1.199229636484862471e+00 2.172250038671772084e-03
2.703379971532089712e+03 1.230903429174049268e+00 2.166437591201780463e-03
2.706083351503622907e+03 1.263379303252879726e+00 2.176025383119816956e-03
2.708789434855127183e+03 1.295905261121549579e+00 2.064450469124300830e-03
2.711498224289983227e+03 1.329291831221658171e+00 2.256842909145834793e-03
2.714209722514274290e+03 1.363449452854888833e+00 2.432265398429907851e-03
2.716923932236789369e+03 1.397876832020609417e+00 2.608299303877569496e-03
2.719640856169027302e+03 1.432307515059323855e+00 2.872669485642081241e-03
2.722360497025197219e+03 1.464162622911052702e+00 2.807788916967954122e-03
2.725082857522223094e+03 1.495460809907746880e+00 2.668827400116496711e-03
2.727807940379746015e+03 1.524919697582776346e+00 2.377942924078464432e-03
2.730535748320126913e+03 1.553114529192252569e+00 2.243750306858000032e-03
2.733266284068447931e+03 1.578294888980852573e+00 2.299649151173542832e-03
2.735999550352517417e+03 1.601654715156123565e+00 2.307090452449811046e-03
2.738735549902870844e+03 1.622113812697191015e+00 2.338226167764119543e-03
2.741474285452774438e+03 1.638102291603416916e+00 2.167977410735642298e-03
2.744215759738227916e+03 1.653292359544809687e+00 1.959559892353202222e-03
2.746959975497967207e+03 1.667157798830899651e+00 1.957174211753989670e-03
2.749706935473466274e+03 1.679187000762488724e+00 1.894488955338380397e-03
2.752456642408940297e+03 1.690462099651888650e+00 1.755317796096497263e-03
2.755209099051350222e+03 1.701689044352673097e+00 1.902396143208269887e-03
2.757964308150402758e+03 1.711961267465840431e+00 2.258250631720646988e-03
2.760722272458554016e+03 1.719435360641294430e+00 2.343278472216302373e-03
2.763482994731013605e+03 1.726369411142443244e+00 2.476024596488179009e-03
2.766246477725745535e+03 1.732345458615019318e+00 2.562121895524524864e-03
2.769012724203471862e+03 1.736843258987330829e+00 2.326093885095100941e-03
2.771781736927676320e+03 1.738891284386484770e+00 2.056167417197649495e-03
2.774553518664604780e+03 1.738386527497811862e+00 2.051897117563146727e-03
2.777328072183270706e+03 1.735929884181725225e+00 2.051664760715247223e-03
2.780105400255454697e+03 1.732357313123922715e+00 2.015351105738522400e-03
2.782885505655710858e+03 1.726752149811127346e+00 2.059121309869988738e-03
2.785668391161367708e+03 1.718239224079595617e+00 2.013125473490861694e-03
2.788454059552529998e+03 1.707813266808743347e+00 2.158597364902631061e-03
2.791242513612083258e+03 1.696649415578158182e+00 2.234481437230538634e-03
2.794033756125696527e+03 1.683924669017542008e+00 2.581232562359971668e-03
2.796827789881823264e+03 1.671077390852889977e+00 2.912644993812852148e-03
2.799624617671705892e+03 1.656978867602383554e+00 2.616322788244223284e-03
2.802424242289378526e+03 1.644692065292520988e+00 2.331101580515605991e-03
2.805226666531668798e+03 1.634728161684260606e+00 2.275333337783320888e-03
2.808031893198201487e+03 1.627692187777236787e+00 2.375441670898994183e-03
2.810839925091400346e+03 1.622471756085460459e+00 2.427102726959134808e-03
2.813650765016492642e+03 1.618741546711337076e+00 2.527864970202119924e-03
2.816464415781510070e+03 1.617897646316370341e+00 3.054763479494279187e-03
2.819280880197292845e+03 1.616525147993628675e+00 3.051142845955743567e-03
2.822100161077491066e+03 1.615936390877248385e+00 3.205297019163944050e-03
2.824922261238569263e+03 1.616445466342491644e+00 3.236873789787055120e-03
2.827747183499808671e+03 1.620303499029924987e+00 2.899793823820694290e-03
2.830574930683309503e+03 1.622846409725820838e+00 2.872647074180902180e-03
2.833405505613993682e+03 1.625393970523530518e+00 2.854989194451677467e-03
2.836238911119608929e+03 1.627715047043720276e+00 3.001045381642361738e-03
2.839075150030729219e+03 1.629119327749030122e+00 3.367482150789582410e-03
2.841914225180761150e+03 1.628684818181977745e+00 3.563751391646843847e-03
2.844756139405942577e+03 1.625627007724624873e+00 3.553332707403070341e-03
2.847600895545349431e+03 1.621223463606172199e+00 3.560388483230687937e-03
2.850448496440895724e+03 1.617313970811322221e+00 3.552134022060494251e-03
2.853298944937337637e+03 1.610882132920709919e+00 4.071226932652959908e-03
2.856152243882275798e+03 1.603456628075464963e+00 4.473735200447193951e-03
2.859008396126159369e+03 1.597180797143020303e+00 4.353355171486558185e-03
2.861867404522286051e+03 1.591335098426769346e+00 4.183670863259466959e-03
2.864729271926809361e+03 1.586406421033167868e+00 3.858872079838321888e-03
2.867594001198737260e+03 1.583695950745037662e+00 3.775174500565763383e-03
2.870461595199936710e+03 1.583698987377366585e+00 3.896639095286344272e-03
2.873332056795137760e+03 1.585504659571037811e+00 3.902214803370788066e-03
2.876205388851934003e+03 1.590404745145551635e+00 3.642807538755468266e-03
2.879081594240786671e+03 1.597799440096279167e+00 3.118547396661232231e-03
2.881960675835028724e+03 1.607084932934028432e+00 3.314195115936155022e-03
2.884842636510864395e+03 1.616922271258500965e+00 3.252564582985580273e-03
2.887727479147376471e+03 1.628901084206663574e+00 3.283820570997762756e-03
2.890615206626524468e+03 1.640736419542101476e+00 3.078264380826551544e-03
2.893505821833151913e+03 1.652860869470828886e+00 2.768354575347249658e-03
2.896399327654986337e+03 1.668012275419647139e+00 2.857361569930124464e-03
2.899295726982642009e+03 1.684306174929982580e+00 2.600095226505967378e-03
2.902195022709625846e+03 1.700174488964128372e+00 2.346257583345692961e-03
2.905097217732336503e+03 1.715521253066122132e+00 2.389221429900978497e-03
2.908002314950069831e+03 1.730047977816593363e+00 2.379259523918393366e-03
2.910910317265020694e+03 1.742182034054404305e+00 2.393599198290237689e-03
2.913821227582286610e+03 1.755214305138969921e+00 2.412969527706851792e-03
2.916735048809870023e+03 1.767872904595311212e+00 2.859183579562852521e-03
2.919651783858680574e+03 1.777655009287610444e+00 2.898924288724858897e-03
2.922571435642540564e+03 1.785548179834670401e+00 2.867539576556344012e-03
2.925494007078184040e+03 1.792364614657925959e+00 2.658444872157785920e-03
2.928419501085263164e+03 1.796402568059304539e+00 2.387019715801551919e-03
2.931347920586349119e+03 1.797106202601556069e+00 2.369547970570625665e-03
2.934279268506936660e+03 1.794071267439093287e+00 2.611428995030244671e-03
2.937213547775444567e+03 1.787887723144108598e+00 2.068757467078292337e-03
2.940150761323221104e+03 1.781289061077502511e+00 2.040407754687769467e-03
2.943090912084544925e+03 1.773243563184585536e+00 2.078767003474797301e-03
2.946034002996630534e+03 1.763490748770658145e+00 2.075109408622748813e-03
2.948980036999628283e+03 1.752186693088777947e+00 2.041603558572413924e-03
2.951929017036628920e+03 1.741326827399851895e+00 1.921077022860671240e-03
2.954880946053666321e+03 1.729780512888963617e+00 1.778232920035218616e-03
2.957835826999721121e+03 1.716593093586118446e+00 2.027299197747487857e-03
2.960793662826721629e+03 1.704189890762126014e+00 2.181045637561150087e-03
2.963754456489549284e+03 1.692856224454237335e+00 2.163770799898648376e-03
2.966718210946040017e+03 1.681199069083140207e+00 1.302915554557637851e-03
2.969684929156986982e+03 1.673488136399024828e+00 1.353465011793405755e-03
2.972654614086145102e+03 1.668591036123725502e+00 2.002619461058854911e-03
2.975627268700231980e+03 1.663447043230106281e+00 1.998521188163954101e-03
2.978602895968933353e+03 1.659870664967994403e+00 1.999435976553443940e-03
2.981581498864903097e+03 1.657923954259416854e+00 1.824577386630148656e-03
2.984563080363769132e+03 1.657148555118237887e+00 1.731676244220241821e-03
2.987547643444133882e+03 1.656814395319193833e+00 1.686378965416445450e-03
2.990535191087578823e+03 1.655868528499940817e+00 1.641196565936983189e-03
2.993525726278667662e+03 1.656087297520269175e+00 1.966450746848791373e-03
2.996519252004947248e+03 1.655804073110271002e+00 2.048713660303827858e-03
2.999515771256953030e+03 1.654164190606382867e+00 2.034512340524677939e-03
3.002515287028211333e+03 1.651709515611021972e+00 2.055983193760226990e-03
3.005517802315240260e+03 1.648735351296628515e+00 2.117743867389376960e-03
3.008523320117556523e+03 1.646128492743714977e+00 2.201754722150608620e-03
3.011531843437674979e+03 1.643821867278155491e+00 2.215124880952574083e-03
3.014543375281113640e+03 1.641285604704105117e+00 2.128790705272643868e-03
3.017557918656395941e+03 1.638965659247398454e+00 2.082360984312475391e-03
3.020575476575053472e+03 1.637107965229311457e+00 2.060500151162351998e-03
3.023596052051629158e+03 1.634802468347769766e+00 1.906356240045068567e-03
3.026619648103681811e+03 1.634579613211711635e+00 1.905612629411859108e-03
3.029646267751786581e+03 1.637438734479387259e+00 1.919152413185936127e-03
3.032675914019539505e+03 1.639050048746436561e+00 1.894491060182761435e-03
3.035708589933559779e+03 1.641250323721284321e+00 1.860210763583826322e-03
3.038744298523494763e+03 1.643243825256715196e+00 1.928882685451390779e-03
3.041783042822019070e+03 1.646475985399181940e+00 1.922455272469586387e-03
3.044824825864842296e+03 1.649407999812976700e+00 1.873720215017041441e-03
3.047869650690708113e+03 1.653186423660607529e+00 1.677318019818596542e-03
3.050917520341399722e+03 1.659361718313274503e+00 1.678841909621654402e-03
3.053968437861742132e+03 1.665775048178152806e+00 1.699369845191605992e-03
3.057022406299604881e+03 1.671601167294055834e+00 1.703509310824659600e-03
3.060079428705905229e+03 1.677671331982866221e+00 1.690696203189895244e-03
3.063139508134612242e+03 1.682776605814842341e+00 1.794096731177115397e-03
3.066202647642748161e+03 1.687843322405745417e+00 1.752892728311235141e-03
3.069268850290391583e+03 1.693301242742144108e+00 2.118483800704369993e-03
3.072338119140682920e+03 1.697469361950319833e+00 2.044786693924410381e-03
3.075410457259824852e+03 1.699638034952039245e+00 1.970939670963840155e-03
3.078485867717085512e+03 1.699719651260547693e+00 2.031500025394213961e-03
3.081564353584803939e+03 1.697228741468821189e+00 1.909928346809017241e-03
3.084645917938389630e+03 1.693867606188307562e+00 1.857171233816390637e-03
3.087730563856328899e+03 1.690499132572269581e+00 1.664296162751702961e-03
3.090818294420186248e+03 1.683843128741066231e+00 1.770085922742124698e-03
3.093909112714607545e+03 1.676393274607754114e+00 1.758725574936196787e-03
3.097003021827323209e+03 1.667440287556426037e+00 1.732674526021227681e-03
3.100100024849151396e+03 1.657776428437338412e+00 1.724265550044814816e-03
3.103200124874001631e+03 1.646104573185014353e+00 1.716336691979644755e-03
3.106303324998876633e+03 1.635019376715879380e+00 1.704268225726491203e-03
3.109409628323876859e+03 1.624194012313444624e+00 1.691372218642308699e-03
3.112519037952201415e+03 1.613183248680688076e+00 1.679110557600671733e-03
3.115631556990154877e+03 1.600570924695922326e+00 1.713404581192164459e-03
3.118747188547145925e+03 1.587891165293663587e+00 1.706198948777799514e-03
3.121865935735694165e+03 1.573677663055642606e+00 1.535475151049547774e-03
3.124987801671431043e+03 1.560640271938789736e+00 1.532058415120512605e-03
3.128112789473103476e+03 1.548999630518258286e+00 1.556142653423161007e-03
3.131240902262577492e+03 1.536405365835415981e+00 1.576616174673280482e-03
3.134372143164840963e+03 1.522855674016620364e+00 1.560697822837829769e-03
3.137506515308006783e+03 1.508883503066501319e+00 1.565460979496296860e-03
3.140644021823316052e+03 1.495184800602087583e+00 1.556864849161071354e-03
3.143784665845140353e+03 1.482425822955884431e+00 1.543796694511361456e-03
3.146928450510986750e+03 1.470223555467742305e+00 1.689333604254125579e-03
3.150075378961498700e+03 1.458657583158099236e+00 1.738457129767122722e-03
3.153225454340461056e+03 1.450356712785207725e+00 1.784624854877670669e-03
3.156378679794802792e+03 1.444365249431716958e+00 1.753420231036823462e-03
3.159535058474598372e+03 1.440982989738906594e+00 1.656654945950961685e-03
3.162694593533074112e+03 1.440438888054880628e+00 1.188916663326945169e-03
3.165857288126608182e+03 1.444411149234120506e+00 1.636405022665401087e-03
3.169023145414736064e+03 1.451017354244321211e+00 1.757716183021795948e-03
3.172192168560151458e+03 1.459894914729690463e+00 1.475168362908526373e-03
3.175364360728712654e+03 1.469286967600438309e+00 1.383428436247824888e-03
3.178539725089442527e+03 1.479159625723149407e+00 1.202433904536904944e-03
3.181718264814533086e+03 1.488387188622255275e+00 1.318466317780814159e-03
3.184899983079348658e+03 1.497068464992694414e+00 1.611973986383573613e-03
3.188084883062429071e+03 1.504166627366619435e+00 1.551804015607004782e-03
3.191272967945492383e+03 1.507892089389356371e+00 1.447796688960846815e-03
3.194464240913438971e+03 1.507537258502375410e+00 1.625299776873108783e-03
3.197658705154353811e+03 1.504755966654864885e+00 1.671776660152313491e-03
3.200856363859509202e+03 1.499596156281919779e+00 1.704103039419379217e-03
3.204057220223369768e+03 1.492342223717769034e+00 1.748662930880106508e-03
3.207261277443593826e+03 1.482098697198560355e+00 2.159186264598168467e-03
3.210468538721038840e+03 1.471351126985406266e+00 2.092928388837454832e-03
3.213679007259760965e+03 1.461147558143311098e+00 1.990678119460707017e-03
3.216892686267021418e+03 1.451901118180511041e+00 1.848538438729992704e-03
3.220109578953289656e+03 1.443318486420345215e+00 1.648254672802340571e-03
3.223329688532243836e+03 1.436920472153365491e+00 1.716884842506703627e-03
3.226553018220777176e+03 1.432959822434490604e+00 1.479067787328048819e-03
3.229779571238999324e+03 1.430343333117148230e+00 1.416676471063235904e-03
3.233009350810239084e+03 1.429268614684242378e+00 1.778625829348124071e-03
3.236242360161050783e+03 1.430619561401496931e+00 1.747361385477138934e-03
3.239478602521212906e+03 1.433830804696427430e+00 1.545448245694440318e-03
3.242718081123734919e+03 1.440004917552653252e+00 2.023049125460519865e-03
3.245960799204859995e+03 1.447165159178927851e+00 2.063000505212757209e-03
3.249206760004065927e+03 1.455426328901566979e+00 2.084383031942380147e-03
3.252455966764071036e+03 1.463547062202999127e+00 2.050633211690527577e-03
3.255708422730835991e+03 1.470423074400510455e+00 2.090712240313539246e-03
3.258964131153567905e+03 1.477787337223577468e+00 1.992950577331449417e-03
3.262223095284722604e+03 1.484595145231653035e+00 1.913549131503098407e-03
3.265485318380008266e+03 1.490417302790798093e+00 1.913309453737818341e-03
3.268750803698389518e+03 1.494239787952870380e+00 1.715394351620216093e-03
3.272019554502088795e+03 1.497714545689021515e+00 1.604059214744855272e-03
3.275291574056592253e+03 1.499970025510477756e+00 1.550078676643116627e-03
3.278566865630649772e+03 1.502971563844067493e+00 1.531161844303021878e-03
3.281845432496281319e+03 1.505856910565106288e+00 1.521081159671915312e-03
3.285127277928778767e+03 1.509727545951065508e+00 1.449331258396300117e-03
3.288412405206708627e+03 1.513703573066457642e+00 1.438870189856237799e-03
3.291700817611916591e+03 1.517636956988230867e+00 1.432861683563412371e-03
3.294992518429529355e+03 1.520638798744519571e+00 1.190170971171540699e-03
3.298287510947960072e+03 1.524324417767749962e+00 1.261820395324563752e-03
3.301585798458909267e+03 1.527978677963220733e+00 1.575764942351840121e-03
3.304887384257369376e+03 1.531169624550857034e+00 1.453713646534867667e-03
3.308192271641627485e+03 1.532658446874442193e+00 1.485436566350048157e-03
3.311500463913270323e+03 1.533176098465001580e+00 1.182609450904319138e-03
3.314811964377184722e+03 1.530919897811880537e+00 9.581526038625075075e-04
3.318126776341563072e+03 1.525219642012726196e+00 1.763862003357914579e-03
3.321444903117905596e+03 1.518589435279848576e+00 2.037893931042247461e-03
3.324766348021024896e+03 1.511281630456347447e+00 1.844387120595671753e-03
3.328091114369046863e+03 1.503683701393596861e+00 1.782153252811745792e-03
3.331419205483417045e+03 1.495608153887674652e+00 1.822807124589272999e-03
3.334750624688901553e+03 1.487183033559666523e+00 1.807223586018208081e-03
3.338085375313591612e+03 1.477930237210095532e+00 1.762565498505197633e-03
3.341423460688906289e+03 1.469768014708014103e+00 1.713305566322893998e-03
3.344764884149596128e+03 1.461579342908218226e+00 1.689824703067169080e-03
3.348109649033746791e+03 1.453522213225155291e+00 1.650325072355712580e-03
3.351457758682781787e+03 1.445537119809874982e+00 1.644992365010457041e-03
3.354809216441465651e+03 1.437765584247140849e+00 1.640591518550831452e-03
3.358164025657908041e+03 1.429119634947287221e+00 1.586746724875286304e-03
3.361522189683567376e+03 1.420570414958176153e+00 1.616390070237176419e-03
3.364883711873251741e+03 1.413115844574437840e+00 1.636172743306946783e-03
3.368248595585126168e+03 1.406027286975328749e+00 1.670519378891333973e-03
3.371616844180712633e+03 1.400006188813732733e+00 1.620597552588610817e-03
