# starting wavelength: 3272.200
# ending wavelength: 8045.030
# wav flux eflux
3.275291574056592253e+03 7.181839476047678916e-01 8.222103566759429716e-02
3.278566865630649772e+03 7.469141523254482218e-01 6.415614154131149549e-02
3.281845432496281319e+03 7.715535059393981987e-01 5.311424042666018641e-02
3.285127277928778767e+03 7.975702790408081277e-01 4.651190482317000413e-02
3.288412405206708627e+03 8.313403943724370082e-01 3.823089945654352395e-02
3.291700817611916591e+03 8.703977049731527194e-01 3.058573519252879777e-02
3.294992518429529355e+03 9.090643657035704095e-01 2.523323839263605026e-02
3.298287510947960072e+03 9.418403813307647532e-01 2.271591135049045446e-02
3.301585798458909267e+03 9.655666723504239268e-01 2.126202326632678150e-02
3.304887384257369376e+03 9.799140875044405341e-01 2.019102056494993108e-02
3.308192271641627485e+03 9.857744844229261449e-01 1.937685950649996672e-02
3.311500463913270323e+03 9.907889584995308585e-01 1.747606101476307031e-02
3.314811964377184722e+03 9.820249217607784908e-01 1.808252423681049048e-02
3.318126776341563072e+03 9.704569421827068387e-01 1.807338005442516923e-02
3.321444903117905596e+03 9.588877733432564776e-01 1.757056052694106613e-02
3.324766348021024896e+03 9.427532193618698431e-01 1.816077829394627946e-02
3.328091114369046863e+03 9.281913703290447515e-01 1.859576206537506132e-02
3.331419205483417045e+03 9.169697300962255104e-01 1.881560929297305951e-02
3.334750624688901553e+03 9.062068534778356943e-01 1.806481056838895455e-02
3.338085375313591612e+03 8.986454643375747509e-01 1.724938794647657564e-02
3.341423460688906289e+03 8.944387364950263652e-01 1.597348288362722760e-02
3.344764884149596128e+03 8.964539257917235604e-01 1.529333222839286514e-02
3.348109649033746791e+03 9.054063154028255678e-01 1.458434583566250650e-02
3.351457758682781787e+03 9.199644789731041827e-01 1.418387942797012108e-02
3.354809216441465651e+03 9.425825376124603583e-01 1.509498893456423518e-02
3.358164025657908041e+03 9.652647115993593374e-01 1.551875755280421668e-02
3.361522189683567376e+03 9.995018527470909131e-01 1.642306817169832817e-02
3.364883711873251741e+03 1.039314064614105027e+00 1.694760821172645870e-02
3.368248595585126168e+03 1.083927561118834593e+00 1.624721581010356297e-02
3.371616844180712633e+03 1.133412276466207569e+00 1.423118878914551334e-02
3.374988461024894150e+03 1.183974254034704465e+00 1.203187269730084975e-02
3.378363449485920228e+03 1.236920512736653821e+00 8.494047095551642348e-03
3.381741812935407324e+03 1.275769497514920969e+00 6.446252254385332649e-03
3.385123554748343849e+03 1.303133138889724485e+00 6.570128922718326825e-03
3.388508678303093347e+03 1.322652244272738420e+00 6.799572102558101155e-03
3.391897186981397681e+03 1.336995848648978358e+00 6.905215297418257694e-03
3.395289084168380214e+03 1.345788957170370947e+00 6.889336802924364393e-03
3.398684373252549449e+03 1.346976063445715521e+00 6.633245205044577091e-03
3.402083057625803121e+03 1.342129673523589251e+00 6.644827261252553297e-03
3.405485140683430018e+03 1.329178516952736366e+00 6.707362668453853601e-03
3.408890625824114522e+03 1.311349850163721298e+00 6.888031783677009759e-03
3.412299516449939802e+03 1.282937407051542467e+00 8.385942387032023146e-03
3.415711815966390986e+03 1.248828286852996072e+00 9.665275406104461772e-03
3.419127527782358356e+03 1.210335218651267919e+00 1.042787376654154968e-02
3.422546655310141887e+03 1.170751361450957040e+00 1.087284532795440746e-02
3.425969201965453522e+03 1.126673586049887321e+00 1.113224206613925432e-02
3.429395171167419903e+03 1.085743008317014535e+00 1.110561282565732458e-02
3.432824566338588284e+03 1.050347540318481432e+00 1.121333776804539148e-02
3.436257390904928343e+03 1.021982551856547961e+00 1.076826581092588803e-02
3.439693648295834464e+03 9.978795465796191921e-01 9.433554442265172646e-03
3.443133341944131189e+03 9.795687585095245176e-01 9.028906930113492907e-03
3.446576475286076402e+03 9.694969308795248208e-01 9.511186442122076395e-03
3.450023051761363604e+03 9.665054124789571599e-01 9.993228633310027517e-03
3.453473074813126004e+03 9.695276947996507300e-01 1.116164550981792007e-02
3.456926547887940615e+03 9.724071345192379923e-01 1.150318114969013823e-02
3.460383474435829612e+03 9.868468755645742885e-01 1.380683758257932568e-02
3.463843857910266706e+03 1.005207766384687451e+00 1.453302861551615185e-02
3.467307701768178049e+03 1.021799151474269918e+00 1.388851837743097437e-02
3.470775009469947236e+03 1.035422013955514142e+00 1.256346778248405675e-02
3.474245784479418489e+03 1.047513253436545444e+00 1.162656482386254311e-02
3.477720030263898934e+03 1.051345822546654984e+00 1.169565113552684978e-02
3.481197750294164052e+03 1.053910206945771755e+00 1.158385886341037341e-02
3.484678948044459503e+03 1.052567582540586022e+00 1.216383120538504746e-02
3.488163626992504760e+03 1.046632818992583980e+00 1.318369615093559558e-02
3.491651790619498570e+03 1.033939081021232109e+00 1.343627966592372651e-02
3.495143442410119405e+03 1.018935838084402024e+00 1.158997231588551266e-02
3.498638585852530468e+03 1.006183068405776204e+00 9.478406138545288073e-03
3.502137224438384237e+03 9.955910272524938209e-01 8.205161096106047477e-03
3.505639361662823831e+03 9.848853658625001950e-01 8.019182345668941087e-03
3.509145001024487556e+03 9.805110876747326065e-01 8.657042277133854269e-03
3.512654146025513455e+03 9.767297747369141359e-01 9.143217988346221195e-03
3.516166800171540217e+03 9.729397986292386280e-01 9.332222368831182002e-03
3.519682966971712631e+03 9.715336390216533502e-01 9.283452659779915794e-03
3.523202649938685681e+03 9.716855372959383175e-01 8.784381667027371665e-03
3.526725852588625457e+03 9.748156283262761068e-01 8.191846712417722928e-03
3.530252578441215064e+03 9.769372737936572459e-01 8.109892705548116948e-03
3.533782831019657806e+03 9.793962578310357880e-01 8.110224323417703288e-03
3.537316613850678550e+03 9.814536588503997017e-01 8.343599271645307097e-03
3.540853930464530094e+03 9.842752106926317968e-01 8.740431475716457441e-03
3.544394784394995895e+03 9.877482718117361893e-01 8.741790180432253490e-03
3.547939179179392340e+03 9.905023732287118188e-01 7.719808692012350947e-03
3.551487118358572843e+03 9.920819277725204666e-01 7.160401525318355054e-03
3.555038605476932389e+03 9.947572861194764471e-01 6.503348536541881178e-03
3.558593644082410719e+03 1.000422480415070092e+00 7.278799943196360284e-03
3.562152237726494150e+03 1.008632725389792650e+00 7.377843157515592831e-03
3.565714389964221937e+03 1.015781050461838086e+00 7.543712851179474287e-03
3.569280104354187188e+03 1.022466257737508988e+00 7.035949178270505672e-03
3.572849384458542772e+03 1.021492136756294355e+00 6.212757475746342670e-03
3.576422233843002232e+03 1.014825899711407020e+00 5.809264952750278592e-03
3.579998656076846601e+03 1.002569693397430406e+00 6.718604863838116038e-03
3.583578654732924406e+03 9.853078280300291425e-01 7.801865420721701243e-03
3.587162233387658489e+03 9.647158758330827144e-01 7.927285475121413627e-03
3.590749395621047370e+03 9.405597223422661468e-01 6.803889786192680866e-03
3.594340145016669794e+03 9.164067433812635999e-01 5.873791956818284060e-03
3.597934485161687462e+03 8.930871986064401469e-01 5.529824631852668301e-03
3.601532419646850485e+03 8.700189979661288042e-01 5.582501023038834859e-03
3.605133952066498296e+03 8.487756766325504909e-01 5.513900829042146963e-03
3.608739086018566013e+03 8.293038861992735322e-01 5.473791327080846335e-03
3.612347825104585809e+03 8.123158390695726094e-01 5.538245000375708813e-03
3.615960172929691907e+03 7.984723175469020662e-01 5.927018489012571799e-03
3.619576133102622407e+03 7.902950564311097548e-01 5.256598133869508707e-03
3.623195709235726554e+03 7.839018841883904631e-01 4.623729291396856331e-03
3.626818904944963379e+03 7.771043673557835874e-01 3.686724204982992116e-03
3.630445723849909427e+03 7.677272711615765743e-01 5.384344245305334314e-03
3.634076169573760581e+03 7.595548128747762195e-01 6.537372272728207701e-03
3.637710245743335690e+03 7.575240098048293680e-01 6.452708336213174196e-03
3.641347955989080219e+03 7.599404119723669471e-01 6.192135013111432600e-03
3.644989303945070333e+03 7.644300784578333952e-01 5.625844083993376127e-03
3.648634293249016537e+03 7.736036829627754852e-01 5.248766838541267001e-03
3.652282927542266862e+03 7.880874552128198651e-01 4.929870965488359659e-03
3.655935210469810499e+03 8.113086237525610755e-01 5.244244503869504616e-03
3.659591145680281443e+03 8.400599286468970472e-01 5.445391567101191474e-03
3.663250736825963031e+03 8.727788452043203637e-01 5.763835517484694124e-03
3.666913987562790226e+03 9.054583414268759789e-01 5.856098435596451823e-03
3.670580901550354156e+03 9.396121595647098923e-01 5.682085064111123442e-03
3.674251482451905758e+03 9.753117314928101411e-01 5.297326375376251555e-03
3.677925733934358959e+03 1.010792714344293408e+00 4.992226981655892640e-03
3.681603659668294313e+03 1.044868449926622089e+00 4.732306723213462567e-03
3.685285263327964003e+03 1.074598256049620337e+00 4.822709250493381790e-03
3.688970548591293209e+03 1.100612384631733276e+00 4.697165156521494224e-03
3.692659519139885560e+03 1.123818701932709052e+00 4.424248838823858013e-03
3.696352178659026777e+03 1.142956708325925996e+00 4.555073992242538762e-03
3.700048530837686940e+03 1.160655463940229337e+00 4.709833221148708796e-03
3.703748579368525952e+03 1.175695469537916926e+00 4.424527228969338428e-03
3.707452327947895355e+03 1.187144502119860334e+00 4.800923714674324404e-03
3.711159780275844696e+03 1.191982015898900071e+00 5.090344213533468803e-03
3.714870940056121526e+03 1.197590961188716774e+00 4.553359836146845217e-03
3.718585810996179134e+03 1.205350424715357471e+00 4.551371416192568492e-03
3.722304396807176545e+03 1.214487999305488453e+00 4.728171587643791897e-03
3.726026701203984885e+03 1.222031225992525449e+00 4.790450904941930335e-03
3.729752727905190113e+03 1.228401748027206475e+00 4.825108247175327776e-03
3.733482480633096657e+03 1.236921500893924497e+00 5.045802596145787522e-03
3.737215963113731050e+03 1.244299429602114593e+00 4.789701161171736055e-03
3.740953179076846027e+03 1.247564382024708207e+00 4.531443216370478408e-03
3.744694132255923705e+03 1.250355117136066507e+00 4.593481155458389170e-03
3.748438826388181042e+03 1.247136421726671607e+00 6.225517690408192278e-03
3.752187265214570289e+03 1.244042084892353683e+00 6.527986471196765145e-03
3.755939452479786269e+03 1.241885994517368363e+00 6.552111529500063807e-03
3.759695391932267285e+03 1.238130219897140449e+00 7.285924590073625425e-03
3.763455087324201031e+03 1.228720851445182172e+00 7.174040611836222762e-03
3.767218542411526414e+03 1.217943170039414547e+00 7.310791453140993122e-03
3.770985760953939007e+03 1.206624448595432941e+00 6.950773338239592952e-03
3.774756746714894234e+03 1.191601014994973617e+00 6.325163059463561645e-03
3.778531503461610555e+03 1.174100673526607075e+00 5.848516190476477257e-03
3.782310034965073100e+03 1.149738845963656386e+00 6.315123958524619663e-03
3.786092345000039586e+03 1.123173406642521854e+00 6.427611357114579836e-03
3.789878437345040766e+03 1.095314995475506370e+00 6.323857468647852732e-03
3.793668315782387253e+03 1.066669206645260992e+00 5.633514817397444925e-03
3.797461984098170888e+03 1.041981211698398857e+00 5.521366140327877564e-03
3.801259446082270188e+03 1.019773019343474196e+00 5.737101810202686718e-03
3.805060705528353537e+03 1.001394117026698449e+00 6.626524812024232533e-03
3.808865766233883278e+03 9.858382222038448717e-01 5.567888536393537230e-03
3.812674632000118436e+03 9.709906727812518401e-01 5.272459333234774150e-03
3.816487306632119726e+03 9.568091172233427200e-01 5.755522182518509750e-03
3.820303793938753188e+03 9.439543993642737219e-01 5.049280109213802673e-03
3.824124097732693372e+03 9.362571739874304688e-01 4.730451895325515216e-03
3.827948221830427428e+03 9.343204875298077861e-01 5.127613454832477720e-03
3.831776170052258749e+03 9.349488164036524607e-01 5.046525067808720934e-03
3.835607946222312421e+03 9.379034284903255969e-01 4.988781119602644920e-03
3.839443554168536139e+03 9.461962179774147108e-01 5.294318884889868959e-03
3.843282997722705659e+03 9.562428773975756302e-01 5.301690264392045979e-03
3.847126280720429804e+03 9.689925771033328639e-01 5.453423847815298646e-03
3.850973407001151372e+03 9.872267232245387492e-01 5.516527381894127668e-03
3.854824380408153957e+03 1.007302136967946238e+00 5.605113455247646113e-03
3.858679204788563311e+03 1.031891572836700632e+00 5.658316855225891014e-03
3.862537883993353262e+03 1.058382138774662584e+00 5.777290349513406094e-03
3.866400421877347981e+03 1.085785625122776210e+00 5.739362745092643422e-03
3.870266822299226533e+03 1.116110599441803908e+00 5.752182700256048241e-03
3.874137089121526969e+03 1.148909605108169529e+00 5.588821811575496804e-03
3.878011226210649966e+03 1.184153533955399906e+00 3.911241686371966404e-03
3.881889237436861549e+03 1.214488970850894356e+00 4.056781948648699281e-03
3.885771126674299921e+03 1.241914031965599241e+00 3.879074204765932225e-03
3.889656897800975457e+03 1.267176766540287769e+00 3.832248161649545650e-03
3.893546554698777527e+03 1.290632004624107321e+00 3.648319318640495627e-03
3.897440101253477678e+03 1.313518940001785262e+00 3.690668319047268019e-03
3.901337541354732366e+03 1.335098474700543658e+00 3.669314692150215523e-03
3.905238878896088409e+03 1.354388778737956933e+00 3.148947161002182103e-03
3.909144117774985716e+03 1.374760971258664144e+00 3.277857191855938594e-03
3.913053261892762293e+03 1.395014764790985851e+00 2.217094071708493059e-03
3.916966315154656058e+03 1.410960807090029467e+00 2.209626088307286521e-03
3.920883281469812118e+03 1.426679367461528347e+00 3.358065846458441889e-03
3.924804164751283224e+03 1.436913520848094539e+00 3.416950805957249052e-03
3.928728968916035683e+03 1.442323346229026360e+00 4.227514702837621360e-03
3.932657697884953450e+03 1.446930697335458760e+00 5.368935579508743103e-03
3.936590355582839493e+03 1.453157073674356647e+00 5.438313949463747382e-03
3.940526945938423523e+03 1.458852939516484648e+00 5.278456340970582444e-03
3.944467472884363360e+03 1.464283877057315220e+00 4.951732986988736755e-03
3.948411940357249023e+03 1.474200159108133068e+00 4.880725461069785470e-03
3.952360352297607733e+03 1.486688366744261192e+00 5.141150715904272209e-03
3.956312712649906643e+03 1.499123641850292454e+00 5.210491949118711830e-03
3.960269025362557841e+03 1.514998068438437651e+00 5.294137044580964763e-03
3.964229294387921527e+03 1.529879859860955316e+00 5.411900401144664231e-03
3.968193523682310570e+03 1.541937842088876964e+00 4.793447089581089234e-03
3.972161717205994591e+03 1.549767655612664496e+00 4.412575464515019509e-03
3.976133878923201792e+03 1.550651712299059293e+00 4.460095524512516611e-03
3.980110012802126221e+03 1.545405948784216887e+00 5.450431225672222602e-03
3.984090122814929600e+03 1.535551970668794119e+00 5.683807537805335777e-03
3.988074212937745870e+03 1.523280400493189468e+00 4.850936539446541393e-03
3.992062287150684824e+03 1.508302553295749027e+00 4.335333238149590568e-03
3.996054349437837118e+03 1.494256225883232592e+00 4.123632652955113061e-03
4.000050403787276082e+03 1.478573170696424022e+00 4.126231369752425895e-03
4.004050454191064546e+03 1.459801228111945015e+00 3.920492005912511180e-03
4.008054504645257111e+03 1.440975966319266721e+00 4.057535701467165738e-03
4.012062559149903791e+03 1.423515506273845377e+00 3.734953697181248120e-03
4.016074621709055009e+03 1.403322013818688596e+00 3.405810105627075663e-03
4.020090696330765240e+03 1.380065283736243931e+00 3.381199384983326565e-03
4.024110787027097558e+03 1.356351361192893679e+00 3.238439994018771015e-03
4.028134897814125907e+03 1.330846885246000699e+00 3.614270430293022290e-03
4.032163032711941469e+03 1.305186600496321736e+00 3.310295841148490261e-03
4.036195195744654484e+03 1.282296800625096322e+00 3.067503900822650485e-03
4.040231390940400615e+03 1.262001048667544811e+00 3.623529986054076397e-03
4.044271622331342314e+03 1.247191063999181226e+00 3.878254448262849832e-03
4.048315893953675186e+03 1.241162512422741004e+00 3.872488419095187259e-03
4.052364209847629809e+03 1.240849592435465665e+00 4.020026013346638359e-03
4.056416574057479011e+03 1.246137666271391220e+00 4.556707954381376130e-03
4.060472990631537868e+03 1.256617499741614630e+00 4.587950582715061461e-03
4.064533463622170530e+03 1.274639325301881509e+00 3.656875965197582852e-03
4.068597997085794304e+03 1.296006515723827190e+00 3.478408946329879584e-03
4.072666595082881486e+03 1.318242648370528292e+00 3.350269515234486923e-03
4.076739261677965715e+03 1.340712517716941221e+00 4.047948664487048716e-03
4.080816000939644709e+03 1.363537509742017706e+00 4.979287860969005067e-03
4.084896816940585722e+03 1.389805964825597595e+00 4.872109804261164946e-03
4.088981713757527814e+03 1.419198732509942884e+00 4.956301016305307561e-03
4.093070695471286854e+03 1.448462631878780549e+00 5.165385710063964859e-03
4.097163766166759160e+03 1.475864903906246584e+00 5.132368786243297898e-03
4.101260929932927866e+03 1.502716911427186330e+00 5.226405259194563321e-03
4.105362190862862008e+03 1.527791871030348636e+00 5.507532827197293181e-03
4.109467553053726078e+03 1.549162043921855858e+00 5.016930000271160872e-03
4.113577020606780934e+03 1.564903503461984702e+00 4.536569872504015929e-03
4.117690597627389252e+03 1.569053420519805897e+00 4.780802637865518880e-03
4.121808288225018259e+03 1.561279917739167189e+00 4.700232153230865864e-03
4.125930096513244280e+03 1.542668103717335093e+00 4.828679130505202782e-03
4.130056026609759101e+03 1.513465243951018779e+00 6.627923981717980320e-03
4.134186082636369974e+03 1.476380615498951387e+00 8.515128808506947436e-03
4.138320268719007800e+03 1.435536750918641857e+00 7.648661954032199770e-03
4.142458588987728035e+03 1.396019958757400481e+00 6.845248909653956285e-03
4.146601047576717065e+03 1.359457606874131974e+00 7.018438069743353561e-03
4.150747648624294925e+03 1.323844365101171983e+00 7.263703215363372795e-03
4.154898396272920763e+03 1.288321171469242632e+00 7.588529776500724071e-03
4.159053294669195566e+03 1.254017234119951807e+00 7.745332646928861781e-03
4.163212347963865795e+03 1.222609464092823339e+00 7.401220560092803755e-03
4.167375560311830668e+03 1.195164557148023610e+00 6.458883971601196532e-03
4.171542935872143971e+03 1.170566981833512932e+00 5.886097222845127624e-03
4.175714478808017702e+03 1.145199562101821389e+00 5.885848921004076771e-03
4.179890193286827525e+03 1.119759617906121552e+00 5.937557100640905756e-03
4.184070083480115500e+03 1.095034016553150247e+00 5.987034516650107697e-03
4.188254153563597356e+03 1.074228986662580265e+00 5.024015738220416818e-03
4.192442407717161586e+03 1.062392419889574002e+00 4.738604824906803015e-03
4.196634850124880359e+03 1.058788396139799470e+00 4.719410947025678635e-03
4.200831484975006788e+03 1.063499214642702251e+00 4.726793826060091824e-03
4.205032316459983122e+03 1.073733752952891196e+00 4.452510899823343242e-03
4.209237348776444378e+03 1.087316169597953186e+00 5.180160476760031253e-03
4.213446586125221984e+03 1.102264434184161424e+00 6.411296877840749232e-03
4.217660032711349231e+03 1.117201559822092793e+00 6.574596556539837912e-03
4.221877692744061278e+03 1.130635943781519215e+00 6.127473183417027694e-03
4.226099570436806971e+03 1.140265590708676280e+00 5.954685929014369265e-03
4.230325670007245208e+03 1.146673051693943179e+00 6.827129024681485511e-03
4.234555995677254032e+03 1.152019086059441921e+00 7.411953534218467844e-03
4.238790551672932452e+03 1.154576430473891246e+00 7.572219343587850704e-03
4.243029342224606808e+03 1.156294751519877817e+00 6.081001831694894319e-03
4.247272371566832589e+03 1.158968364364193260e+00 4.871619586874802871e-03
4.251519643938400804e+03 1.164911228582580005e+00 5.016192169033320374e-03
4.255771163582340705e+03 1.173725011042168642e+00 4.800449213268047355e-03
4.260026934745924336e+03 1.184008791101158753e+00 4.809180368620350962e-03
4.264286961680671993e+03 1.193979480871832921e+00 4.602171285716052766e-03
