# starting wavelength: 2816.600
# ending wavelength: 5825.250
# wav flux eflux
2.819280880197292845e+03 2.871049360276761719e-01 2.068854617541469529e-02
2.822100161077491066e+03 3.283023017086600381e-01 1.538922045471484944e-02
2.824922261238569263e+03 3.547753214318876136e-01 1.305920735369981052e-02
2.827747183499808671e+03 3.722275409374292132e-01 1.028899008976239850e-02
2.830574930683309503e+03 3.824174591602551576e-01 9.086749179286831776e-03
2.833405505613993682e+03 3.884827862987284552e-01 8.594354574282972101e-03
2.836238911119608929e+03 3.953561485674910725e-01 6.892563377630861465e-03
2.839075150030729219e+03 3.999653478387521499e-01 5.637716553172415941e-03
2.841914225180761150e+03 4.029901406651877349e-01 4.597871478587193216e-03
2.844756139405942577e+03 4.053737479446807290e-01 3.944245113995942763e-03
2.847600895545349431e+03 4.079935418109607026e-01 3.423502822338715494e-03
2.850448496440895724e+03 4.121090520222157050e-01 3.232829758466711310e-03
2.853298944937337637e+03 4.180200924572225474e-01 3.203388654872462403e-03
2.856152243882275798e+03 4.264919858132059094e-01 3.590459017690762322e-03
2.859008396126159369e+03 4.353609257589253212e-01 3.451026969603611643e-03
2.861867404522286051e+03 4.460961212476770021e-01 3.477012587924519210e-03
2.864729271926809361e+03 4.573451896958472540e-01 3.368143995712651311e-03
2.867594001198737260e+03 4.690490225115443446e-01 3.243270793742890779e-03
2.870461595199936710e+03 4.821648555609523434e-01 3.122464917245607735e-03
2.873332056795137760e+03 4.970736417165543819e-01 3.086786953625057176e-03
2.876205388851934003e+03 5.129268298983000740e-01 2.969517616120323240e-03
2.879081594240786671e+03 5.305150936142050133e-01 2.874036824047798699e-03
2.881960675835028724e+03 5.491244149475744685e-01 2.875610106589703008e-03
2.884842636510864395e+03 5.683759433975977826e-01 2.894869564752754545e-03
2.887727479147376471e+03 5.872580803374062297e-01 2.920803507422807792e-03
2.890615206626524468e+03 6.060691379475728890e-01 3.025505933214620111e-03
2.893505821833151913e+03 6.239936507106483843e-01 3.105013395961585786e-03
2.896399327654986337e+03 6.411398757678489213e-01 3.224750414801886168e-03
2.899295726982642009e+03 6.577420056036427098e-01 3.449640040630448136e-03
2.902195022709625846e+03 6.718875304432526674e-01 3.533073766679118051e-03
2.905097217732336503e+03 6.870168176296421736e-01 3.740723249138334146e-03
2.908002314950069831e+03 6.984657199817945195e-01 3.656444488504545856e-03
2.910910317265020694e+03 7.082630533523329719e-01 3.633326194221684399e-03
2.913821227582286610e+03 7.149871251866731781e-01 3.439184458486024831e-03
2.916735048809870023e+03 7.162891731939511342e-01 3.657617013977329003e-03
2.919651783858680574e+03 7.152989556178007691e-01 3.813515878098289787e-03
2.922571435642540564e+03 7.121639168398453679e-01 3.913997810842828433e-03
2.925494007078184040e+03 7.069966022444822418e-01 3.957898043384949771e-03
2.928419501085263164e+03 6.988376571828294193e-01 4.163078001134103839e-03
2.931347920586349119e+03 6.886305172792057672e-01 4.534403649440804304e-03
2.934279268506936660e+03 6.783861754034522518e-01 4.665747046044855899e-03
2.937213547775444567e+03 6.622633210852331143e-01 5.021992124704940247e-03
2.940150761323221104e+03 6.466674065185827880e-01 4.621655746340445729e-03
2.943090912084544925e+03 6.301606785682953848e-01 3.120781605321851660e-03
2.946034002996630534e+03 6.182341463806246828e-01 3.210880781541739469e-03
2.948980036999628283e+03 6.077818872060037902e-01 3.750993586331979272e-03
2.951929017036628920e+03 5.987257270569001921e-01 4.185852672824453592e-03
2.954880946053666321e+03 5.888158818791557891e-01 4.242207148412694036e-03
2.957835826999721121e+03 5.799553261774754720e-01 3.975920959262651926e-03
2.960793662826721629e+03 5.702239667378661281e-01 3.837727691914601981e-03
2.963754456489549284e+03 5.608492941246249197e-01 3.919385187433321524e-03
2.966718210946040017e+03 5.515645105063942122e-01 3.834492175129625320e-03
2.969684929156986982e+03 5.433879186241956649e-01 3.782333746195556436e-03
2.972654614086145102e+03 5.361680966795625558e-01 3.470662387518318008e-03
2.975627268700231980e+03 5.264912566162402996e-01 3.420026361805689630e-03
2.978602895968933353e+03 5.158218902689148955e-01 3.400634895121952290e-03
2.981581498864903097e+03 5.039832755368780504e-01 3.421386698638092042e-03
2.984563080363769132e+03 4.910107405316156415e-01 3.379907800542930694e-03
2.987547643444133882e+03 4.787259826439552723e-01 3.270035414038715768e-03
2.990535191087578823e+03 4.662310808108139359e-01 3.228515226770487748e-03
2.993525726278667662e+03 4.543872102883634856e-01 3.349367225646448804e-03
2.996519252004947248e+03 4.415619875000841854e-01 3.301045598047323316e-03
2.999515771256953030e+03 4.306925430225996276e-01 3.283274291559435103e-03
3.002515287028211333e+03 4.184520597200820369e-01 3.210939396336097949e-03
3.005517802315240260e+03 4.100712047814319416e-01 3.186137701582179849e-03
3.008523320117556523e+03 4.041200473595109033e-01 3.129331895497558438e-03
3.011531843437674979e+03 4.004338467631725074e-01 3.080689765812212426e-03
3.014543375281113640e+03 3.958812213501055055e-01 3.140816930361415779e-03
3.017557918656395941e+03 3.924729755334718240e-01 3.081465090770467343e-03
3.020575476575053472e+03 3.897949543502316483e-01 2.550371493741961440e-03
3.023596052051629158e+03 3.894511249596616098e-01 2.615132649443449586e-03
3.026619648103681811e+03 3.920337539780333058e-01 2.711666732498911516e-03
3.029646267751786581e+03 3.969123495481802766e-01 2.611668400942645987e-03
3.032675914019539505e+03 4.042198808308060110e-01 2.160720957120615925e-03
3.035708589933559779e+03 4.099189804160857098e-01 2.349365708610300606e-03
3.038744298523494763e+03 4.159532283385164453e-01 2.903463450579119379e-03
3.041783042822019070e+03 4.239669886683914424e-01 2.629542566024059991e-03
3.044824825864842296e+03 4.342681854631807448e-01 2.650173929169662677e-03
3.047869650690708113e+03 4.465727153277059269e-01 2.768011855313757229e-03
3.050917520341399722e+03 4.597563525123364858e-01 2.984066449180308028e-03
3.053968437861742132e+03 4.726496033939289187e-01 3.135922442220168225e-03
3.057022406299604881e+03 4.864440540162503490e-01 3.161331980722564220e-03
3.060079428705905229e+03 4.997918146781383797e-01 3.282019656268270798e-03
3.063139508134612242e+03 5.155551321044371527e-01 3.244245468694451073e-03
3.066202647642748161e+03 5.311076390613963527e-01 3.249823943633845316e-03
3.069268850290391583e+03 5.450227653358703517e-01 3.502400467601710522e-03
3.072338119140682920e+03 5.598939285596474802e-01 3.526225723636582966e-03
3.075410457259824852e+03 5.746549939444031141e-01 3.411990451102233854e-03
3.078485867717085512e+03 5.900449674305897618e-01 3.456953847171433721e-03
3.081564353584803939e+03 6.054563899204895572e-01 3.467524137402972721e-03
3.084645917938389630e+03 6.212424707268573432e-01 3.633744069207528980e-03
3.087730563856328899e+03 6.348764555109790431e-01 3.417438426034454749e-03
3.090818294420186248e+03 6.491498363066676713e-01 3.447898341337829985e-03
3.093909112714607545e+03 6.643854604830873312e-01 3.522464813749569355e-03
3.097003021827323209e+03 6.801463585451558158e-01 3.283946371562439497e-03
3.100100024849151396e+03 6.949100551690661209e-01 3.168080165043018950e-03
3.103200124874001631e+03 7.059344609514459634e-01 3.314130834945294094e-03
3.106303324998876633e+03 7.146930253792211918e-01 2.764501865224488347e-03
3.109409628323876859e+03 7.264762735390333237e-01 2.827809817849727316e-03
3.112519037952201415e+03 7.390349164723140074e-01 3.422775531204052396e-03
3.115631556990154877e+03 7.497725996990548536e-01 3.617801426487612937e-03
3.118747188547145925e+03 7.607885266675300517e-01 3.366855592783638343e-03
3.121865935735694165e+03 7.700482555144313457e-01 3.540088197616910078e-03
3.124987801671431043e+03 7.756503743916288718e-01 3.588054870093543899e-03
3.128112789473103476e+03 7.802707436991015433e-01 3.323293016254182195e-03
3.131240902262577492e+03 7.821742842410805974e-01 3.050357819267589168e-03
3.134372143164840963e+03 7.786382990701954387e-01 3.290068320219780972e-03
3.137506515308006783e+03 7.744866817978515172e-01 4.412787453408157853e-03
3.140644021823316052e+03 7.719803870452068839e-01 4.647903272668021946e-03
3.143784665845140353e+03 7.693835695514175121e-01 4.349344783052900079e-03
3.146928450510986750e+03 7.699028928714319875e-01 3.966920295794269802e-03
3.150075378961498700e+03 7.739736599153163032e-01 4.507203991767357899e-03
3.153225454340461056e+03 7.780222233646626462e-01 4.474923787832801175e-03
3.156378679794802792e+03 7.859608467182636060e-01 5.128518415038040706e-03
3.159535058474598372e+03 7.963326451548128349e-01 4.833186246776288372e-03
3.162694593533074112e+03 8.048709203578638949e-01 3.953133622650956136e-03
3.165857288126608182e+03 8.095796760000945058e-01 5.155834197552783792e-03
3.169023145414736064e+03 8.143783625653074898e-01 5.168941233769377801e-03
3.172192168560151458e+03 8.208234959372023853e-01 5.199814339701716928e-03
3.175364360728712654e+03 8.256965175526093104e-01 5.192350923755159262e-03
3.178539725089442527e+03 8.275436291033976266e-01 4.732859637252288115e-03
3.181718264814533086e+03 8.312145473277432473e-01 5.506915348123168560e-03
3.184899983079348658e+03 8.315089936512690683e-01 5.522526672923421670e-03
3.188084883062429071e+03 8.306778734644666429e-01 5.497577978624971877e-03
3.191272967945492383e+03 8.297862205009061132e-01 5.318810653697454011e-03
3.194464240913438971e+03 8.262784430563213656e-01 5.576837460165249942e-03
3.197658705154353811e+03 8.212299393678443860e-01 5.472239019998294089e-03
3.200856363859509202e+03 8.154569664197603984e-01 5.490728419707651721e-03
3.204057220223369768e+03 8.067059452711873302e-01 5.257775243805341489e-03
3.207261277443593826e+03 7.984554606876151928e-01 5.222547753838293998e-03
3.210468538721038840e+03 7.899327406966866194e-01 5.166210476216802176e-03
3.213679007259760965e+03 7.800228924656921192e-01 4.983282383112989586e-03
3.216892686267021418e+03 7.743588886216752343e-01 4.870119574609038313e-03
3.220109578953289656e+03 7.652681898421190843e-01 3.776484393703510422e-03
3.223329688532243836e+03 7.526849104071278163e-01 3.881794313663176638e-03
3.226553018220777176e+03 7.369605259759983706e-01 3.763295287634953017e-03
3.229779571238999324e+03 7.235492654559602110e-01 3.659060168310529580e-03
3.233009350810239084e+03 7.098077098627842973e-01 3.785305371709206911e-03
3.236242360161050783e+03 6.975676257889622534e-01 3.587857224739969542e-03
3.239478602521212906e+03 6.897496194108057033e-01 3.395205510147043630e-03
3.242718081123734919e+03 6.878357880277249370e-01 3.186811115556607149e-03
3.245960799204859995e+03 6.864279692052082105e-01 3.425351260391195241e-03
3.249206760004065927e+03 6.893740256582266968e-01 3.154386172215243710e-03
3.252455966764071036e+03 6.978550195084505248e-01 3.282720421355569615e-03
3.255708422730835991e+03 7.096786457740822396e-01 3.476341525128451987e-03
3.258964131153567905e+03 7.263676824958313905e-01 3.725151453892034965e-03
3.262223095284722604e+03 7.433556882460706783e-01 3.276904816365356580e-03
3.265485318380008266e+03 7.582767869981374975e-01 3.211298865993482236e-03
3.268750803698389518e+03 7.722917007712154502e-01 3.201226144685577046e-03
3.272019554502088795e+03 7.843829920540795753e-01 3.194308947916338175e-03
3.275291574056592253e+03 7.955230056411023432e-01 3.379792694170497512e-03
3.278566865630649772e+03 8.052092884298529540e-01 3.060309956884782120e-03
3.281845432496281319e+03 8.082347308716262280e-01 3.124015524050858215e-03
3.285127277928778767e+03 8.082449636487322175e-01 3.274728657853703557e-03
3.288412405206708627e+03 8.049411265196305676e-01 3.906311071420929919e-03
3.291700817611916591e+03 8.024767445350742268e-01 4.151056035375627964e-03
3.294992518429529355e+03 7.985942821977104478e-01 3.865846717807699603e-03
3.298287510947960072e+03 7.966227482751789823e-01 3.545449442528004255e-03
3.301585798458909267e+03 7.988247384703432985e-01 3.636932621588581660e-03
3.304887384257369376e+03 8.028551616525096968e-01 3.673541896742485175e-03
3.308192271641627485e+03 8.070214218620450630e-01 3.591412509259423683e-03
3.311500463913270323e+03 8.137426709479491649e-01 3.937304612151117100e-03
3.314811964377184722e+03 8.219435853615549847e-01 4.101414825931507489e-03
3.318126776341563072e+03 8.296990858372701449e-01 3.835584122980332470e-03
3.321444903117905596e+03 8.370441264593392328e-01 2.403100762048113875e-03
3.324766348021024896e+03 8.405052281341216514e-01 2.378642547313148184e-03
3.328091114369046863e+03 8.397533327688215810e-01 3.231850607134824707e-03
3.331419205483417045e+03 8.384054034009090772e-01 2.979372630977091853e-03
3.334750624688901553e+03 8.357124136526300484e-01 1.999896820760015213e-03
3.338085375313591612e+03 8.347450436327324974e-01 2.328483614957849081e-03
3.341423460688906289e+03 8.337365464156117900e-01 2.375956554448575408e-03
3.344764884149596128e+03 8.315568243301221241e-01 2.423405737058675815e-03
3.348109649033746791e+03 8.304817830811991319e-01 2.443319937158513339e-03
3.351457758682781787e+03 8.297041686957045137e-01 2.441971698337197776e-03
3.354809216441465651e+03 8.306750504014481784e-01 2.437600316522508127e-03
3.358164025657908041e+03 8.316903942758095969e-01 2.657898882789326567e-03
3.361522189683567376e+03 8.348896292194453173e-01 2.599012007993396680e-03
3.364883711873251741e+03 8.399760857958276095e-01 2.678657837174767530e-03
3.368248595585126168e+03 8.448548404825776403e-01 2.672071860228716206e-03
3.371616844180712633e+03 8.506723713089172634e-01 2.956723495645655671e-03
3.374988461024894150e+03 8.567500762315982676e-01 3.233111826860931605e-03
3.378363449485920228e+03 8.629057784439818635e-01 3.341869727472387367e-03
3.381741812935407324e+03 8.666702523028825267e-01 2.644536520725065780e-03
3.385123554748343849e+03 8.674553100376164450e-01 2.396966931659418390e-03
3.388508678303093347e+03 8.649108870775664704e-01 3.165057307889446777e-03
3.391897186981397681e+03 8.597599462478489052e-01 3.395191807348637691e-03
3.395289084168380214e+03 8.561328937068223288e-01 3.054087320601394425e-03
3.398684373252549449e+03 8.535289994595957053e-01 2.488469880779944736e-03
3.402083057625803121e+03 8.540566164554498352e-01 2.471674285519099776e-03
3.405485140683430018e+03 8.563251884151675819e-01 2.382367607727659247e-03
3.408890625824114522e+03 8.610317950823825894e-01 2.259626020473748387e-03
3.412299516449939802e+03 8.699350235712941526e-01 2.329774638520821020e-03
3.415711815966390986e+03 8.821709321026046657e-01 2.162403669804344609e-03
3.419127527782358356e+03 8.960965498609033686e-01 2.093599307968183314e-03
3.422546655310141887e+03 9.114155498576925751e-01 2.102652939918065681e-03
3.425969201965453522e+03 9.295819463458034893e-01 2.218973342857506227e-03
3.429395171167419903e+03 9.469069615689822417e-01 2.270756664133840880e-03
3.432824566338588284e+03 9.634565814474693735e-01 2.576173384992351545e-03
3.436257390904928343e+03 9.787877253889343265e-01 2.911454543033827492e-03
3.439693648295834464e+03 9.920802741879738429e-01 2.941650700401112189e-03
3.443133341944131189e+03 1.003804850729340004e+00 2.210805969163644451e-03
3.446576475286076402e+03 1.010739228742614682e+00 1.713621714947821239e-03
3.450023051761363604e+03 1.012205471203988738e+00 3.235321197019302118e-03
3.453473074813126004e+03 1.010825889837189573e+00 3.912482446691454771e-03
3.456926547887940615e+03 1.008633328337589008e+00 3.323608434533483879e-03
3.460383474435829612e+03 1.006535536507251472e+00 3.084511866955285189e-03
3.463843857910266706e+03 1.004268747464922784e+00 2.948567837338479398e-03
3.467307701768178049e+03 1.005006335563699338e+00 2.986404336228872230e-03
3.470775009469947236e+03 1.006879621089012300e+00 2.957388288107194382e-03
3.474245784479418489e+03 1.011120337703254712e+00 3.012742794478957559e-03
3.477720030263898934e+03 1.018810805693229238e+00 3.071379028441382445e-03
3.481197750294164052e+03 1.026778739860793488e+00 2.714951622767320955e-03
3.484678948044459503e+03 1.034066669564865260e+00 2.733409986026641859e-03
3.488163626992504760e+03 1.041981501057547499e+00 2.762181152874572648e-03
3.491651790619498570e+03 1.050641382047901695e+00 2.750833480656831882e-03
3.495143442410119405e+03 1.058423945583189862e+00 2.598323039017409568e-03
3.498638585852530468e+03 1.066906566425825487e+00 2.699873157418201941e-03
3.502137224438384237e+03 1.074495591565854502e+00 2.684927388845003652e-03
3.505639361662823831e+03 1.082719404210291225e+00 2.697956469853697234e-03
3.509145001024487556e+03 1.091697583322481346e+00 2.476688012520829752e-03
3.512654146025513455e+03 1.099898768565162888e+00 2.527841779921298406e-03
3.516166800171540217e+03 1.106312876106595011e+00 2.263383936357875673e-03
3.519682966971712631e+03 1.114051199955245375e+00 2.273914834522207558e-03
3.523202649938685681e+03 1.123142339001642842e+00 2.302868281683764003e-03
3.526725852588625457e+03 1.129647859342621130e+00 2.383683948598722731e-03
3.530252578441215064e+03 1.134652934975447502e+00 2.324342429207371975e-03
3.533782831019657806e+03 1.142093715311939262e+00 2.581688416220861548e-03
3.537316613850678550e+03 1.146675765065090280e+00 2.558413466698665657e-03
3.540853930464530094e+03 1.150958250491087576e+00 2.576029624232999572e-03
3.544394784394995895e+03 1.155191384847369607e+00 2.197653418236146169e-03
3.547939179179392340e+03 1.156490080376470386e+00 2.266240400601034644e-03
3.551487118358572843e+03 1.155559134597825777e+00 2.473500179752520164e-03
3.555038605476932389e+03 1.154238443334682396e+00 2.367332866422187671e-03
3.558593644082410719e+03 1.152442552293236000e+00 2.353354587101310919e-03
3.562152237726494150e+03 1.150044771702638746e+00 2.360249421518438237e-03
3.565714389964221937e+03 1.148018769138199557e+00 2.464634394207530169e-03
3.569280104354187188e+03 1.143676101861349270e+00 2.471818920581382150e-03
3.572849384458542772e+03 1.139427231685360420e+00 2.429282927823794413e-03
3.576422233843002232e+03 1.134049595819994760e+00 2.590556123142082404e-03
3.579998656076846601e+03 1.128854272597787034e+00 2.570531096578509110e-03
3.583578654732924406e+03 1.124672962671115162e+00 2.593512387989663909e-03
3.587162233387658489e+03 1.121443115249997291e+00 2.564811412287764433e-03
3.590749395621047370e+03 1.118911054810390215e+00 2.683703506224400029e-03
3.594340145016669794e+03 1.116975236548323647e+00 2.646218251620936854e-03
3.597934485161687462e+03 1.115582568698030963e+00 2.618074103154725395e-03
3.601532419646850485e+03 1.117463969716899319e+00 2.679005206338564218e-03
3.605133952066498296e+03 1.117935494544789465e+00 2.696205991283536722e-03
3.608739086018566013e+03 1.119811696433063331e+00 2.869716425000597235e-03
3.612347825104585809e+03 1.123758446451682547e+00 2.852948271818632822e-03
3.615960172929691907e+03 1.127761394007703588e+00 3.056541505034349269e-03
3.619576133102622407e+03 1.132810141874818433e+00 2.962293023305505053e-03
3.623195709235726554e+03 1.141887324646696289e+00 2.781735695366832281e-03
3.626818904944963379e+03 1.153264059625521254e+00 2.636452837789691420e-03
3.630445723849909427e+03 1.167523883377391769e+00 2.502155453689789127e-03
3.634076169573760581e+03 1.186087010703152256e+00 2.776329784912904327e-03
3.637710245743335690e+03 1.204991379104130012e+00 2.908418643639225538e-03
3.641347955989080219e+03 1.224827932939128949e+00 3.009352993133802487e-03
3.644989303945070333e+03 1.242613463129779161e+00 2.901166902987871703e-03
3.648634293249016537e+03 1.259293489804081068e+00 2.674156971775681207e-03
3.652282927542266862e+03 1.273413716278102514e+00 2.261721083819943565e-03
3.655935210469810499e+03 1.280548553312432558e+00 2.260826286569928879e-03
3.659591145680281443e+03 1.281839103259607482e+00 2.204748453987599981e-03
3.663250736825963031e+03 1.279202737454703698e+00 2.137243796621129781e-03
3.666913987562790226e+03 1.270743466599389304e+00 2.384344945057948178e-03
3.670580901550354156e+03 1.259384200072094284e+00 2.621597303702091070e-03
