# starting wavelength: 3162.860
# ending wavelength: 7996.930
# wav flux eflux
3.165857288126608182e+03 9.038212543410076294e-02 5.171778508975778677e-02
3.169023145414736064e+03 1.512142670493378804e-01 4.512861975930584912e-02
3.172192168560151458e+03 1.843104814125451629e-01 3.844807146242189971e-02
3.175364360728712654e+03 2.068809798713113213e-01 2.937945430510130115e-02
3.178539725089442527e+03 2.196276194575199070e-01 2.409588630334397186e-02
3.181718264814533086e+03 2.287438480508729444e-01 1.980193398363132296e-02
3.184899983079348658e+03 2.374183137920649056e-01 1.577677674377037792e-02
3.188084883062429071e+03 2.436382414930000628e-01 1.298912258496886553e-02
3.191272967945492383e+03 2.450370825640653671e-01 1.115735366024553712e-02
3.194464240913438971e+03 2.450671176991708888e-01 9.624331392888232223e-03
3.197658705154353811e+03 2.427232533383887059e-01 8.296423873698772003e-03
3.200856363859509202e+03 2.378826445685538471e-01 7.280270122512716262e-03
3.204057220223369768e+03 2.308542262832878611e-01 6.554881464553115843e-03
3.207261277443593826e+03 2.224723054617679940e-01 6.059918187486918427e-03
3.210468538721038840e+03 2.137694627133979175e-01 5.980648072138882408e-03
3.213679007259760965e+03 2.027760650276032306e-01 5.828055633933891012e-03
3.216892686267021418e+03 1.884027088037760755e-01 5.562711120916839606e-03
3.220109578953289656e+03 1.696647735433096105e-01 5.561004983012191212e-03
3.223329688532243836e+03 1.503904650448569802e-01 5.489102267866497256e-03
3.226553018220777176e+03 1.310454368801493852e-01 5.337450172501964629e-03
3.229779571238999324e+03 1.106609847566693838e-01 5.290937990470525806e-03
3.233009350810239084e+03 8.891708671348109994e-02 5.493369007007943387e-03
3.236242360161050783e+03 6.728230273448336518e-02 5.545203560639747585e-03
3.239478602521212906e+03 4.443087012963652105e-02 5.745954944526152769e-03
3.242718081123734919e+03 2.153839003151885451e-02 5.512782557380225233e-03
3.245960799204859995e+03 -5.345224284459895725e-04 4.723032249354941481e-03
3.249206760004065927e+03 -2.049720586619453028e-02 4.377358756303737115e-03
3.252455966764071036e+03 -3.810381424774765546e-02 4.053479676299251433e-03
3.255708422730835991e+03 -5.175357013814819995e-02 4.122641231754407137e-03
3.258964131153567905e+03 -6.331995859938494009e-02 4.133915328071781706e-03
3.262223095284722604e+03 -7.178044933656657633e-02 4.122906643669908139e-03
3.265485318380008266e+03 -7.729073201034067364e-02 3.895428513820474274e-03
3.268750803698389518e+03 -8.155997063498544863e-02 3.884142358768230552e-03
3.272019554502088795e+03 -8.268301238381091378e-02 3.913308626122961528e-03
3.275291574056592253e+03 -8.057819592153335486e-02 3.952164969777989013e-03
3.278566865630649772e+03 -7.481357157945012215e-02 4.068702375102248303e-03
3.281845432496281319e+03 -6.765752553576100115e-02 4.043607013502657603e-03
3.285127277928778767e+03 -5.672779902358657256e-02 3.954888168648561415e-03
3.288412405206708627e+03 -4.425645003951503287e-02 3.761664067021831294e-03
3.291700817611916591e+03 -3.086964493166131918e-02 3.651336546516679386e-03
3.294992518429529355e+03 -1.630345789732364978e-02 3.196362562473764515e-03
3.298287510947960072e+03 -8.516998026539893130e-04 3.028431975474098897e-03
3.301585798458909267e+03 1.430488590486146683e-02 3.103027318096538648e-03
3.304887384257369376e+03 3.033200712342043123e-02 3.157634382812809105e-03
3.308192271641627485e+03 4.687721122564308951e-02 2.944250938186974541e-03
3.311500463913270323e+03 6.167211099830335191e-02 2.917861007033722889e-03
3.314811964377184722e+03 7.606800833976504195e-02 2.767063464917844835e-03
3.318126776341563072e+03 9.169442091003943140e-02 2.820769829908022393e-03
3.321444903117905596e+03 1.063558854581273805e-01 2.431543064442405824e-03
3.324766348021024896e+03 1.189750269220232470e-01 2.537032557467999109e-03
3.328091114369046863e+03 1.301226447011018250e-01 2.668517367531939369e-03
3.331419205483417045e+03 1.402741841011408697e-01 2.433846865699029749e-03
3.334750624688901553e+03 1.494880694796950349e-01 2.725246796590412302e-03
3.338085375313591612e+03 1.590930494398245520e-01 2.745806127948389672e-03
3.341423460688906289e+03 1.683698477619255396e-01 2.674607051264270459e-03
3.344764884149596128e+03 1.767990779369628951e-01 2.566850581632722748e-03
3.348109649033746791e+03 1.846212009160927980e-01 2.627248237556924649e-03
3.351457758682781787e+03 1.915548222023228109e-01 2.446514027272354407e-03
3.354809216441465651e+03 1.975431110070840490e-01 2.367602744711382740e-03
3.358164025657908041e+03 2.035167094572519764e-01 2.364944434207474997e-03
3.361522189683567376e+03 2.106836922094005859e-01 3.112073227656790477e-03
3.364883711873251741e+03 2.172897264302744991e-01 3.023404959230517868e-03
3.368248595585126168e+03 2.223294288571986410e-01 3.092222652486783293e-03
3.371616844180712633e+03 2.239798168933370692e-01 3.036954593099204427e-03
3.374988461024894150e+03 2.239326277326572912e-01 3.036594518693733896e-03
3.378363449485920228e+03 2.227014495476326572e-01 3.078900822671713170e-03
3.381741812935407324e+03 2.199997084941498759e-01 3.348950581866016150e-03
3.385123554748343849e+03 2.172290502449070460e-01 3.387487195946564753e-03
3.388508678303093347e+03 2.130397472288508287e-01 3.460088176355369163e-03
3.391897186981397681e+03 2.085365530376678267e-01 3.650242086907898569e-03
3.395289084168380214e+03 2.032513293651706243e-01 3.727526197938588366e-03
3.398684373252549449e+03 1.991972903256329641e-01 3.564163707220797516e-03
3.402083057625803121e+03 1.940794595375261444e-01 3.265938777288012948e-03
3.405485140683430018e+03 1.912654824770749773e-01 2.999611472251303718e-03
3.408890625824114522e+03 1.901905894862570556e-01 2.818911627765314891e-03
3.412299516449939802e+03 1.915080803813531685e-01 2.889658596170684244e-03
3.415711815966390986e+03 1.957880770280255867e-01 3.686289286971385169e-03
3.419127527782358356e+03 2.016467342943464025e-01 3.817591113467499239e-03
3.422546655310141887e+03 2.078607551880105597e-01 3.869735334567768036e-03
3.425969201965453522e+03 2.146464002018337036e-01 3.804544454605203289e-03
3.429395171167419903e+03 2.205645758642384990e-01 3.459637742933165724e-03
3.432824566338588284e+03 2.262622089086637200e-01 3.264602136163143823e-03
3.436257390904928343e+03 2.309089260666319920e-01 3.473716322464274423e-03
3.439693648295834464e+03 2.360463274344427598e-01 3.609910677198774950e-03
3.443133341944131189e+03 2.418171589400950616e-01 3.594907835007970804e-03
3.446576475286076402e+03 2.471439297352183706e-01 3.682056088571856404e-03
3.450023051761363604e+03 2.514672494742609676e-01 3.526600827720982427e-03
3.453473074813126004e+03 2.552274071495281293e-01 3.018283840974310666e-03
3.456926547887940615e+03 2.601083844287649938e-01 3.038222704596951242e-03
3.460383474435829612e+03 2.658249569936615986e-01 3.034611753229085867e-03
3.463843857910266706e+03 2.699745486628556401e-01 3.172065094061471673e-03
3.467307701768178049e+03 2.735035449845770184e-01 3.295217012625363019e-03
3.470775009469947236e+03 2.785772124861346510e-01 3.271837440997821256e-03
3.474245784479418489e+03 2.844042505932549703e-01 3.235769592292088524e-03
3.477720030263898934e+03 2.913358769711525964e-01 3.203361947605475480e-03
3.481197750294164052e+03 2.993663946168264034e-01 3.005315543241239909e-03
3.484678948044459503e+03 3.079810074770731876e-01 2.984912470061203225e-03
3.488163626992504760e+03 3.167163656609048306e-01 3.098213066084733441e-03
3.491651790619498570e+03 3.245054067491235927e-01 3.176845199417486186e-03
3.495143442410119405e+03 3.303016536343206799e-01 3.266591626221889560e-03
3.498638585852530468e+03 3.363249687718476433e-01 3.430430716224733105e-03
3.502137224438384237e+03 3.407921176716489642e-01 3.470178528372892725e-03
3.505639361662823831e+03 3.450043881614166530e-01 3.280360807311758636e-03
3.509145001024487556e+03 3.483686167281969115e-01 3.098657969568151347e-03
3.512654146025513455e+03 3.501693161375550312e-01 2.960562016661255191e-03
3.516166800171540217e+03 3.499649933768722576e-01 3.346250095681819071e-03
3.519682966971712631e+03 3.480394190501233109e-01 3.637041292662349795e-03
3.523202649938685681e+03 3.461060558830963418e-01 3.469297396469183531e-03
3.526725852588625457e+03 3.439043650690601361e-01 2.850504409193851778e-03
3.530252578441215064e+03 3.422435785775590489e-01 2.232989048049105821e-03
3.533782831019657806e+03 3.419957723334256516e-01 2.098027909904612298e-03
3.537316613850678550e+03 3.435267741533399311e-01 2.499601513208157561e-03
3.540853930464530094e+03 3.462888562844841367e-01 2.663828451350325199e-03
3.544394784394995895e+03 3.496345375243649078e-01 2.324356904933127643e-03
3.547939179179392340e+03 3.536737916562374129e-01 1.885764809165974302e-03
3.551487118358572843e+03 3.568670391783998475e-01 1.969810565103488533e-03
3.555038605476932389e+03 3.609805446353324121e-01 1.946955367337207523e-03
3.558593644082410719e+03 3.659838193005390261e-01 1.916141265928298374e-03
3.562152237726494150e+03 3.693153204686100421e-01 2.028333953557532199e-03
3.565714389964221937e+03 3.700597110643238374e-01 2.040431488135884246e-03
3.569280104354187188e+03 3.707165850293181464e-01 2.021626891790041444e-03
3.572849384458542772e+03 3.701534629549950717e-01 2.064668123306134372e-03
3.576422233843002232e+03 3.683524610783278641e-01 2.302823927479367462e-03
3.579998656076846601e+03 3.674035656061513944e-01 2.310686217598883953e-03
3.583578654732924406e+03 3.667841466494654035e-01 2.276993736152895745e-03
3.587162233387658489e+03 3.665764292871183105e-01 2.284120483461439446e-03
3.590749395621047370e+03 3.667600398534910933e-01 2.408410814299470019e-03
3.594340145016669794e+03 3.667498769872369335e-01 2.482298341901412533e-03
3.597934485161687462e+03 3.660075039751831127e-01 2.432588444687764327e-03
3.601532419646850485e+03 3.657474173439931864e-01 2.409180486745451585e-03
3.605133952066498296e+03 3.665235490391017259e-01 2.498831584146095613e-03
3.608739086018566013e+03 3.669986128716204443e-01 2.535079086204111536e-03
3.612347825104585809e+03 3.680607581131220551e-01 2.644376744090866111e-03
3.615960172929691907e+03 3.707761568780911232e-01 2.627117210126815247e-03
3.619576133102622407e+03 3.747764039620021803e-01 2.656002528328115821e-03
3.623195709235726554e+03 3.783278133686079903e-01 2.480599258591970318e-03
3.626818904944963379e+03 3.823189766662867806e-01 2.491356612133295133e-03
3.630445723849909427e+03 3.873700999254349742e-01 2.689563748842463149e-03
3.634076169573760581e+03 3.927021114161921567e-01 2.513374319317761545e-03
3.637710245743335690e+03 3.966784591368320290e-01 2.775237122718764680e-03
3.641347955989080219e+03 4.017583636861730700e-01 2.944580203611323142e-03
3.644989303945070333e+03 4.071143462482234576e-01 3.009535576898772491e-03
3.648634293249016537e+03 4.124485014454419840e-01 3.107999620035013094e-03
3.652282927542266862e+03 4.160022113484568851e-01 2.987504941104092860e-03
3.655935210469810499e+03 4.198719104536693392e-01 3.033617430691418031e-03
3.659591145680281443e+03 4.247868868747169402e-01 3.039720556844736216e-03
3.663250736825963031e+03 4.307545442368784783e-01 3.107684441214679689e-03
3.666913987562790226e+03 4.381163743170589653e-01 3.128441063862605776e-03
3.670580901550354156e+03 4.460061101865609445e-01 3.161903624637159901e-03
3.674251482451905758e+03 4.552537877888238049e-01 3.083985776385132424e-03
3.677925733934358959e+03 4.651857123007364647e-01 2.893181548630925290e-03
3.681603659668294313e+03 4.729087084782840344e-01 3.004683236529334060e-03
3.685285263327964003e+03 4.796858420663608902e-01 2.957537357126978263e-03
3.688970548591293209e+03 4.853779020859784743e-01 2.920598710246663076e-03
3.692659519139885560e+03 4.924787497181370433e-01 2.895961940878830857e-03
3.696352178659026777e+03 4.999928979975492016e-01 3.352977209906814193e-03
3.700048530837686940e+03 5.067788989383066323e-01 3.320680706015075295e-03
3.703748579368525952e+03 5.119685117704725341e-01 3.167609897716543079e-03
3.707452327947895355e+03 5.137742278514549898e-01 3.035197093328357958e-03
3.711159780275844696e+03 5.105344321020016674e-01 2.874658410421275078e-03
3.714870940056121526e+03 5.066762541288539756e-01 2.833356875282667074e-03
3.718585810996179134e+03 5.015347764588008461e-01 2.596809040717895905e-03
3.722304396807176545e+03 4.929533068920762262e-01 3.059265366654274031e-03
3.726026701203984885e+03 4.837001206438596990e-01 3.030727982617184655e-03
3.729752727905190113e+03 4.754318147731980138e-01 3.027196895705322639e-03
3.733482480633096657e+03 4.675569383702208315e-01 2.772388344360981333e-03
3.737215963113731050e+03 4.626787323174019750e-01 2.284648983156135731e-03
3.740953179076846027e+03 4.615879319046564122e-01 3.231129046158708485e-03
3.744694132255923705e+03 4.624991266515748878e-01 3.442438034957182470e-03
3.748438826388181042e+03 4.652872644515697043e-01 2.731522822324200170e-03
3.752187265214570289e+03 4.677032406164670642e-01 2.515950199020470981e-03
3.755939452479786269e+03 4.711698002130462748e-01 2.246005350429835460e-03
3.759695391932267285e+03 4.737275427617035906e-01 2.203800656250985961e-03
3.763455087324201031e+03 4.763380302432087543e-01 2.232183964637413347e-03
3.767218542411526414e+03 4.800594078990554903e-01 2.215131058566244694e-03
3.770985760953939007e+03 4.823653958230297301e-01 2.539503404507442112e-03
3.774756746714894234e+03 4.866718659639854283e-01 2.598465819439082884e-03
3.778531503461610555e+03 4.931649778779304549e-01 2.384364283483469699e-03
3.782310034965073100e+03 5.019843048498593419e-01 2.660269654047163913e-03
3.786092345000039586e+03 5.119966555854772450e-01 2.616687644814920562e-03
3.789878437345040766e+03 5.239561298127498601e-01 2.701781639709536532e-03
3.793668315782387253e+03 5.364722408589874814e-01 2.810703130888362114e-03
3.797461984098170888e+03 5.487092086557850967e-01 2.662097550139937933e-03
3.801259446082270188e+03 5.596453031336355854e-01 2.762805372556924668e-03
3.805060705528353537e+03 5.678356050399473443e-01 2.816691971773525004e-03
3.808865766233883278e+03 5.748668246188858300e-01 2.659711669329828040e-03
3.812674632000118436e+03 5.801015461268160811e-01 3.081115297182938136e-03
3.816487306632119726e+03 5.837790339347732615e-01 3.490079310706732142e-03
3.820303793938753188e+03 5.868738583444480517e-01 3.351578885153133538e-03
3.824124097732693372e+03 5.903407452012048306e-01 2.736174810055855364e-03
3.827948221830427428e+03 5.957162528690527203e-01 2.506026427581142975e-03
3.831776170052258749e+03 6.036244009902025365e-01 2.799290196053080739e-03
3.835607946222312421e+03 6.124723573413779487e-01 2.824185870070800020e-03
3.839443554168536139e+03 6.235519534265060448e-01 2.645110866186569081e-03
3.843282997722705659e+03 6.346925950220365653e-01 2.897988730693607830e-03
3.847126280720429804e+03 6.458952129638623196e-01 2.810659724914771080e-03
3.850973407001151372e+03 6.584108144225597758e-01 2.559367418628880151e-03
3.854824380408153957e+03 6.716619376373768047e-01 2.343103140392507975e-03
3.858679204788563311e+03 6.823948589916886132e-01 2.452009201067651030e-03
3.862537883993353262e+03 6.959838026026221591e-01 2.327896202656578890e-03
3.866400421877347981e+03 7.096786663939719242e-01 2.254797358878735981e-03
3.870266822299226533e+03 7.264897669581794615e-01 2.084784441074024209e-03
3.874137089121526969e+03 7.460393641109238638e-01 2.117190164961711089e-03
3.878011226210649966e+03 7.680972184492418364e-01 2.080660055696508838e-03
3.881889237436861549e+03 7.905118910037035596e-01 2.126758063934918418e-03
3.885771126674299921e+03 8.133201256782897071e-01 2.362733329904541726e-03
3.889656897800975457e+03 8.386885985709693347e-01 2.516076609264159859e-03
3.893546554698777527e+03 8.645472376180827201e-01 2.986441899646689879e-03
3.897440101253477678e+03 8.892632388743860750e-01 3.274677122285964050e-03
3.901337541354732366e+03 9.120558683730284333e-01 3.524113564265962673e-03
3.905238878896088409e+03 9.311653979079100862e-01 3.281181678578603666e-03
3.909144117774985716e+03 9.454309820104774831e-01 3.697034251009869224e-03
3.913053261892762293e+03 9.574757713098129841e-01 4.165714454871400144e-03
3.916966315154656058e+03 9.683186372661932717e-01 4.311210629865396167e-03
3.920883281469812118e+03 9.761008851425223565e-01 4.060717683912319284e-03
3.924804164751283224e+03 9.830668624256612143e-01 4.014012796817263175e-03
3.928728968916035683e+03 9.886980121843010894e-01 4.169130045872915767e-03
3.932657697884953450e+03 9.909610850002151805e-01 4.065973128215864645e-03
3.936590355582839493e+03 9.933020379460816285e-01 4.099248020552348666e-03
3.940526945938423523e+03 9.927514685934875072e-01 4.136762627154880537e-03
3.944467472884363360e+03 9.925187189952111577e-01 3.598111328906747515e-03
3.948411940357249023e+03 9.898761846357797545e-01 3.396405669621602435e-03
3.952360352297607733e+03 9.861350961797837877e-01 3.215025852836632305e-03
3.956312712649906643e+03 9.785144920547927949e-01 3.476002125397642962e-03
3.960269025362557841e+03 9.702409652841070820e-01 2.465765121062975587e-03
3.964229294387921527e+03 9.630702907855513972e-01 2.227761518673929738e-03
3.968193523682310570e+03 9.586174664499095277e-01 1.860661059633855145e-03
3.972161717205994591e+03 9.585413794826165290e-01 2.207561254098397950e-03
3.976133878923201792e+03 9.617018353984291279e-01 1.855565785859662710e-03
3.980110012802126221e+03 9.665322945163541402e-01 1.871594239141732537e-03
3.984090122814929600e+03 9.736073562788368774e-01 1.958828051563223874e-03
3.988074212937745870e+03 9.824685339925315342e-01 2.376001994952109397e-03
3.992062287150684824e+03 9.922969853256201622e-01 2.646063217516263395e-03
3.996054349437837118e+03 1.001853530281867188e+00 2.747005446280371011e-03
4.000050403787276082e+03 1.010686865162872872e+00 2.522223449121900347e-03
4.004050454191064546e+03 1.016652606787777469e+00 2.269275128821727442e-03
4.008054504645257111e+03 1.019583819880306441e+00 2.422400625840829581e-03
4.012062559149903791e+03 1.020615618813613734e+00 2.625333325168717133e-03
4.016074621709055009e+03 1.019322073749473034e+00 2.826637740976697868e-03
4.020090696330765240e+03 1.016745496134003002e+00 2.690665510087384728e-03
4.024110787027097558e+03 1.013756914383898700e+00 2.460322322686744542e-03
4.028134897814125907e+03 1.010523760418376771e+00 2.447821031550975572e-03
4.032163032711941469e+03 1.006078420315930089e+00 2.329115012377614650e-03
4.036195195744654484e+03 1.003163514046844673e+00 2.289889626999603092e-03
4.040231390940400615e+03 9.991589773572832067e-01 2.334181160590468283e-03
4.044271622331342314e+03 9.961224709562586099e-01 2.547083433399138959e-03
4.048315893953675186e+03 9.930593554576971904e-01 1.578531563218883195e-03
4.052364209847629809e+03 9.862486862391375286e-01 1.626556563483773452e-03
4.056416574057479011e+03 9.772047252716643539e-01 1.972741659247523403e-03
4.060472990631537868e+03 9.680135206973683459e-01 2.264898043892392323e-03
4.064533463622170530e+03 9.593874762681849910e-01 2.199141321812117262e-03
4.068597997085794304e+03 9.503401533461168782e-01 2.118154831514140659e-03
4.072666595082881486e+03 9.423714774994615961e-01 2.100964755757949581e-03
4.076739261677965715e+03 9.360053249587918511e-01 2.101581567431036555e-03
4.080816000939644709e+03 9.304333381012384052e-01 2.244048410631912377e-03
4.084896816940585722e+03 9.260370619670412751e-01 2.391390719418972060e-03
4.088981713757527814e+03 9.218331656976090915e-01 2.417595941334841920e-03
4.093070695471286854e+03 9.174826388781730513e-01 2.403543450114043866e-03
4.097163766166759160e+03 9.139103845186475894e-01 2.278963156195370609e-03
4.101260929932927866e+03 9.104664947771251571e-01 1.806119071421636310e-03
4.105362190862862008e+03 9.054055482610851024e-01 1.868696024557753169e-03
4.109467553053726078e+03 8.990221753301395058e-01 1.700558563325603196e-03
4.113577020606780934e+03 8.923307475175855652e-01 1.516326342969860110e-03
4.117690597627389252e+03 8.858596091662280791e-01 1.383382492904461011e-03
4.121808288225018259e+03 8.807969336390114590e-01 1.658028203367420536e-03
