# starting wavelength: 3159.700
# ending wavelength: 7996.930
# wav flux eflux
3.162694593533074112e+03 2.024091437025588025e+00 3.512398743134514251e-02
3.165857288126608182e+03 2.001431829054613587e+00 2.691178348165991496e-02
3.169023145414736064e+03 1.983839146081598948e+00 1.966309126789572356e-02
3.172192168560151458e+03 1.966971797516463560e+00 1.591568512742914943e-02
3.175364360728712654e+03 1.955941720102862158e+00 1.217552432489625233e-02
3.178539725089442527e+03 1.949520469965694058e+00 9.738676589209974144e-03
3.181718264814533086e+03 1.945680536950136874e+00 8.536386427319979722e-03
3.184899983079348658e+03 1.941684922022697046e+00 7.056864172300719197e-03
3.188084883062429071e+03 1.938457976697163909e+00 5.840244949815926942e-03
3.191272967945492383e+03 1.936608164262048071e+00 5.009642975364748951e-03
3.194464240913438971e+03 1.936406411860898125e+00 4.382657958248007725e-03
3.197658705154353811e+03 1.937147806360251412e+00 3.842680528343643369e-03
3.200856363859509202e+03 1.938168916571116451e+00 3.499921037875723413e-03
3.204057220223369768e+03 1.939539572211502749e+00 3.268176712407857773e-03
3.207261277443593826e+03 1.942036141997896870e+00 3.042850610722720381e-03
3.210468538721038840e+03 1.944029717978952077e+00 2.970576625973171681e-03
3.213679007259760965e+03 1.947282607246384023e+00 2.832666416549868994e-03
3.216892686267021418e+03 1.951370803967932055e+00 2.734887287703273613e-03
3.220109578953289656e+03 1.956750357421543907e+00 2.971667154719028273e-03
3.223329688532243836e+03 1.961172421621991679e+00 2.959455977734076586e-03
3.226553018220777176e+03 1.965558084263940186e+00 2.946614010554432939e-03
3.229779571238999324e+03 1.968112687291423413e+00 3.165089810456022008e-03
3.233009350810239084e+03 1.971436825061986031e+00 3.161256309690983670e-03
3.236242360161050783e+03 1.974682668366038341e+00 3.231858288336648174e-03
3.239478602521212906e+03 1.977387604602841131e+00 3.404150236579482017e-03
3.242718081123734919e+03 1.980694173971864647e+00 3.432310464146243190e-03
3.245960799204859995e+03 1.984323161418199533e+00 3.383145961394130267e-03
3.249206760004065927e+03 1.989142455844625124e+00 3.467336047761114624e-03
3.252455966764071036e+03 1.995040788151142497e+00 3.473815828600377003e-03
3.255708422730835991e+03 2.001225125753328893e+00 3.461882198318000804e-03
3.258964131153567905e+03 2.005990819972832906e+00 3.512489882956492358e-03
3.262223095284722604e+03 2.011258110240217167e+00 3.489298459829312700e-03
3.265485318380008266e+03 2.016954937509882750e+00 3.383966931423255334e-03
3.268750803698389518e+03 2.022284187102015185e+00 3.287179251396650775e-03
3.272019554502088795e+03 2.029974754251864244e+00 3.476130980590121274e-03
3.275291574056592253e+03 2.038486491782049104e+00 3.620694782880472078e-03
3.278566865630649772e+03 2.044711047822131977e+00 3.643161157774338962e-03
3.281845432496281319e+03 2.051602445053832380e+00 3.928516639503400708e-03
3.285127277928778767e+03 2.058590262981950580e+00 3.836744933076194006e-03
3.288412405206708627e+03 2.064672955774483842e+00 3.420789720139355301e-03
3.291700817611916591e+03 2.068207336072321212e+00 3.248077599906149752e-03
3.294992518429529355e+03 2.069118351486133989e+00 3.269517300110033175e-03
3.298287510947960072e+03 2.069095945471188802e+00 3.361644150804863826e-03
3.301585798458909267e+03 2.067349001891234384e+00 3.348667679988704283e-03
3.304887384257369376e+03 2.064328315374142964e+00 3.315442876396688335e-03
3.308192271641627485e+03 2.058954089492526229e+00 3.660778957904154383e-03
3.311500463913270323e+03 2.052838645464660772e+00 3.651096784651679944e-03
3.314811964377184722e+03 2.043498837773608745e+00 3.421274210725505811e-03
3.318126776341563072e+03 2.033932360546903961e+00 3.290869253059055134e-03
3.321444903117905596e+03 2.022528003730637458e+00 2.959666225405698133e-03
3.324766348021024896e+03 2.011473239725969808e+00 3.117081942629166408e-03
3.328091114369046863e+03 1.999222121014396780e+00 3.100575833969499307e-03
3.331419205483417045e+03 1.987026920669644925e+00 2.947483962248020287e-03
3.334750624688901553e+03 1.972478721292820536e+00 3.065664812109344679e-03
3.338085375313591612e+03 1.956860995928201952e+00 3.615150447607922216e-03
3.341423460688906289e+03 1.941542116902029935e+00 3.620460618237433727e-03
3.344764884149596128e+03 1.928707192867622489e+00 3.744177559089751067e-03
3.348109649033746791e+03 1.915915923905015861e+00 3.685715779675346852e-03
3.351457758682781787e+03 1.903570907981914528e+00 3.644145012869068768e-03
3.354809216441465651e+03 1.893134000835987152e+00 3.651400416871825646e-03
3.358164025657908041e+03 1.884159091430683608e+00 3.705214271969899369e-03
3.361522189683567376e+03 1.877533219392724106e+00 3.721964099779990608e-03
3.364883711873251741e+03 1.869825448696818881e+00 3.490614882141115753e-03
3.368248595585126168e+03 1.865926881589360375e+00 3.259866927895275959e-03
3.371616844180712633e+03 1.864953966084257342e+00 3.135328288313805715e-03
3.374988461024894150e+03 1.866581527822498199e+00 3.190401911382204341e-03
3.378363449485920228e+03 1.871856131584303862e+00 3.718658302876205139e-03
3.381741812935407324e+03 1.878866079413668455e+00 4.050985910136098433e-03
3.385123554748343849e+03 1.887389538098647845e+00 4.289478865181287071e-03
3.388508678303093347e+03 1.897854490833396301e+00 3.928409646040073762e-03
3.391897186981397681e+03 1.908095199968635081e+00 3.404664505323848692e-03
3.395289084168380214e+03 1.918746576052972719e+00 2.979763284128610253e-03
3.398684373252549449e+03 1.927991460763563314e+00 3.015866306873630533e-03
3.402083057625803121e+03 1.935918756008418562e+00 3.518650223656248372e-03
3.405485140683430018e+03 1.944760489372059808e+00 3.528839310670071460e-03
3.408890625824114522e+03 1.952773931506887717e+00 3.472187700877587581e-03
3.412299516449939802e+03 1.960121838853355225e+00 3.515494554280728604e-03
3.415711815966390986e+03 1.966287028244740442e+00 3.498998671803535670e-03
3.419127527782358356e+03 1.972571364443742370e+00 3.785664368869098677e-03
3.422546655310141887e+03 1.976652778128676236e+00 3.782673004043815047e-03
3.425969201965453522e+03 1.979418535774740695e+00 3.667801716052800001e-03
3.429395171167419903e+03 1.980503753502919073e+00 3.651488183777171909e-03
3.432824566338588284e+03 1.980277386770156411e+00 3.643314730716969065e-03
3.436257390904928343e+03 1.977463363221594772e+00 3.669835432680682713e-03
3.439693648295834464e+03 1.973526394606745393e+00 3.661119897757146840e-03
3.443133341944131189e+03 1.971231375750255532e+00 3.790089950597129182e-03
3.446576475286076402e+03 1.968967034661792903e+00 3.706735167288558504e-03
3.450023051761363604e+03 1.965468540046760193e+00 3.778594524980441634e-03
3.453473074813126004e+03 1.961853125673240550e+00 3.985199372607483095e-03
3.456926547887940615e+03 1.958442795487482790e+00 4.014482779882371129e-03
3.460383474435829612e+03 1.954437386984264835e+00 3.379468833378177720e-03
3.463843857910266706e+03 1.953363143319243767e+00 3.133698537834486448e-03
3.467307701768178049e+03 1.954043696423303889e+00 3.064068043938353910e-03
3.470775009469947236e+03 1.956914255737654207e+00 3.177723523994833120e-03
3.474245784479418489e+03 1.962834118803136407e+00 3.302227259422336938e-03
3.477720030263898934e+03 1.969829352642834097e+00 3.094230277933956563e-03
3.481197750294164052e+03 1.977572618941064286e+00 2.601726248938924114e-03
3.484678948044459503e+03 1.986476739829872384e+00 2.169975171567343000e-03
3.488163626992504760e+03 1.994689281150627824e+00 2.319374563768124547e-03
3.491651790619498570e+03 2.002975588551183517e+00 2.240073205900684934e-03
3.495143442410119405e+03 2.010835086883123513e+00 1.892281675538384561e-03
3.498638585852530468e+03 2.019910392734812987e+00 1.919973416596403590e-03
3.502137224438384237e+03 2.029051940870101767e+00 2.233004428697435428e-03
3.505639361662823831e+03 2.038193335955424956e+00 2.703344133697917206e-03
3.509145001024487556e+03 2.047026540942213479e+00 2.776470219309721491e-03
3.512654146025513455e+03 2.051568417023563740e+00 2.766694878504790713e-03
3.516166800171540217e+03 2.055219441212944531e+00 2.754146297760527457e-03
3.519682966971712631e+03 2.055819044572003929e+00 2.859115477683301081e-03
3.523202649938685681e+03 2.054072937733289361e+00 3.253148041615564704e-03
3.526725852588625457e+03 2.050320720736833469e+00 3.627780324656039619e-03
3.530252578441215064e+03 2.046692305706311554e+00 3.599904538660297481e-03
3.533782831019657806e+03 2.042316784336696944e+00 3.655346335142006450e-03
3.537316613850678550e+03 2.036908975169237301e+00 3.481762398725704588e-03
3.540853930464530094e+03 2.030344779328616678e+00 3.264080683802079563e-03
3.544394784394995895e+03 2.024392188317547081e+00 3.160244577761133194e-03
3.547939179179392340e+03 2.019008668408443175e+00 3.228439657575867937e-03
3.551487118358572843e+03 2.013499667285142625e+00 3.230062918849010024e-03
3.555038605476932389e+03 2.009694254740463037e+00 3.248306474148547097e-03
3.558593644082410719e+03 2.008132323704675759e+00 2.910487135813376400e-03
3.562152237726494150e+03 2.004835657696452778e+00 2.634038562258098591e-03
3.565714389964221937e+03 2.000603141696354115e+00 2.742790190392811918e-03
3.569280104354187188e+03 1.996281166404827889e+00 2.932832348596313941e-03
3.572849384458542772e+03 1.991549625993615624e+00 2.778091232363470373e-03
3.576422233843002232e+03 1.986716627973587279e+00 2.721049732584727814e-03
3.579998656076846601e+03 1.981950346089045967e+00 2.648059393070670113e-03
3.583578654732924406e+03 1.981285269977779429e+00 2.527970785329248290e-03
3.587162233387658489e+03 1.983382111237619982e+00 2.928384411883837822e-03
3.590749395621047370e+03 1.986211838713331401e+00 3.045449427375252795e-03
3.594340145016669794e+03 1.990570644303875980e+00 3.308231109868971145e-03
3.597934485161687462e+03 1.996156165096434343e+00 2.900301757099080138e-03
3.601532419646850485e+03 2.000276393309455614e+00 3.212717732677371815e-03
3.605133952066498296e+03 2.005926733621087532e+00 3.263822530083938106e-03
3.608739086018566013e+03 2.012244333839722454e+00 3.291637244823365609e-03
3.612347825104585809e+03 2.016567640795629224e+00 3.464737213633983619e-03
3.615960172929691907e+03 2.019246135056349090e+00 3.538986631464353504e-03
3.619576133102622407e+03 2.018289398284432767e+00 3.382291289099489950e-03
3.623195709235726554e+03 2.012880542143370644e+00 3.384385459517893092e-03
3.626818904944963379e+03 2.003501425682167714e+00 3.364862974611665392e-03
3.630445723849909427e+03 1.990139597279742434e+00 3.546201399263850841e-03
3.634076169573760581e+03 1.975819446785225919e+00 3.470560330525468678e-03
3.637710245743335690e+03 1.956909721464635377e+00 3.689724178372300999e-03
3.641347955989080219e+03 1.937834115193034279e+00 3.844307187004556738e-03
3.644989303945070333e+03 1.916858109170858304e+00 4.098310038483139392e-03
3.648634293249016537e+03 1.897002191639372226e+00 4.079614806498398083e-03
3.652282927542266862e+03 1.878063364524823697e+00 3.697957102878742831e-03
3.655935210469810499e+03 1.859747865113752674e+00 3.212725371598905769e-03
3.659591145680281443e+03 1.846725137255494031e+00 3.858176308458509222e-03
3.663250736825963031e+03 1.834678516434394835e+00 3.068553779325457372e-03
3.666913987562790226e+03 1.823122110393383233e+00 2.250889750484621338e-03
3.670580901550354156e+03 1.809880168002418577e+00 2.665011852608212013e-03
3.674251482451905758e+03 1.798400894798459548e+00 2.670419860047193884e-03
3.677925733934358959e+03 1.787273138448336018e+00 2.791780362337494860e-03
3.681603659668294313e+03 1.777256697755862369e+00 2.772368347254839781e-03
3.685285263327964003e+03 1.768973651996518015e+00 2.709061691049404787e-03
3.688970548591293209e+03 1.762341349729415363e+00 2.685074892297039176e-03
3.692659519139885560e+03 1.756835803177746680e+00 2.675653886588209591e-03
3.696352178659026777e+03 1.754359334804558745e+00 2.583178212274448663e-03
3.700048530837686940e+03 1.755148479358222824e+00 2.583158160306315860e-03
3.703748579368525952e+03 1.758350123699282674e+00 2.720064248604891349e-03
3.707452327947895355e+03 1.764357177243688346e+00 2.463287698524014007e-03
3.711159780275844696e+03 1.769689030946362873e+00 2.601049681633221897e-03
3.714870940056121526e+03 1.773127355822184059e+00 2.698938355189273077e-03
3.718585810996179134e+03 1.776705709213883599e+00 2.704221786181444740e-03
3.722304396807176545e+03 1.781200355463737006e+00 2.848475574174685280e-03
3.726026701203984885e+03 1.783845669346607155e+00 3.181861447520330927e-03
3.729752727905190113e+03 1.784654471625834127e+00 2.652145715159856098e-03
3.733482480633096657e+03 1.780399881496848691e+00 3.179812110641167412e-03
3.737215963113731050e+03 1.774592791590225094e+00 3.247357209303900795e-03
3.740953179076846027e+03 1.766865685312881684e+00 2.981606273444764588e-03
3.744694132255923705e+03 1.759136499500997930e+00 3.138689813146849396e-03
3.748438826388181042e+03 1.749812432788391492e+00 2.790990586545299881e-03
3.752187265214570289e+03 1.742102758236655724e+00 2.805513439703666637e-03
3.755939452479786269e+03 1.736112510802413800e+00 3.460834200782554083e-03
3.759695391932267285e+03 1.728092710227225437e+00 3.432651685343644787e-03
3.763455087324201031e+03 1.719417005496501671e+00 3.493455810181456556e-03
3.767218542411526414e+03 1.712055017397930312e+00 3.488791627825727371e-03
3.770985760953939007e+03 1.705138852698469654e+00 3.534127283597616933e-03
3.774756746714894234e+03 1.700502703916470626e+00 3.504808627045835710e-03
3.778531503461610555e+03 1.697234851442054326e+00 3.500950655844345914e-03
3.782310034965073100e+03 1.693713987881215521e+00 3.465311031515959546e-03
3.786092345000039586e+03 1.688556243995654293e+00 3.134785144184908112e-03
3.789878437345040766e+03 1.685106315718489345e+00 2.918438782689663277e-03
3.793668315782387253e+03 1.685064332450797453e+00 2.974739004360400178e-03
3.797461984098170888e+03 1.686825455484284753e+00 2.745943842211615808e-03
3.801259446082270188e+03 1.688449866641092312e+00 2.713415675511578803e-03
3.805060705528353537e+03 1.689886262643004899e+00 2.772276887432385123e-03
3.808865766233883278e+03 1.693536608397024690e+00 2.819320205192282595e-03
3.812674632000118436e+03 1.698638676578785756e+00 2.825006489748412529e-03
3.816487306632119726e+03 1.703306346983912922e+00 2.544752954869616054e-03
3.820303793938753188e+03 1.709734535237054320e+00 2.866103503990471372e-03
3.824124097732693372e+03 1.717140786056653212e+00 2.877672059047002920e-03
3.827948221830427428e+03 1.726490156621344862e+00 2.056768394883506153e-03
3.831776170052258749e+03 1.731586143501961272e+00 2.645287765706912878e-03
3.835607946222312421e+03 1.736652798112021889e+00 3.066461974260632165e-03
3.839443554168536139e+03 1.741983752516649275e+00 3.349147510123884341e-03
3.843282997722705659e+03 1.747737644768305509e+00 3.007327075295308360e-03
3.847126280720429804e+03 1.755978854217237650e+00 3.137182632851321772e-03
3.850973407001151372e+03 1.765213985084624460e+00 3.429354586072018950e-03
3.854824380408153957e+03 1.773427101434030373e+00 3.503301197860002152e-03
3.858679204788563311e+03 1.781067666508344249e+00 3.535196775718552759e-03
3.862537883993353262e+03 1.788191437934659511e+00 3.560167829177450158e-03
3.866400421877347981e+03 1.796417257823121005e+00 3.381017169364204135e-03
3.870266822299226533e+03 1.804376135738596343e+00 3.279543872629837528e-03
3.874137089121526969e+03 1.811341703362294497e+00 3.281842409587127328e-03
3.878011226210649966e+03 1.816747739614032353e+00 3.219058092019625329e-03
3.881889237436861549e+03 1.821095657084438768e+00 3.048213248799382276e-03
3.885771126674299921e+03 1.824935475848037392e+00 2.992501908960312675e-03
3.889656897800975457e+03 1.827041714773194325e+00 2.840552044619980981e-03
3.893546554698777527e+03 1.830606462696523495e+00 2.864219145014568375e-03
3.897440101253477678e+03 1.832962428918286868e+00 2.869639582249951595e-03
3.901337541354732366e+03 1.837005243522863429e+00 2.382424754014025436e-03
3.905238878896088409e+03 1.835955862476896128e+00 2.373942765273133471e-03
3.909144117774985716e+03 1.832903915164329156e+00 2.413486571337475437e-03
3.913053261892762293e+03 1.825927853229781572e+00 2.329032328590011081e-03
3.916966315154656058e+03 1.817244276103177736e+00 3.035205823986326674e-03
3.920883281469812118e+03 1.804830536247115313e+00 2.868688850140588015e-03
3.924804164751283224e+03 1.789411150112732551e+00 2.571463240839050052e-03
3.928728968916035683e+03 1.770389727112100520e+00 2.488758208616809360e-03
3.932657697884953450e+03 1.747984769180484621e+00 3.083940083673896663e-03
3.936590355582839493e+03 1.722240822599809595e+00 4.232065694173899051e-03
3.940526945938423523e+03 1.698196265275564443e+00 4.061641794060336964e-03
3.944467472884363360e+03 1.676899992847427079e+00 3.584995405448415835e-03
3.948411940357249023e+03 1.659010753691230411e+00 3.889111316671286633e-03
3.952360352297607733e+03 1.643276243354323096e+00 3.922660029496352965e-03
3.956312712649906643e+03 1.631272066409731325e+00 3.872506304423409609e-03
3.960269025362557841e+03 1.622206662671803024e+00 4.224369274416859416e-03
3.964229294387921527e+03 1.617547965860452353e+00 4.231639839629280746e-03
3.968193523682310570e+03 1.618217725042004229e+00 4.390551304736362362e-03
3.972161717205994591e+03 1.619810785051357893e+00 4.417045502833765597e-03
3.976133878923201792e+03 1.625990070244109464e+00 4.748145600455974495e-03
3.980110012802126221e+03 1.629793407583022491e+00 4.805202281940276418e-03
3.984090122814929600e+03 1.633304818733416708e+00 4.824031194727565128e-03
3.988074212937745870e+03 1.635582136630907568e+00 4.849379620554781188e-03
3.992062287150684824e+03 1.638809269724323503e+00 4.576034600769380949e-03
3.996054349437837118e+03 1.637078612808668066e+00 5.368558732363522962e-03
4.000050403787276082e+03 1.636637102825236667e+00 5.580156716555706442e-03
4.004050454191064546e+03 1.635691261334164981e+00 6.051554373413448387e-03
4.008054504645257111e+03 1.633939015097407577e+00 6.100662480591241034e-03
4.012062559149903791e+03 1.633338424695369495e+00 4.343281340929465266e-03
4.016074621709055009e+03 1.638210053302559421e+00 4.185865551433266656e-03
4.020090696330765240e+03 1.647477697275853581e+00 4.864440834327018320e-03
4.024110787027097558e+03 1.659679368131398602e+00 4.526210669200590037e-03
4.028134897814125907e+03 1.671779803990085966e+00 4.064661873471014063e-03
4.032163032711941469e+03 1.684224630413196699e+00 3.662885493425470027e-03
4.036195195744654484e+03 1.694392602530803371e+00 4.293073343580542170e-03
4.040231390940400615e+03 1.701744516252282180e+00 4.319500734256501509e-03
4.044271622331342314e+03 1.704316529508485667e+00 4.007316744924101920e-03
4.048315893953675186e+03 1.698690310974097395e+00 4.440376361549461595e-03
4.052364209847629809e+03 1.690406689538835661e+00 4.520847639446956036e-03
4.056416574057479011e+03 1.676377886169696074e+00 4.358465708494008856e-03
4.060472990631537868e+03 1.659433997235495450e+00 4.255109238242479539e-03
4.064533463622170530e+03 1.641008123059018553e+00 4.406548508125840598e-03
4.068597997085794304e+03 1.623551265970266888e+00 4.500207216662245428e-03
4.072666595082881486e+03 1.603377662024867201e+00 4.280740725630651812e-03
4.076739261677965715e+03 1.588911968183702950e+00 4.269683903507351212e-03
4.080816000939644709e+03 1.575908944746032825e+00 4.122889971873050161e-03
4.084896816940585722e+03 1.565605029957085170e+00 4.215856739156275713e-03
4.088981713757527814e+03 1.559283355267158777e+00 4.534355035556187664e-03
4.093070695471286854e+03 1.556339912323686736e+00 3.701743093593839670e-03
4.097163766166759160e+03 1.553930596266330344e+00 3.087074957862885344e-03
4.101260929932927866e+03 1.551070004896983878e+00 3.095865538367811431e-03
4.105362190862862008e+03 1.547042601264502437e+00 2.833327987554777605e-03
4.109467553053726078e+03 1.544607633332813368e+00 3.373905297267542572e-03
4.113577020606780934e+03 1.542128068393578744e+00 3.199849586412976173e-03
4.117690597627389252e+03 1.537580781856844103e+00 3.074171394570207345e-03
