# starting wavelength: 3162.860
# ending wavelength: 7996.930
# wav flux eflux
3.165857288126608182e+03 4.610888364121720762e-01 2.121748240175153760e-02
3.169023145414736064e+03 4.654521939276822229e-01 1.593872107587790063e-02
3.172192168560151458e+03 4.684880043777914227e-01 1.191947289824486084e-02
3.175364360728712654e+03 4.709538002116561706e-01 9.015177052813341460e-03
3.178539725089442527e+03 4.721967489161816856e-01 6.895738047572407166e-03
3.181718264814533086e+03 4.722691903481068820e-01 5.492059867900660718e-03
3.184899983079348658e+03 4.724230204373947029e-01 4.443001248345031413e-03
3.188084883062429071e+03 4.726037633849504149e-01 3.969160141788843910e-03
3.191272967945492383e+03 4.737851215582269404e-01 3.427813084130129119e-03
3.194464240913438971e+03 4.747826920418594110e-01 2.919375074191034054e-03
3.197658705154353811e+03 4.757313823375434181e-01 2.627266462796838242e-03
3.200856363859509202e+03 4.771333456312238930e-01 2.314869281961104853e-03
3.204057220223369768e+03 4.793402317481407215e-01 2.129820258866785363e-03
3.207261277443593826e+03 4.823101951420662448e-01 2.024725084264348326e-03
3.210468538721038840e+03 4.859051477850134249e-01 1.966881692874546117e-03
3.213679007259760965e+03 4.901459471173167382e-01 1.980037110220024977e-03
3.216892686267021418e+03 4.937881974820177988e-01 1.891905450520455726e-03
3.220109578953289656e+03 4.976628274247821837e-01 1.824297405954962903e-03
3.223329688532243836e+03 5.029673489474251191e-01 2.009555033000430622e-03
3.226553018220777176e+03 5.082542974239918632e-01 2.084935187776944601e-03
3.229779571238999324e+03 5.134061715202566933e-01 2.029736592887595656e-03
3.233009350810239084e+03 5.184184800731850284e-01 2.096565264042627927e-03
3.236242360161050783e+03 5.227002522577431920e-01 2.144953847407430475e-03
3.239478602521212906e+03 5.267915983613252751e-01 2.114354747913316061e-03
3.242718081123734919e+03 5.297924022222834095e-01 2.019867517318692934e-03
3.245960799204859995e+03 5.319134188362109050e-01 2.125654015891073004e-03
3.249206760004065927e+03 5.331265414851382722e-01 2.596379299651553792e-03
3.252455966764071036e+03 5.353444324408338506e-01 2.661683846211822160e-03
3.255708422730835991e+03 5.360921938482051674e-01 2.712504746666356912e-03
3.258964131153567905e+03 5.373046387407618418e-01 2.648037643874474358e-03
3.262223095284722604e+03 5.378403988254805146e-01 2.641846630879401015e-03
3.265485318380008266e+03 5.386530377488826238e-01 2.582143754472937536e-03
3.268750803698389518e+03 5.393128875488683027e-01 2.553827602053559184e-03
3.272019554502088795e+03 5.402426900224962525e-01 2.570430355638627772e-03
3.275291574056592253e+03 5.420011435216768314e-01 2.428461930458392874e-03
3.278566865630649772e+03 5.435145493412267825e-01 2.323479138144987893e-03
3.281845432496281319e+03 5.462854910188823521e-01 2.410544995113853006e-03
3.285127277928778767e+03 5.501647830271981787e-01 2.750851386243257334e-03
3.288412405206708627e+03 5.533956904540119348e-01 2.959969293431142894e-03
3.291700817611916591e+03 5.573597047890359590e-01 3.302202393848895079e-03
3.294992518429529355e+03 5.607397517501807593e-01 3.294590481618512885e-03
3.298287510947960072e+03 5.636134115391008281e-01 3.042533825558086345e-03
3.301585798458909267e+03 5.658786236426969207e-01 2.833799372873121829e-03
3.304887384257369376e+03 5.680669742375371589e-01 2.456338494975434088e-03
3.308192271641627485e+03 5.682303162197583912e-01 2.430960310807624234e-03
3.311500463913270323e+03 5.681902426571778797e-01 2.314584702385330626e-03
3.314811964377184722e+03 5.662533131684484022e-01 2.570744405692452529e-03
3.318126776341563072e+03 5.634324888849521207e-01 3.249474870286980961e-03
3.321444903117905596e+03 5.602538146679693076e-01 3.458882011349891442e-03
3.324766348021024896e+03 5.566805483086736395e-01 3.512902733849972148e-03
3.328091114369046863e+03 5.522842231228967114e-01 3.298919090192242980e-03
3.331419205483417045e+03 5.486668184205164556e-01 3.102596005185451027e-03
3.334750624688901553e+03 5.468212663467015844e-01 3.022998467534109782e-03
3.338085375313591612e+03 5.473364167246674850e-01 2.655988705701331758e-03
3.341423460688906289e+03 5.500185604098692949e-01 2.717476802915690451e-03
3.344764884149596128e+03 5.554153008805901015e-01 3.463731205948678959e-03
3.348109649033746791e+03 5.598264974892495083e-01 3.572263361109906735e-03
3.351457758682781787e+03 5.674821758235519820e-01 4.133568401538304134e-03
3.354809216441465651e+03 5.748003554580736196e-01 4.330731969341028442e-03
3.358164025657908041e+03 5.824988777725503830e-01 4.431192923365062826e-03
3.361522189683567376e+03 5.904447563670326415e-01 4.399240725754966982e-03
3.364883711873251741e+03 5.988836787904401326e-01 3.858407210994843888e-03
3.368248595585126168e+03 6.077949629874467297e-01 3.077085463904370450e-03
3.371616844180712633e+03 6.138398691755175829e-01 2.878304494615763209e-03
3.374988461024894150e+03 6.182444853941981844e-01 2.989850649872539956e-03
3.378363449485920228e+03 6.217351908102258795e-01 3.085095948779050488e-03
3.381741812935407324e+03 6.241774923053978741e-01 3.149517784873391655e-03
3.385123554748343849e+03 6.250026098293327559e-01 2.928119125423891619e-03
3.388508678303093347e+03 6.250090533192428355e-01 2.943269518507284077e-03
3.391897186981397681e+03 6.246826565102154838e-01 2.858378610278042905e-03
3.395289084168380214e+03 6.232432094543455259e-01 2.716172258753671038e-03
3.398684373252549449e+03 6.229487339168567894e-01 2.637595112850947294e-03
3.402083057625803121e+03 6.220316050896728122e-01 2.286902648856988050e-03
3.405485140683430018e+03 6.222435721162692390e-01 2.050005668341421412e-03
3.408890625824114522e+03 6.239450066446875498e-01 2.021774656563898355e-03
3.412299516449939802e+03 6.273926799190048254e-01 2.047494180948055548e-03
3.415711815966390986e+03 6.328074109348534870e-01 2.143350569172822184e-03
3.419127527782358356e+03 6.384477936093457817e-01 2.118390991944445363e-03
3.422546655310141887e+03 6.454586160297655084e-01 1.828814098139800110e-03
3.425969201965453522e+03 6.529999857629437132e-01 1.820174607622311981e-03
3.429395171167419903e+03 6.604101253389526027e-01 1.905956008034807294e-03
3.432824566338588284e+03 6.680064212946883462e-01 2.180285152344056763e-03
3.436257390904928343e+03 6.755155259451026684e-01 2.518271771837602823e-03
3.439693648295834464e+03 6.825456523487358762e-01 2.407223393612648553e-03
3.443133341944131189e+03 6.889360592960299678e-01 2.202986115883168172e-03
3.446576475286076402e+03 6.947853519510627240e-01 1.758930966225866590e-03
3.450023051761363604e+03 6.990500415611412555e-01 1.573660184869697838e-03
3.453473074813126004e+03 7.011266978365111591e-01 2.007351296843476549e-03
3.456926547887940615e+03 7.024288949177459607e-01 2.398932872072842646e-03
3.460383474435829612e+03 7.030838739685210115e-01 2.611247524440053151e-03
3.463843857910266706e+03 7.020449877701607777e-01 2.557795623212115021e-03
3.467307701768178049e+03 7.016577445051933593e-01 2.160742682619635514e-03
3.470775009469947236e+03 7.021368504790127529e-01 1.934119222226480042e-03
3.474245784479418489e+03 7.031332856693826017e-01 2.021079398634084787e-03
3.477720030263898934e+03 7.046836662120441463e-01 2.191705527515336489e-03
3.481197750294164052e+03 7.064289921072427481e-01 2.207111083937350442e-03
3.484678948044459503e+03 7.082549247145389915e-01 2.199037186769040812e-03
3.488163626992504760e+03 7.103751471011646723e-01 2.061984546409448716e-03
3.491651790619498570e+03 7.121270268029673556e-01 2.081854520868337347e-03
3.495143442410119405e+03 7.149529110208110438e-01 2.096287463428528255e-03
3.498638585852530468e+03 7.177640874244823888e-01 2.061649629806016400e-03
3.502137224438384237e+03 7.207538235404679083e-01 2.044068799617120361e-03
3.505639361662823831e+03 7.241193952992324157e-01 1.977005142730204820e-03
3.509145001024487556e+03 7.264621039824072923e-01 1.901007916578279118e-03
3.512654146025513455e+03 7.283786004654558832e-01 1.681369806221004503e-03
3.516166800171540217e+03 7.304053405762883644e-01 1.554806900047207277e-03
3.519682966971712631e+03 7.333033285290083692e-01 1.459773194308309607e-03
3.523202649938685681e+03 7.372647112376751188e-01 1.462215328963121933e-03
3.526725852588625457e+03 7.421723621030026363e-01 1.464002248646676437e-03
3.530252578441215064e+03 7.476089517727972922e-01 1.542258321694182270e-03
3.533782831019657806e+03 7.529556649435359406e-01 1.323459213244788501e-03
3.537316613850678550e+03 7.584513636059321273e-01 1.253308711482673194e-03
3.540853930464530094e+03 7.636520352554871938e-01 1.245667830442406679e-03
3.544394784394995895e+03 7.688368770399887087e-01 1.298332115249697070e-03
3.547939179179392340e+03 7.740183889224094838e-01 1.329581409544879599e-03
3.551487118358572843e+03 7.785199664067529168e-01 1.254909510271119645e-03
3.555038605476932389e+03 7.830744276518962765e-01 1.247427570131722386e-03
3.558593644082410719e+03 7.879073522923802919e-01 1.308010397029445637e-03
3.562152237726494150e+03 7.925550150690631179e-01 1.364458480985662574e-03
3.565714389964221937e+03 7.971646158301372020e-01 1.402805812628458472e-03
3.569280104354187188e+03 8.022033831227876055e-01 1.391144368536413383e-03
3.572849384458542772e+03 8.069196528579820615e-01 1.305441892934799735e-03
3.576422233843002232e+03 8.111641297646622339e-01 1.146572741862816620e-03
3.579998656076846601e+03 8.161009952218809538e-01 1.182853671489669410e-03
3.583578654732924406e+03 8.213800335584314771e-01 1.234236529181796140e-03
3.587162233387658489e+03 8.262474231152728832e-01 1.150424726498236070e-03
3.590749395621047370e+03 8.307545381121175243e-01 1.064581358303711344e-03
3.594340145016669794e+03 8.347032196815313831e-01 1.115475363845731859e-03
3.597934485161687462e+03 8.374637035888002901e-01 1.185917415448935110e-03
3.601532419646850485e+03 8.405549404923648993e-01 1.288117540125869459e-03
3.605133952066498296e+03 8.429155089273548951e-01 1.371681375490005871e-03
3.608739086018566013e+03 8.440401106976530565e-01 1.336474140226850352e-03
3.612347825104585809e+03 8.433391991055653181e-01 1.303018444492315322e-03
3.615960172929691907e+03 8.414114055292661876e-01 1.300649591062313752e-03
3.619576133102622407e+03 8.380523451236033816e-01 1.373784022739543828e-03
3.623195709235726554e+03 8.345160665059832006e-01 1.310491360481897370e-03
3.626818904944963379e+03 8.299083583693507293e-01 1.456755110210781155e-03
3.630445723849909427e+03 8.245634372692258740e-01 1.768459135511109065e-03
3.634076169573760581e+03 8.195396773940327728e-01 1.586386163988534300e-03
3.637710245743335690e+03 8.157069790333347781e-01 1.412952985100785321e-03
3.641347955989080219e+03 8.123736831010526238e-01 1.346320639768699631e-03
3.644989303945070333e+03 8.112316849244852746e-01 1.658164449899329762e-03
3.648634293249016537e+03 8.106482542672767133e-01 1.655389647152877893e-03
3.652282927542266862e+03 8.109459638658715885e-01 1.681010886911878067e-03
3.655935210469810499e+03 8.132949061188257112e-01 1.606437266342415843e-03
3.659591145680281443e+03 8.172172121058383087e-01 1.471122126419167940e-03
3.663250736825963031e+03 8.218040250359452958e-01 1.469726936010167136e-03
3.666913987562790226e+03 8.268850590424399183e-01 1.564761696171737028e-03
3.670580901550354156e+03 8.314441740106611745e-01 1.512027418396895678e-03
3.674251482451905758e+03 8.366002939320112963e-01 1.491301663973410756e-03
3.677925733934358959e+03 8.414947288361502853e-01 1.505726330133057810e-03
3.681603659668294313e+03 8.466145826586314316e-01 1.502272596025065700e-03
3.685285263327964003e+03 8.522619042004825340e-01 1.546002357693385208e-03
3.688970548591293209e+03 8.565445851413278078e-01 1.648818637191295849e-03
3.692659519139885560e+03 8.606803023358942095e-01 1.652554891081325786e-03
3.696352178659026777e+03 8.639397716034544761e-01 1.678580245374673968e-03
3.700048530837686940e+03 8.667333754479533692e-01 1.939668574519056105e-03
3.703748579368525952e+03 8.675821076694267830e-01 2.157283249976053169e-03
3.707452327947895355e+03 8.668759049585770260e-01 2.175594751194690531e-03
3.711159780275844696e+03 8.649355580710256231e-01 1.966583073191768664e-03
3.714870940056121526e+03 8.614211876243497157e-01 1.817007921078775141e-03
3.718585810996179134e+03 8.557025086738256903e-01 2.172935718087141369e-03
3.722304396807176545e+03 8.486766395711198285e-01 2.461220659552050636e-03
3.726026701203984885e+03 8.420864994925544300e-01 2.237637846020017283e-03
3.729752727905190113e+03 8.364943821526984458e-01 1.938533324034276504e-03
3.733482480633096657e+03 8.325601232081880632e-01 2.036983129193684853e-03
3.737215963113731050e+03 8.299185930658943278e-01 2.061820347626445657e-03
3.740953179076846027e+03 8.286660469016466912e-01 2.141278715484236893e-03
3.744694132255923705e+03 8.283388213307349979e-01 2.121636208920255322e-03
3.748438826388181042e+03 8.294484721272552541e-01 2.055138955604274720e-03
3.752187265214570289e+03 8.319257797400441135e-01 1.907437188404238716e-03
3.755939452479786269e+03 8.358222160305109893e-01 1.669853357782408090e-03
3.759695391932267285e+03 8.389899870992045816e-01 1.606535163170099909e-03
3.763455087324201031e+03 8.427668210586888309e-01 1.604473317973834252e-03
3.767218542411526414e+03 8.459659778388012308e-01 1.199409824007877145e-03
3.770985760953939007e+03 8.517439686991903347e-01 1.215714141805979186e-03
3.774756746714894234e+03 8.587063503242352569e-01 1.216906706093137756e-03
3.778531503461610555e+03 8.672518750386627451e-01 1.411466154066068172e-03
3.782310034965073100e+03 8.766906508071666826e-01 1.558230739805881561e-03
3.786092345000039586e+03 8.854409537067748914e-01 1.489421047367224180e-03
3.789878437345040766e+03 8.937273016703207729e-01 1.470905561124168830e-03
3.793668315782387253e+03 9.015425884975061255e-01 1.804985338515072580e-03
3.797461984098170888e+03 9.084202737387162552e-01 1.974826945372626808e-03
3.801259446082270188e+03 9.135742640743250709e-01 1.819338254675052519e-03
3.805060705528353537e+03 9.168202584592987092e-01 1.827142734913128532e-03
3.808865766233883278e+03 9.182634989268639858e-01 2.119236002085711848e-03
3.812674632000118436e+03 9.192859241824186123e-01 2.369337875668140869e-03
3.816487306632119726e+03 9.197614610118484135e-01 2.280569597705272948e-03
3.820303793938753188e+03 9.208652195842772503e-01 2.054075078978932593e-03
3.824124097732693372e+03 9.241066625229420461e-01 1.558762708844474215e-03
3.827948221830427428e+03 9.304311232125082043e-01 1.520127473979811586e-03
3.831776170052258749e+03 9.395814867619916022e-01 1.546895648414122262e-03
3.835607946222312421e+03 9.514228591170005300e-01 1.616038763985175016e-03
3.839443554168536139e+03 9.654308307990249194e-01 1.921557419500738786e-03
3.843282997722705659e+03 9.811722852620787805e-01 1.974851909485885165e-03
3.847126280720429804e+03 9.976672138456799122e-01 1.859030529123712524e-03
3.850973407001151372e+03 1.015210705097445709e+00 1.321163896523858605e-03
3.854824380408153957e+03 1.031959044996837216e+00 1.368608309849201959e-03
3.858679204788563311e+03 1.047434624736812481e+00 1.416210450776841847e-03
3.862537883993353262e+03 1.062839075332665750e+00 1.231773601978542127e-03
3.866400421877347981e+03 1.079733238416103136e+00 1.208285909438785478e-03
3.870266822299226533e+03 1.096789096495845106e+00 1.247461509674219985e-03
3.874137089121526969e+03 1.113484769238496153e+00 1.326278990630646052e-03
3.878011226210649966e+03 1.129743615580275140e+00 1.870233509708653548e-03
3.881889237436861549e+03 1.144821733272628927e+00 1.960479168512183588e-03
3.885771126674299921e+03 1.158192952993121860e+00 1.761558623722198329e-03
3.889656897800975457e+03 1.169758941578970202e+00 1.502438187976454318e-03
3.893546554698777527e+03 1.178467756413176470e+00 1.675229087245219380e-03
3.897440101253477678e+03 1.185655688262219343e+00 1.836060470836037945e-03
3.901337541354732366e+03 1.190802492443343130e+00 1.956283655253247128e-03
3.905238878896088409e+03 1.194367452722985279e+00 1.764280536531403955e-03
3.909144117774985716e+03 1.197418768588480287e+00 1.428869423811446803e-03
3.913053261892762293e+03 1.201641420324414566e+00 1.130930937557987669e-03
3.916966315154656058e+03 1.207141025158787073e+00 1.119310577603100211e-03
3.920883281469812118e+03 1.213565815399968661e+00 1.199642380060544780e-03
3.924804164751283224e+03 1.221625627723280205e+00 1.597208946642551374e-03
3.928728968916035683e+03 1.228901524008913615e+00 1.535292125837632799e-03
3.932657697884953450e+03 1.235496792925497633e+00 1.319924448591362721e-03
3.936590355582839493e+03 1.240456177149941830e+00 1.225497362771429304e-03
3.940526945938423523e+03 1.244133237402662351e+00 1.085253067164744034e-03
3.944467472884363360e+03 1.245402973878406705e+00 1.097460232092060820e-03
3.948411940357249023e+03 1.244327231560409697e+00 1.276030220850630581e-03
3.952360352297607733e+03 1.242334786495847165e+00 1.382142560468446225e-03
3.956312712649906643e+03 1.238554283075870677e+00 1.286549932692453982e-03
3.960269025362557841e+03 1.233320998674647395e+00 1.125794725585970487e-03
3.964229294387921527e+03 1.227888585056721826e+00 1.145127411999174918e-03
3.968193523682310570e+03 1.221416313917135454e+00 1.218363152691092927e-03
3.972161717205994591e+03 1.214358238937688794e+00 1.184242369014973156e-03
3.976133878923201792e+03 1.207291264520442109e+00 1.229287567566681285e-03
3.980110012802126221e+03 1.198756445659900027e+00 1.090425813346793463e-03
3.984090122814929600e+03 1.188992777746587182e+00 1.085571362690603047e-03
3.988074212937745870e+03 1.178257011039796076e+00 1.284456248152572718e-03
3.992062287150684824e+03 1.167393573882658631e+00 1.441012653407596020e-03
3.996054349437837118e+03 1.156267018632405552e+00 1.378099720647148326e-03
4.000050403787276082e+03 1.147084687938098702e+00 1.410012613964968476e-03
4.004050454191064546e+03 1.137790681513276558e+00 1.256617634985926057e-03
4.008054504645257111e+03 1.129754301792399218e+00 1.222478436538607929e-03
4.012062559149903791e+03 1.123605805648046241e+00 1.218649112600569961e-03
4.016074621709055009e+03 1.120371651787326561e+00 1.238462135664489695e-03
4.020090696330765240e+03 1.119124616707327213e+00 1.467337967378221347e-03
4.024110787027097558e+03 1.119032983673786674e+00 1.884727433515762237e-03
4.028134897814125907e+03 1.119399672177142868e+00 1.858873617887766162e-03
4.032163032711941469e+03 1.119624506327510538e+00 1.728345752048525722e-03
4.036195195744654484e+03 1.119401275574384291e+00 1.718893975665419967e-03
4.040231390940400615e+03 1.119161764774555090e+00 1.647443842588499144e-03
4.044271622331342314e+03 1.117766013480768761e+00 1.706230968440582271e-03
4.048315893953675186e+03 1.115317539235016753e+00 1.641919011115223256e-03
4.052364209847629809e+03 1.113130041127892378e+00 1.631375271918949826e-03
4.056416574057479011e+03 1.109915103723256857e+00 1.622663682369589969e-03
4.060472990631537868e+03 1.105888884537207684e+00 1.655761957899461742e-03
4.064533463622170530e+03 1.100882573309717394e+00 1.548480035102584767e-03
4.068597997085794304e+03 1.096239618569727181e+00 1.563216271520584313e-03
4.072666595082881486e+03 1.091395882868791745e+00 1.563574626638507877e-03
4.076739261677965715e+03 1.087457556138409442e+00 1.195940894418734760e-03
4.080816000939644709e+03 1.082394359573609188e+00 1.142556274290603335e-03
4.084896816940585722e+03 1.076414158532738030e+00 1.139892765717874512e-03
4.088981713757527814e+03 1.069894999085091669e+00 1.015841363456880444e-03
4.093070695471286854e+03 1.063013748972569061e+00 1.080268930498102511e-03
4.097163766166759160e+03 1.057071261472983803e+00 1.080087848092433928e-03
4.101260929932927866e+03 1.051816677838455227e+00 1.024928241265704934e-03
4.105362190862862008e+03 1.046243028349775450e+00 1.273585925753906081e-03
4.109467553053726078e+03 1.041614129305233893e+00 1.140925551579551880e-03
4.113577020606780934e+03 1.038169527849052809e+00 1.127325656450399883e-03
4.117690597627389252e+03 1.035696525672519908e+00 1.175584521746778511e-03
4.121808288225018259e+03 1.033759764327623731e+00 1.425813667682051741e-03
