# starting wavelength: 3681.830
# ending wavelength: 7449.070
# wav flux eflux
3.685285263327964003e+03 5.981334813269445494e-01 1.627027687974013162e-02
3.688970548591293209e+03 5.982455946756320975e-01 1.213042546524763926e-02
3.692659519139885560e+03 5.944038892612709679e-01 9.449456637868471759e-03
3.696352178659026777e+03 5.868847900403035833e-01 9.993202871172652754e-03
3.700048530837686940e+03 5.799144331107293215e-01 9.139962187131344881e-03
3.703748579368525952e+03 5.760076369991949941e-01 7.272727548629742862e-03
3.707452327947895355e+03 5.737685782557608860e-01 5.817365945217852462e-03
3.711159780275844696e+03 5.726373905577243351e-01 4.664648789438158479e-03
3.714870940056121526e+03 5.721446790329339782e-01 3.897619972189188264e-03
3.718585810996179134e+03 5.718759636726793438e-01 3.353396453381190471e-03
3.722304396807176545e+03 5.716011163858779609e-01 3.014467057895482086e-03
3.726026701203984885e+03 5.713330066906265881e-01 2.785713183888084005e-03
3.729752727905190113e+03 5.714657546972137236e-01 2.564994280082225769e-03
3.733482480633096657e+03 5.731072053395739330e-01 2.437028394899866217e-03
3.737215963113731050e+03 5.752024008000595767e-01 2.326856119338524716e-03
3.740953179076846027e+03 5.783604038216547671e-01 2.422193616921101446e-03
3.744694132255923705e+03 5.804025964654780934e-01 2.316724938810387543e-03
3.748438826388181042e+03 5.827825835153379597e-01 2.231774572493358880e-03
3.752187265214570289e+03 5.855472766218715597e-01 2.259589452337970247e-03
3.755939452479786269e+03 5.884109385847023921e-01 2.220619010713215102e-03
3.759695391932267285e+03 5.916094174340423839e-01 2.189172852613030604e-03
3.763455087324201031e+03 5.943370066874410496e-01 2.280095498564123357e-03
3.767218542411526414e+03 5.968382421141084082e-01 2.551622294738746348e-03
3.770985760953939007e+03 5.995757751351012965e-01 2.605361342817590770e-03
3.774756746714894234e+03 6.025534294997688667e-01 2.451605359035221188e-03
3.778531503461610555e+03 6.065791190960818646e-01 2.301955177030253364e-03
3.782310034965073100e+03 6.124694830760364361e-01 2.324685315616560610e-03
3.786092345000039586e+03 6.193198667784042266e-01 2.377015371883910069e-03
3.789878437345040766e+03 6.263725305069798299e-01 2.453015446463866975e-03
3.793668315782387253e+03 6.346082632458450723e-01 2.521555138482813735e-03
3.797461984098170888e+03 6.434728614473268493e-01 2.567422780416495510e-03
3.801259446082270188e+03 6.521027044599908562e-01 2.584437839789285613e-03
3.805060705528353537e+03 6.606899195392219593e-01 2.730446427317379486e-03
3.808865766233883278e+03 6.703116012374545907e-01 2.737481942075029474e-03
3.812674632000118436e+03 6.809686330025456202e-01 2.796823172484707871e-03
3.816487306632119726e+03 6.918424683773278794e-01 2.936474252552947854e-03
3.820303793938753188e+03 7.027476275379161974e-01 3.030029138917451816e-03
3.824124097732693372e+03 7.141727537502802203e-01 3.156983266345027555e-03
3.827948221830427428e+03 7.254080910892046763e-01 2.948504094728349092e-03
3.831776170052258749e+03 7.364226621786157390e-01 2.675649917624158946e-03
3.835607946222312421e+03 7.464443655001186118e-01 2.553517191345635456e-03
3.839443554168536139e+03 7.551796050621650824e-01 2.588501018488860612e-03
3.843282997722705659e+03 7.623253053473529883e-01 2.816328494930049955e-03
3.847126280720429804e+03 7.689028834475071239e-01 2.688162444337333437e-03
3.850973407001151372e+03 7.745111264084555414e-01 2.518323086008921168e-03
3.854824380408153957e+03 7.803786954055758063e-01 2.686531096024321989e-03
3.858679204788563311e+03 7.860285816623117094e-01 2.825238685859564770e-03
3.862537883993353262e+03 7.904875433391431727e-01 2.898258050241403830e-03
3.866400421877347981e+03 7.938604482821833841e-01 2.862814484836472603e-03
3.870266822299226533e+03 7.953819737899944231e-01 2.869059648976769652e-03
3.874137089121526969e+03 7.965535625166324518e-01 2.905747888015809948e-03
3.878011226210649966e+03 7.965531560444237824e-01 3.587888906998579555e-03
3.881889237436861549e+03 7.943639033744451794e-01 4.501319740006091280e-03
3.885771126674299921e+03 7.928074055788808527e-01 4.783240227288249220e-03
3.889656897800975457e+03 7.932863797136654460e-01 4.552069555704001645e-03
3.893546554698777527e+03 7.958128238244295272e-01 4.233851319741633625e-03
3.897440101253477678e+03 8.010628004996018792e-01 4.468897189461520578e-03
3.901337541354732366e+03 8.087426404357143106e-01 5.094063512850638929e-03
3.905238878896088409e+03 8.147917416618170039e-01 5.296602707162494442e-03
3.909144117774985716e+03 8.235977828664891032e-01 5.770496702938545872e-03
3.913053261892762293e+03 8.311965031155872374e-01 5.873927428791892759e-03
3.916966315154656058e+03 8.372496740359421930e-01 6.119968913164576009e-03
3.920883281469812118e+03 8.439240837730819234e-01 6.103302750233938027e-03
3.924804164751283224e+03 8.503218676061450321e-01 5.728655524002604360e-03
3.928728968916035683e+03 8.533585669198414658e-01 5.279627541626334339e-03
3.932657697884953450e+03 8.534037957255156126e-01 5.429634241281438428e-03
3.936590355582839493e+03 8.517203616062678506e-01 5.741044934581707865e-03
3.940526945938423523e+03 8.491980974021958728e-01 5.998621947263504603e-03
3.944467472884363360e+03 8.427773157029805340e-01 6.182930033834009055e-03
3.948411940357249023e+03 8.341307116659650855e-01 5.634657707730062436e-03
3.952360352297607733e+03 8.234371044777708537e-01 4.392096558909997991e-03
3.956312712649906643e+03 8.158471866706362707e-01 4.082025337620723456e-03
3.960269025362557841e+03 8.103219065975300062e-01 4.297838471284036975e-03
3.964229294387921527e+03 8.063650830779068857e-01 4.343515011312478781e-03
3.968193523682310570e+03 8.036251331857847680e-01 3.958214307730472011e-03
3.972161717205994591e+03 8.016269309647088281e-01 4.006202116264015282e-03
3.976133878923201792e+03 8.015122167478083703e-01 4.298281162773436373e-03
3.980110012802126221e+03 8.039654152988023883e-01 4.508982790268899719e-03
3.984090122814929600e+03 8.052513599652273424e-01 4.695483408681572386e-03
3.988074212937745870e+03 8.096379111074228918e-01 4.282990206507230994e-03
3.992062287150684824e+03 8.170392275998812348e-01 4.396768941868146527e-03
3.996054349437837118e+03 8.296300571324621842e-01 5.515813580509972176e-03
4.000050403787276082e+03 8.439056242928920648e-01 6.472191486232845188e-03
4.004050454191064546e+03 8.569432682431613602e-01 6.617674797627046482e-03
4.008054504645257111e+03 8.668044580274786304e-01 6.512272033304171426e-03
4.012062559149903791e+03 8.754064936286054532e-01 6.335584492404999594e-03
4.016074621709055009e+03 8.832809194125726959e-01 5.726986047913404029e-03
4.020090696330765240e+03 8.905378976795426116e-01 5.409651753170737279e-03
4.024110787027097558e+03 8.904861352908705063e-01 6.440620486849587753e-03
4.028134897814125907e+03 8.857459822188644694e-01 6.277230646656287508e-03
4.032163032711941469e+03 8.814590433754054821e-01 5.410421516735069991e-03
4.036195195744654484e+03 8.778748837688156170e-01 5.170791813559112542e-03
4.040231390940400615e+03 8.741964344763087924e-01 5.409314785992033747e-03
4.044271622331342314e+03 8.706139251198165008e-01 5.624819787775500735e-03
4.048315893953675186e+03 8.674957136450972550e-01 5.351978870089909267e-03
4.052364209847629809e+03 8.655135874169459509e-01 4.497390581116032446e-03
4.056416574057479011e+03 8.623050742916906763e-01 4.000585857771300248e-03
4.060472990631537868e+03 8.559306738605734211e-01 4.209553445054677566e-03
4.064533463622170530e+03 8.473464207557174221e-01 4.775390362822973939e-03
4.068597997085794304e+03 8.368992891455450112e-01 4.139402151075382598e-03
4.072666595082881486e+03 8.265321044698076269e-01 3.003638830708418601e-03
4.076739261677965715e+03 8.190256609532652332e-01 3.008179373032054179e-03
4.080816000939644709e+03 8.135093447923512633e-01 3.404363248934597855e-03
4.084896816940585722e+03 8.097196575520279049e-01 3.211120340720288388e-03
4.088981713757527814e+03 8.058319430801247352e-01 3.083890193956421392e-03
4.093070695471286854e+03 8.026495051769231281e-01 3.172345909232584214e-03
4.097163766166759160e+03 8.015662460264481037e-01 3.112755963848459415e-03
4.101260929932927866e+03 8.015124006349123587e-01 3.095718875839571782e-03
4.105362190862862008e+03 7.994762385158022955e-01 2.805281995861422153e-03
4.109467553053726078e+03 8.002547030634286074e-01 2.555973987695967127e-03
4.113577020606780934e+03 8.028742123780322482e-01 2.813560835235775614e-03
4.117690597627389252e+03 8.073800584979473616e-01 3.050312542461621097e-03
4.121808288225018259e+03 8.103144912489379514e-01 3.109267674279056828e-03
4.125930096513244280e+03 8.128529844343971300e-01 3.025248452564888689e-03
4.130056026609759101e+03 8.140303314821449865e-01 2.870937661880871346e-03
4.134186082636369974e+03 8.125800646957288542e-01 2.283665940437416136e-03
4.138320268719007800e+03 8.071959541113210568e-01 2.687844394202022150e-03
4.142458588987728035e+03 7.994295077924863380e-01 2.824262633410467866e-03
4.146601047576717065e+03 7.911511379634145191e-01 2.582626141963478492e-03
4.150747648624294925e+03 7.818618053747536933e-01 2.104638483368450989e-03
4.154898396272920763e+03 7.736453839596518778e-01 2.075091806132099270e-03
4.159053294669195566e+03 7.659627757792483171e-01 2.140636365240030075e-03
4.163212347963865795e+03 7.597794205479013741e-01 2.159688346271543009e-03
4.167375560311830668e+03 7.546004727108747145e-01 2.162050060414654612e-03
4.171542935872143971e+03 7.526872737688147241e-01 2.142930248598685829e-03
4.175714478808017702e+03 7.538961186426658134e-01 2.149059614773923647e-03
4.179890193286827525e+03 7.579789190201132731e-01 2.141232312961945279e-03
4.184070083480115500e+03 7.612074599666515118e-01 1.954131424857204983e-03
4.188254153563597356e+03 7.669845885634409832e-01 1.977063801734960363e-03
4.192442407717161586e+03 7.754810562744299807e-01 2.393608117565965403e-03
4.196634850124880359e+03 7.844108136916967400e-01 2.834967466424057666e-03
4.200831484975006788e+03 7.921233157653505552e-01 3.043912407731024471e-03
4.205032316459983122e+03 7.988754486900565555e-01 2.798094958134282953e-03
4.209237348776444378e+03 8.025785187010180399e-01 2.257325397675902755e-03
4.213446586125221984e+03 8.019932212016985806e-01 2.773736046224135367e-03
4.217660032711349231e+03 7.998121115526679592e-01 2.747834224756976265e-03
4.221877692744061278e+03 7.952240210278015420e-01 2.603917100565852818e-03
4.226099570436806971e+03 7.895287077397281639e-01 2.745582768736069476e-03
4.230325670007245208e+03 7.834390075469666037e-01 2.731319371135170187e-03
4.234555995677254032e+03 7.776392182597128278e-01 2.774082260735694517e-03
4.238790551672932452e+03 7.729384979425663049e-01 2.494953678901846040e-03
4.243029342224606808e+03 7.705027365767267433e-01 2.983274002524114333e-03
4.247272371566832589e+03 7.683454428693164973e-01 3.473018114946623425e-03
4.251519643938400804e+03 7.672578925442368192e-01 3.828740695031501717e-03
4.255771163582340705e+03 7.648015209579719365e-01 3.168863519257387150e-03
4.260026934745924336e+03 7.614650321792886256e-01 2.406107452902448395e-03
4.264286961680671993e+03 7.537657987184204211e-01 3.835259152944548670e-03
4.268551248642354039e+03 7.459520933667366238e-01 4.172848321414681164e-03
4.272819799890998183e+03 7.408721824289099533e-01 4.053904263745227582e-03
4.277092619690890388e+03 7.367368868605529419e-01 3.830845875276396757e-03
4.281369712310583054e+03 7.351980095784558245e-01 3.754186237107105285e-03
4.285651082022895025e+03 7.361017081499681147e-01 4.134336797213209250e-03
4.289936733104918858e+03 7.370637337048737692e-01 4.364528424760748607e-03
4.294226669838025373e+03 7.397095921251917172e-01 4.981355217191635147e-03
4.298520896507864563e+03 7.423761024932956643e-01 4.233812401769226387e-03
4.302819417404373780e+03 7.433014545739905499e-01 3.736993096221489629e-03
4.307122236821779552e+03 7.417808288205021139e-01 4.659141598276191065e-03
4.311429359058603040e+03 7.398876453366264316e-01 4.957245924860777253e-03
4.315740788417662770e+03 7.369195185215251520e-01 4.431410465541319246e-03
4.320056529206081905e+03 7.349592949223613392e-01 4.258874163047218254e-03
4.324376585735290064e+03 7.332989328559085251e-01 4.663051025640315046e-03
4.328700962321026054e+03 7.313612333186658709e-01 4.965791022136152935e-03
4.333029663283348782e+03 7.301204324546134439e-01 4.720438933226246692e-03
4.337362692946633615e+03 7.265872154380954573e-01 4.745182351979371563e-03
4.341700055639581478e+03 7.239679473430608025e-01 4.831547643950285728e-03
4.346041755695222491e+03 7.194111571279917516e-01 5.554680922338821845e-03
4.350387797450919606e+03 7.178872072507087587e-01 5.464553875324686463e-03
4.354738185248371337e+03 7.186425483403717784e-01 5.271703554404221295e-03
4.359092923433621763e+03 7.202746694205420797e-01 4.544455708831641148e-03
4.363452016357056891e+03 7.269819411945724896e-01 5.022715379537019513e-03
4.367815468373414660e+03 7.361922280214603376e-01 5.563099763363270334e-03
4.372183283841789489e+03 7.473237277825272029e-01 5.681341960480471541e-03
4.376555467125633186e+03 7.615625609971852228e-01 4.569130001634398586e-03
4.380932022592760404e+03 7.728640104310189329e-01 3.510774931134246456e-03
4.385312954615354101e+03 7.816412432979026326e-01 3.742420857636027942e-03
4.389698267569970994e+03 7.869043066438766720e-01 4.540544091642164867e-03
4.394087965837542470e+03 7.922817041614703681e-01 4.261989251609984465e-03
4.398482053803381859e+03 7.977520400632853725e-01 3.323136770297666770e-03
4.402880535857186260e+03 8.053739710128904328e-01 3.058226222210099540e-03
4.407283416393044718e+03 8.143503114337663495e-01 3.093498122410322845e-03
4.411690699809440048e+03 8.253697691488679489e-01 3.287374461713901078e-03
4.416102390509250654e+03 8.378034325500260948e-01 2.955051256221846029e-03
4.420518492899761441e+03 8.483371643557559016e-01 2.974570115168485591e-03
4.424939011392662906e+03 8.601105200879337609e-01 2.755275517351588824e-03
4.429363950404056595e+03 8.705423732966457440e-01 2.808869026071238346e-03
4.433793314354462382e+03 8.801443805905397877e-01 2.576772699935959629e-03
4.438227107668818462e+03 8.863905288993823017e-01 2.726939564653681723e-03
4.442665334776488635e+03 8.904632833873407094e-01 2.317014079880895354e-03
4.447108000111265937e+03 8.955706383669639337e-01 2.308403544825659518e-03
4.451555108111379013e+03 8.990415067148189721e-01 2.209747120579512274e-03
4.456006663219492111e+03 9.034134332845334958e-01 2.208452686501139860e-03
4.460462669882713271e+03 9.092778982429787771e-01 1.890909864678508127e-03
4.464923132552597053e+03 9.135145886622666467e-01 1.937133449982694940e-03
4.469388055685150903e+03 9.178015993016052088e-01 2.130439568134006884e-03
4.473857443740837880e+03 9.223239675883542210e-01 1.895564184029845589e-03
4.478331301184580298e+03 9.293602387053935265e-01 1.951447667124409568e-03
4.482809632485766087e+03 9.373234494743434286e-01 2.002731637720280879e-03
4.487292442118253348e+03 9.467330682933454700e-01 2.139698595201023658e-03
4.491779734560373072e+03 9.564055198991507911e-01 2.100574373533506661e-03
4.496271514294934605e+03 9.663625156523284465e-01 1.927600456686525202e-03
4.500767785809231100e+03 9.757353483737953859e-01 1.993204604626757671e-03
4.505268553595042249e+03 9.840513209950751961e-01 1.752324926818895267e-03
4.509773822148638828e+03 9.947418776353705860e-01 2.004392053948521237e-03
4.514283595970789065e+03 1.004907572247114578e+00 1.878960348910143447e-03
4.518797879566761367e+03 1.014165282060662587e+00 2.012977304275478507e-03
4.523316677446328868e+03 1.022651396457942452e+00 1.993739501577825729e-03
4.527839994123776705e+03 1.031978433638306436e+00 1.913240194945469569e-03
4.532367834117902021e+03 1.041782252011928867e+00 1.955749834777825540e-03
4.536900201952022144e+03 1.050967495731747858e+00 1.923651762268230271e-03
4.541437102153975502e+03 1.060981672505747486e+00 1.856945526005170663e-03
4.545978539256130716e+03 1.070674370488074567e+00 1.614010507684159827e-03
4.550524517795388419e+03 1.078412377676741141e+00 1.604971758276049982e-03
4.555075042313184895e+03 1.084456455254382945e+00 1.626912906314356136e-03
4.559630117355500261e+03 1.089905889605900180e+00 1.668026371783784718e-03
4.564189747472856652e+03 1.094276251320108084e+00 1.660327346325422837e-03
4.568753937220330954e+03 1.097181420825538156e+00 1.783534685327031483e-03
4.573322691157552981e+03 1.098735344653506640e+00 1.700048232781247413e-03
4.577896013848711846e+03 1.097326916890953852e+00 2.028554149038078007e-03
4.582473909862562323e+03 1.094371075209024768e+00 2.507593183896738784e-03
4.587056383772426670e+03 1.090884450701244512e+00 2.460531168401107471e-03
4.591643440156200086e+03 1.088464166790378496e+00 2.244875801830841650e-03
4.596235083596357981e+03 1.088404720912681922e+00 2.271212390831683307e-03
4.600831318679955984e+03 1.087248672844013164e+00 2.290134250271342372e-03
4.605432149998637215e+03 1.087526288741192726e+00 2.308383695498140639e-03
4.610037582148637739e+03 1.088495700429233048e+00 2.465560236379942417e-03
4.614647619730787483e+03 1.090700403668462437e+00 2.847643244701767058e-03
4.619262267350520233e+03 1.092055517133068587e+00 2.624886102550362185e-03
4.623881529617872729e+03 1.092190921567488759e+00 2.497168250875469835e-03
4.628505411147491941e+03 1.091764113783205703e+00 2.382849548557534718e-03
4.633133916558640522e+03 1.090181490419640076e+00 2.374300806953547581e-03
4.637767050475200449e+03 1.086012192283142941e+00 2.512601814344270559e-03
4.642404817525677572e+03 1.081282082146989065e+00 2.140495953476973228e-03
4.647047222343205249e+03 1.076668034884754599e+00 2.159610309404181704e-03
4.651694269565549803e+03 1.070863979488172690e+00 2.090203658589522007e-03
4.656345963835116891e+03 1.066076112364963580e+00 2.254237195014678098e-03
4.661002309798953320e+03 1.060255877435016592e+00 1.910965172798704745e-03
4.665663312108753416e+03 1.052107301198707656e+00 1.914056825057438085e-03
4.670328975420864481e+03 1.042786985525166354e+00 1.979602698152635541e-03
4.674999304396286789e+03 1.032955448355704853e+00 1.998666489481276762e-03
4.679674303700684504e+03 1.022707724902841786e+00 2.058904577460502448e-03
4.684353978004386590e+03 1.012454994997171953e+00 2.051472661145483344e-03
4.689038331982392265e+03 1.000336146951858352e+00 1.521345802161932700e-03
4.693727370314376458e+03 9.905140726241291604e-01 1.452429858629856541e-03
4.698421097684692540e+03 9.816767358199137705e-01 1.410665344627997329e-03
4.703119518782378691e+03 9.749474885391168355e-01 1.278541083213827765e-03
4.707822638301162442e+03 9.684302011706779068e-01 1.570959106724730209e-03
4.712530460939465229e+03 9.643692052292651695e-01 1.587593929491364943e-03
4.717242991400406027e+03 9.623489557293624097e-01 1.776584738374896704e-03
4.721960234391808626e+03 9.608026274365201180e-01 1.760760631870307482e-03
4.726682194626201635e+03 9.590483535194760378e-01 1.819850426190702331e-03
4.731408876820829391e+03 9.582092473823493606e-01 1.900780639851691730e-03
4.736140285697651962e+03 9.569148444554044231e-01 1.790019403698668793e-03
4.740876425983350600e+03 9.538469793071916447e-01 1.894032297046803308e-03
4.745617302409335934e+03 9.513087998115929977e-01 1.797810678317681701e-03
4.750362919711747054e+03 9.477195012116104156e-01 1.897078117186338283e-03
4.755113282631459697e+03 9.436555305731605392e-01 1.848657644481206327e-03
4.759868395914093526e+03 9.393880066087104685e-01 1.713227390965320340e-03
4.764628264310008490e+03 9.355552141564202895e-01 1.618251961905186817e-03
4.769392892574320285e+03 9.321312843580153995e-01 1.517191032741120344e-03
4.774162285466896719e+03 9.299303300053448629e-01 1.510836170797606737e-03
4.778936447752364984e+03 9.279754490069577200e-01 1.463197049981970451e-03
4.783715384200118933e+03 9.281669078886660706e-01 1.355012413213808279e-03
4.788499099584319993e+03 9.293830476967550602e-01 1.299951305000488118e-03
4.793287598683906253e+03 9.311371583586126599e-01 1.294903296389897027e-03
4.798080886282591564e+03 9.324252685994276479e-01 1.019220548702304881e-03
