# starting wavelength: 3648.860
# ending wavelength: 8962.110
# wav flux eflux
3.652282927542266862e+03 5.309592521412640487e-01 4.048892569704010645e-03
3.655935210469810499e+03 5.464391197077017592e-01 3.817607607148540850e-03
3.659591145680281443e+03 5.610399893163022789e-01 3.462033505722556925e-03
3.663250736825963031e+03 5.739233700580035347e-01 3.035876672071943956e-03
3.666913987562790226e+03 5.852254648951652483e-01 2.777652574031463668e-03
3.670580901550354156e+03 5.952182295675931822e-01 2.857917595940129458e-03
3.674251482451905758e+03 6.032131391213638727e-01 3.167067336818933394e-03
3.677925733934358959e+03 6.105028221463058014e-01 3.281144201182235529e-03
3.681603659668294313e+03 6.172130785539605702e-01 3.316878590508196261e-03
3.685285263327964003e+03 6.228207054479116822e-01 3.408460293660987329e-03
3.688970548591293209e+03 6.274437303045968806e-01 3.324900623600700149e-03
3.692659519139885560e+03 6.311294059256584710e-01 3.015788951300907988e-03
3.696352178659026777e+03 6.344662440835026063e-01 2.542447911023243586e-03
3.700048530837686940e+03 6.376653378968958341e-01 2.148012482340417098e-03
3.703748579368525952e+03 6.412329281006968751e-01 1.808303614042051401e-03
3.707452327947895355e+03 6.453096062724646975e-01 1.634384503219230402e-03
3.711159780275844696e+03 6.508563888825066313e-01 1.685952208836163533e-03
3.714870940056121526e+03 6.576166461913272032e-01 1.988987638523724132e-03
3.718585810996179134e+03 6.644233756674670088e-01 2.221250199832434154e-03
3.722304396807176545e+03 6.723610266910379218e-01 2.433338853311641133e-03
3.726026701203984885e+03 6.803561605681951452e-01 2.380149982139630280e-03
3.729752727905190113e+03 6.874930458116996768e-01 1.988175523836397014e-03
3.733482480633096657e+03 6.939021089192305425e-01 1.606620532261549298e-03
3.737215963113731050e+03 6.982720803172275392e-01 1.825490759825027474e-03
3.740953179076846027e+03 7.021918424768706091e-01 1.923712582703179710e-03
3.744694132255923705e+03 7.058608907064933824e-01 1.907863742489074223e-03
3.748438826388181042e+03 7.085643700612989093e-01 1.839362125539519520e-03
3.752187265214570289e+03 7.106904302971124299e-01 1.811473252430425814e-03
3.755939452479786269e+03 7.119958594087500980e-01 1.792916269904538907e-03
3.759695391932267285e+03 7.130619719512821808e-01 1.858497672706094141e-03
3.763455087324201031e+03 7.130707740460340283e-01 1.876153296302744689e-03
3.767218542411526414e+03 7.130831080629621566e-01 1.896615954282762119e-03
3.770985760953939007e+03 7.129437194647696430e-01 2.044494732308871528e-03
3.774756746714894234e+03 7.128562325864392646e-01 2.144520937849192423e-03
3.778531503461610555e+03 7.120347657186958390e-01 2.038012576051199867e-03
3.782310034965073100e+03 7.133392702714153044e-01 1.788937922964302200e-03
3.786092345000039586e+03 7.161324149300578590e-01 1.792425310426772880e-03
3.789878437345040766e+03 7.202570702764319321e-01 1.896020008678752592e-03
3.793668315782387253e+03 7.256748378734454441e-01 2.099239316664402739e-03
3.797461984098170888e+03 7.320588761541743095e-01 2.418998590724618855e-03
3.801259446082270188e+03 7.381163133127056630e-01 2.274672050536245046e-03
3.805060705528353537e+03 7.432673255437850512e-01 2.177744024512076951e-03
3.808865766233883278e+03 7.482175626285264558e-01 2.298012538896176266e-03
3.812674632000118436e+03 7.543137271255774268e-01 2.372003332298345656e-03
3.816487306632119726e+03 7.598918107450314263e-01 2.448193016767048237e-03
3.820303793938753188e+03 7.667035953543616111e-01 2.427264677556704043e-03
3.824124097732693372e+03 7.744282177766821373e-01 2.390208643490364295e-03
3.827948221830427428e+03 7.823882036032138165e-01 2.411611716159867223e-03
3.831776170052258749e+03 7.907775983381072349e-01 2.628150211726508392e-03
3.835607946222312421e+03 8.006052966128031079e-01 2.483887931532439020e-03
3.839443554168536139e+03 8.119468272489803740e-01 2.371672411464569030e-03
3.843282997722705659e+03 8.242425727175470840e-01 2.323154619161151620e-03
3.847126280720429804e+03 8.377960675523051792e-01 2.523388556529597253e-03
3.850973407001151372e+03 8.523331356707212203e-01 2.629478488376820085e-03
3.854824380408153957e+03 8.672974780015735297e-01 2.553426025456513333e-03
3.858679204788563311e+03 8.829913712485630839e-01 2.352168745090641062e-03
3.862537883993353262e+03 8.985357603402683857e-01 2.070004663224520296e-03
3.866400421877347981e+03 9.141107083531260225e-01 1.882224940098073222e-03
3.870266822299226533e+03 9.301243346331828921e-01 1.796175634907136312e-03
3.874137089121526969e+03 9.443562743349129818e-01 2.275127884959727079e-03
3.878011226210649966e+03 9.583237423446677727e-01 2.616041150135737549e-03
3.881889237436861549e+03 9.721901372428762844e-01 2.638546558464939518e-03
3.885771126674299921e+03 9.856321195330153273e-01 2.174744029824803807e-03
3.889656897800975457e+03 1.001941305668287985e+00 1.737835443642511473e-03
3.893546554698777527e+03 1.020305234195409083e+00 1.754154071290119814e-03
3.897440101253477678e+03 1.040463958896742591e+00 2.090635749052239048e-03
3.901337541354732366e+03 1.061316503801378319e+00 2.618971813965726304e-03
3.905238878896088409e+03 1.081297198185652730e+00 2.787445236314080223e-03
3.909144117774985716e+03 1.101510812963185426e+00 3.146595183196742793e-03
3.913053261892762293e+03 1.121144625413870166e+00 3.397230470534840039e-03
3.916966315154656058e+03 1.138326361502849604e+00 2.932872719510157180e-03
3.920883281469812118e+03 1.151583705808699065e+00 2.160192961228236345e-03
3.924804164751283224e+03 1.159979102166541542e+00 1.795137503539740971e-03
3.928728968916035683e+03 1.163038913002012897e+00 1.792621386521454051e-03
3.932657697884953450e+03 1.161569905044677942e+00 1.994736888726393684e-03
3.936590355582839493e+03 1.155470664672253012e+00 2.495774070525918088e-03
3.940526945938423523e+03 1.144566481360963284e+00 2.719479333919379033e-03
3.944467472884363360e+03 1.131029979500390859e+00 2.664641044404433834e-03
3.948411940357249023e+03 1.115696245735050773e+00 2.338062815573384995e-03
3.952360352297607733e+03 1.100134571509682413e+00 2.179161593793516299e-03
3.956312712649906643e+03 1.086157312775371864e+00 1.692910818248066903e-03
3.960269025362557841e+03 1.074729560032291920e+00 1.575958354181183430e-03
3.964229294387921527e+03 1.065688705981843176e+00 1.619837727361256785e-03
3.968193523682310570e+03 1.059723441687758783e+00 1.947203969213851752e-03
3.972161717205994591e+03 1.056113783844686571e+00 2.103875092737266493e-03
3.976133878923201792e+03 1.054662717107282877e+00 2.132782029368555064e-03
3.980110012802126221e+03 1.055009336016450305e+00 1.913492031516526512e-03
3.984090122814929600e+03 1.057513623143267356e+00 1.572467774323398288e-03
3.988074212937745870e+03 1.060796701467894954e+00 1.129605792276344896e-03
3.992062287150684824e+03 1.063511620574984384e+00 8.961574384865148577e-04
3.996054349437837118e+03 1.066401068542166986e+00 8.963988113265104968e-04
4.000050403787276082e+03 1.069175678008026376e+00 8.574033854315647740e-04
4.004050454191064546e+03 1.070979859479474605e+00 9.058955579998622309e-04
4.008054504645257111e+03 1.072399811412982906e+00 8.908197314466661989e-04
4.012062559149903791e+03 1.073019962914558922e+00 7.399992708642744513e-04
4.016074621709055009e+03 1.073576539374774264e+00 7.279040059761084178e-04
4.020090696330765240e+03 1.073582834311260115e+00 7.212127456253775680e-04
4.024110787027097558e+03 1.072977634966440830e+00 8.198704675361041198e-04
4.028134897814125907e+03 1.072304965882550087e+00 8.193394665633377521e-04
4.032163032711941469e+03 1.071065108311177072e+00 8.007504637048895113e-04
4.036195195744654484e+03 1.069059495918555314e+00 6.356203208152838872e-04
4.040231390940400615e+03 1.067224399252347355e+00 8.009110376058712873e-04
4.044271622331342314e+03 1.064976296603224570e+00 1.081939714426745271e-03
4.048315893953675186e+03 1.061785447623172507e+00 1.041209290840482745e-03
4.052364209847629809e+03 1.057366518258043175e+00 1.043378654978427368e-03
4.056416574057479011e+03 1.052063870234444476e+00 1.146403387703692116e-03
4.060472990631537868e+03 1.046081594397022974e+00 1.259663387975138186e-03
4.064533463622170530e+03 1.040176792521125604e+00 1.246118337109154879e-03
4.068597997085794304e+03 1.033667992763435350e+00 1.219677826009587943e-03
4.072666595082881486e+03 1.026612166158952455e+00 1.174946819044644453e-03
4.076739261677965715e+03 1.019709341237059252e+00 1.217903084421205701e-03
4.080816000939644709e+03 1.012287570541241966e+00 1.210034937763495569e-03
4.084896816940585722e+03 1.004487143293042450e+00 1.206607526001290866e-03
4.088981713757527814e+03 9.965765863600701824e-01 1.201436933565179326e-03
4.093070695471286854e+03 9.885067523793091837e-01 1.416719925009745111e-03
4.097163766166759160e+03 9.814253479371355393e-01 1.428786064354173281e-03
4.101260929932927866e+03 9.743306821291443098e-01 1.528166090561443183e-03
4.105362190862862008e+03 9.679739632595200094e-01 1.289483670027763429e-03
4.109467553053726078e+03 9.628616434370720345e-01 1.388297311367305996e-03
4.113577020606780934e+03 9.583091275031890843e-01 1.567185042743803524e-03
4.117690597627389252e+03 9.548198045244908894e-01 1.708354855598234225e-03
4.121808288225018259e+03 9.516454972124461786e-01 1.372281747517690694e-03
4.125930096513244280e+03 9.480217554497442078e-01 1.122490042530322656e-03
4.130056026609759101e+03 9.437445728203137651e-01 1.355862264113363554e-03
4.134186082636369974e+03 9.395183027654248065e-01 1.550868460544207539e-03
4.138320268719007800e+03 9.355692965181086063e-01 1.473001871452395096e-03
4.142458588987728035e+03 9.325405924227023746e-01 1.398762008160841803e-03
4.146601047576717065e+03 9.302326406449658025e-01 1.220366061153843997e-03
4.150747648624294925e+03 9.289262666752082787e-01 1.204000879972195364e-03
4.154898396272920763e+03 9.288332944361609167e-01 1.323141336145174530e-03
4.159053294669195566e+03 9.293086485287880283e-01 1.274193241081206717e-03
4.163212347963865795e+03 9.308254106196134359e-01 1.068924161136486058e-03
4.167375560311830668e+03 9.326205429280013393e-01 1.005006927727320008e-03
4.171542935872143971e+03 9.344906645816244417e-01 1.027141774323664511e-03
4.175714478808017702e+03 9.369160421077160628e-01 1.036048588915171971e-03
4.179890193286827525e+03 9.383925281334102309e-01 8.850514824828194108e-04
4.184070083480115500e+03 9.401229433971053373e-01 1.056666467195844453e-03
4.188254153563597356e+03 9.412390287368123110e-01 1.094735723026031299e-03
4.192442407717161586e+03 9.417681724312572111e-01 1.087128759320705410e-03
4.196634850124880359e+03 9.417642733663558197e-01 9.141333225045249547e-04
4.200831484975006788e+03 9.408690840479435602e-01 7.637989893617849833e-04
4.205032316459983122e+03 9.385844896947677096e-01 1.020443508372168148e-03
4.209237348776444378e+03 9.354350260240642534e-01 1.241781068313580014e-03
4.213446586125221984e+03 9.320724239198814320e-01 1.234346713125679699e-03
4.217660032711349231e+03 9.291602501016330562e-01 1.014094173534720120e-03
4.221877692744061278e+03 9.266655565661117144e-01 7.460435874560299467e-04
4.226099570436806971e+03 9.253653519328205457e-01 8.607436090157497997e-04
4.230325670007245208e+03 9.248935362575138042e-01 9.384924679914386511e-04
4.234555995677254032e+03 9.252938027619814765e-01 9.135488916150991644e-04
4.238790551672932452e+03 9.255368699373865971e-01 8.195374252714539677e-04
4.243029342224606808e+03 9.261485996914494701e-01 6.779975950972292600e-04
4.247272371566832589e+03 9.262605460336463814e-01 6.545130190337330447e-04
4.251519643938400804e+03 9.260106884411630768e-01 7.828280842013624150e-04
4.255771163582340705e+03 9.259675895304279036e-01 8.199130370546447479e-04
4.260026934745924336e+03 9.256990971494892806e-01 7.123896610617642608e-04
4.264286961680671993e+03 9.257413937710142759e-01 7.048613564708841551e-04
4.268551248642354039e+03 9.259249028352944944e-01 5.343524295316718232e-04
4.272819799890998183e+03 9.267785440301981037e-01 6.079127791868216757e-04
4.277092619690890388e+03 9.282479827814134055e-01 8.368791787478263361e-04
4.281369712310583054e+03 9.299510858688829762e-01 8.089165951679457619e-04
4.285651082022895025e+03 9.307335401334012603e-01 7.629699627471393407e-04
4.289936733104918858e+03 9.313741483789546027e-01 7.454952302991974542e-04
4.294226669838025373e+03 9.316122011462907304e-01 9.263718064671603572e-04
4.298520896507864563e+03 9.320678862700593204e-01 1.057439924172991035e-03
4.302819417404373780e+03 9.326805851326299690e-01 1.036443678985975256e-03
4.307122236821779552e+03 9.341477682119305737e-01 9.768783038828553287e-04
4.311429359058603040e+03 9.363289948606648982e-01 8.130394498510586316e-04
4.315740788417662770e+03 9.398699015296784198e-01 9.051328245334144254e-04
4.320056529206081905e+03 9.441344597518039894e-01 1.029626429166273114e-03
4.324376585735290064e+03 9.492812894813300595e-01 9.501739787415669708e-04
4.328700962321026054e+03 9.549806940937920485e-01 9.002320240124697974e-04
4.333029663283348782e+03 9.608511195258852000e-01 8.311169401542679294e-04
4.337362692946633615e+03 9.669453353066969070e-01 6.737288382159475637e-04
4.341700055639581478e+03 9.727373772431802124e-01 6.200336147922184135e-04
4.346041755695222491e+03 9.778172347028172284e-01 6.173193077234922664e-04
4.350387797450919606e+03 9.825265999611447754e-01 5.148352534928220562e-04
4.354738185248371337e+03 9.871709621160030812e-01 4.321826434828876648e-04
4.359092923433621763e+03 9.922323430570416658e-01 7.061276466906001286e-04
4.363452016357056891e+03 9.968394514049813138e-01 6.441489165758681416e-04
4.367815468373414660e+03 1.000695563516988296e+00 7.724006238628286026e-04
4.372183283841789489e+03 1.004973105143498469e+00 8.174447209771335335e-04
4.376555467125633186e+03 1.009089701026480324e+00 9.825168183879070399e-04
4.380932022592760404e+03 1.014031450518997124e+00 9.580532043966122086e-04
4.385312954615354101e+03 1.019664341691492337e+00 9.031253078495898520e-04
4.389698267569970994e+03 1.025893849736009500e+00 8.403931188800000708e-04
4.394087965837542470e+03 1.033111901365961316e+00 8.102700064503061969e-04
4.398482053803381859e+03 1.041680300346364829e+00 8.413120158721974209e-04
4.402880535857186260e+03 1.051027155789297174e+00 8.284322446078164637e-04
4.407283416393044718e+03 1.060987467563042186e+00 8.670955329753034495e-04
4.411690699809440048e+03 1.071752627436991956e+00 8.319490806303799901e-04
4.416102390509250654e+03 1.082512411187044332e+00 7.629065591758357788e-04
4.420518492899761441e+03 1.093425387556049788e+00 7.808403756879366909e-04
4.424939011392662906e+03 1.104315792158754306e+00 9.619355102155945168e-04
4.429363950404056595e+03 1.115555354383650277e+00 9.001794131658228185e-04
4.433793314354462382e+03 1.127474339439068718e+00 8.003754814572507830e-04
4.438227107668818462e+03 1.139938056622212592e+00 8.037338636250549850e-04
4.442665334776488635e+03 1.153345956254236082e+00 7.300872973914974192e-04
4.447108000111265937e+03 1.166914788666955749e+00 7.305153687462941818e-04
4.451555108111379013e+03 1.180298344904467500e+00 7.784655887160286123e-04
4.456006663219492111e+03 1.194169567427975753e+00 8.281415801789350712e-04
4.460462669882713271e+03 1.208287809474499763e+00 7.960054269662034067e-04
4.464923132552597053e+03 1.223315146180876667e+00 9.064969435159568947e-04
4.469388055685150903e+03 1.238267221057686607e+00 9.217997164055266460e-04
4.473857443740837880e+03 1.252394824455711264e+00 9.538643997764455771e-04
4.478331301184580298e+03 1.266390381484649996e+00 1.009525771822701937e-03
4.482809632485766087e+03 1.280400431951962625e+00 1.045483857778184899e-03
4.487292442118253348e+03 1.294374451282644722e+00 1.060273077792424226e-03
4.491779734560373072e+03 1.309102713740934787e+00 1.070363559690397500e-03
4.496271514294934605e+03 1.324028846482704802e+00 1.097519486721701062e-03
4.500767785809231100e+03 1.338323983176062049e+00 1.115970984242145884e-03
4.505268553595042249e+03 1.352000536434136979e+00 1.198611049053482664e-03
4.509773822148638828e+03 1.364232048761839122e+00 1.209382092637738791e-03
4.514283595970789065e+03 1.375676732875785069e+00 1.333433725740919588e-03
4.518797879566761367e+03 1.385678665256343312e+00 1.226810964124584909e-03
4.523316677446328868e+03 1.393147890224658347e+00 1.183591457505087097e-03
4.527839994123776705e+03 1.398599750108862061e+00 1.289797527178121982e-03
4.532367834117902021e+03 1.402221538400451051e+00 1.367654582978403014e-03
4.536900201952022144e+03 1.403274293943225226e+00 1.347348063042719864e-03
4.541437102153975502e+03 1.402950275747767650e+00 9.866789672460650907e-04
4.545978539256130716e+03 1.401818562248293487e+00 8.707952819615164724e-04
4.550524517795388419e+03 1.400225665320628199e+00 1.101854063395903312e-03
4.555075042313184895e+03 1.397426551567678032e+00 1.139923557475667776e-03
4.559630117355500261e+03 1.392720682780768993e+00 1.108225733580463527e-03
4.564189747472856652e+03 1.386693133834607128e+00 1.281404000523109427e-03
4.568753937220330954e+03 1.379833928716023506e+00 1.385769571809979594e-03
4.573322691157552981e+03 1.372238390304770350e+00 1.355575301598316556e-03
4.577896013848711846e+03 1.364523575980707282e+00 1.372326771801124414e-03
4.582473909862562323e+03 1.355731880490420149e+00 1.349853191675062791e-03
4.587056383772426670e+03 1.346266818768561579e+00 1.272889495969779707e-03
4.591643440156200086e+03 1.336923604810351440e+00 1.338106510475142123e-03
4.596235083596357981e+03 1.327085565692384783e+00 1.453026430615190047e-03
4.600831318679955984e+03 1.317325857829402258e+00 1.395248957045682912e-03
4.605432149998637215e+03 1.306530097764970089e+00 1.121783679929153890e-03
4.610037582148637739e+03 1.294271850131499813e+00 1.125102373307840589e-03
4.614647619730787483e+03 1.281217932029317774e+00 1.136471642067288235e-03
4.619262267350520233e+03 1.267166632952380967e+00 1.218935946945232714e-03
4.623881529617872729e+03 1.252021615438537960e+00 1.068674476313811236e-03
4.628505411147491941e+03 1.236978141992789437e+00 8.536622585644027851e-04
4.633133916558640522e+03 1.222317232536635156e+00 7.568598546464777458e-04
4.637767050475200449e+03 1.208767042025258309e+00 8.214908499383384837e-04
4.642404817525677572e+03 1.195817218328303788e+00 7.987903524587391295e-04
4.647047222343205249e+03 1.182792303443039872e+00 7.976636521782470585e-04
4.651694269565549803e+03 1.170118889321035249e+00 7.754988734574438589e-04
4.656345963835116891e+03 1.158187576992496970e+00 7.930072286622168523e-04
4.661002309798953320e+03 1.146838742088023722e+00 7.390349792667843740e-04
4.665663312108753416e+03 1.135556055723311530e+00 5.316162616876104379e-04
4.670328975420864481e+03 1.123821985864930539e+00 5.218076572787663531e-04
4.674999304396286789e+03 1.111884326670673717e+00 4.848983313830914775e-04
4.679674303700684504e+03 1.100192178880828431e+00 5.250635882026344781e-04
4.684353978004386590e+03 1.088294471960525422e+00 5.215590033215470288e-04
4.689038331982392265e+03 1.076212563602604311e+00 4.910622040518322975e-04
4.693727370314376458e+03 1.063835415704512455e+00 5.844515160726501549e-04
4.698421097684692540e+03 1.051733674289407450e+00 6.073253820099909451e-04
4.703119518782378691e+03 1.040307370460327396e+00 6.480346568284913594e-04
4.707822638301162442e+03 1.029338354866644822e+00 7.072555431132578757e-04
4.712530460939465229e+03 1.019449368901855779e+00 6.212081394068804004e-04
4.717242991400406027e+03 1.011029100808793935e+00 5.599755058607660272e-04
4.721960234391808626e+03 1.003947748277628671e+00 5.706587514021323930e-04
4.726682194626201635e+03 9.986569170000421103e-01 6.038465660125596352e-04
4.731408876820829391e+03 9.945924030327250032e-01 6.128350206634808513e-04
4.736140285697651962e+03 9.913233784919392999e-01 6.037992861085497449e-04
4.740876425983350600e+03 9.893349148547706529e-01 5.788040697938268966e-04
4.745617302409335934e+03 9.884787090732556347e-01 5.971184491047180389e-04
4.750362919711747054e+03 9.888325706084336586e-01 5.895918794655764144e-04
4.755113282631459697e+03 9.897693324097411871e-01 5.271580925325688571e-04
