# starting wavelength: 3328.280
# ending wavelength: 9993.720
# wav flux eflux
3.331419205483417045e+03 6.282296677313956579e-01 1.109013425098580308e-01
3.334750624688901553e+03 6.706829982965900605e-01 8.467548338983012235e-02
3.338085375313591612e+03 6.817538187870626487e-01 7.906182710270838465e-02
3.341423460688906289e+03 6.946289637147891050e-01 5.978743577112964613e-02
3.344764884149596128e+03 7.129069247356563110e-01 4.611474301081812388e-02
3.348109649033746791e+03 7.315004521326226028e-01 3.689194033605464745e-02
3.351457758682781787e+03 7.424010919434856914e-01 2.980692329529694914e-02
3.354809216441465651e+03 7.528728223353604587e-01 2.602169341130953356e-02
3.358164025657908041e+03 7.668127328237981377e-01 2.415854701098902116e-02
3.361522189683567376e+03 7.835944613020031646e-01 2.077319248454622194e-02
3.364883711873251741e+03 7.988493360561559342e-01 1.801948254450099970e-02
3.368248595585126168e+03 8.071214928910099839e-01 1.676147876813283491e-02
3.371616844180712633e+03 8.111953521688864965e-01 1.535094594782139728e-02
3.374988461024894150e+03 8.135358181087062324e-01 1.405998991187176403e-02
3.378363449485920228e+03 8.137685880696698959e-01 1.319180111514126584e-02
3.381741812935407324e+03 8.082300334374190598e-01 1.264658388981672321e-02
3.385123554748343849e+03 7.982154834902134288e-01 1.210016221578264287e-02
3.388508678303093347e+03 7.803549467693686736e-01 1.239385556263158765e-02
3.391897186981397681e+03 7.601428326662486024e-01 1.282278185579011770e-02
3.395289084168380214e+03 7.351480443518316754e-01 1.491677395931821810e-02
3.398684373252549449e+03 7.110639607503751458e-01 1.660313483856015043e-02
3.402083057625803121e+03 6.867548405550506496e-01 1.918109776137612993e-02
3.405485140683430018e+03 6.654149968278950666e-01 2.105935124957460797e-02
3.408890625824114522e+03 6.492680059273540083e-01 2.141729223838308507e-02
3.412299516449939802e+03 6.331925313871626937e-01 1.959186418959037862e-02
3.415711815966390986e+03 6.295616924014163507e-01 1.765778957278455949e-02
3.419127527782358356e+03 6.354225360599177197e-01 1.685938298088293999e-02
3.422546655310141887e+03 6.483507799293695140e-01 1.711620880484965995e-02
3.425969201965453522e+03 6.681201442050994643e-01 1.767038759952239274e-02
3.429395171167419903e+03 6.982097489615343155e-01 1.900244102182921391e-02
3.432824566338588284e+03 7.357482755267384933e-01 2.043349504553191448e-02
3.436257390904928343e+03 7.763248848861784568e-01 2.100315224906046732e-02
3.439693648295834464e+03 8.177970916906479593e-01 2.096815023104785236e-02
3.443133341944131189e+03 8.631840126471059804e-01 2.054420289389500068e-02
3.446576475286076402e+03 9.074328137715268472e-01 1.956623028227160929e-02
3.450023051761363604e+03 9.483539463646583068e-01 1.957126364014925499e-02
3.453473074813126004e+03 9.881349833903612101e-01 1.932598090702516286e-02
3.456926547887940615e+03 1.030985885737777608e+00 1.719922485164228354e-02
3.460383474435829612e+03 1.068243214254364748e+00 1.672653997025449341e-02
3.463843857910266706e+03 1.098968954165702616e+00 1.500466836036011206e-02
3.467307701768178049e+03 1.111445180093043161e+00 1.497136287585000732e-02
3.470775009469947236e+03 1.111929173059450271e+00 1.530445603134657044e-02
3.474245784479418489e+03 1.098264275074506191e+00 1.533966308174046327e-02
3.477720030263898934e+03 1.076728155150494803e+00 1.598453639414298966e-02
3.481197750294164052e+03 1.039461452844735456e+00 1.777201796750400853e-02
3.484678948044459503e+03 9.877452522155339976e-01 2.022278366353079740e-02
3.488163626992504760e+03 9.275523275340615825e-01 2.252791003434974001e-02
3.491651790619498570e+03 8.619822843081224040e-01 2.260095559720187025e-02
3.495143442410119405e+03 8.006392818360149599e-01 2.369743448759881535e-02
3.498638585852530468e+03 7.493681211955470767e-01 2.375554421146500172e-02
3.502137224438384237e+03 7.038970513302387211e-01 2.374853734549218359e-02
3.505639361662823831e+03 6.630157397022274912e-01 2.342319001094577205e-02
3.509145001024487556e+03 6.278905653991491143e-01 2.298515995173868592e-02
3.512654146025513455e+03 5.984139260592125087e-01 2.277834247262080017e-02
3.516166800171540217e+03 5.738968955217449430e-01 2.273552314022637966e-02
3.519682966971712631e+03 5.576829150221340736e-01 2.216897772504351424e-02
3.523202649938685681e+03 5.488445709401872374e-01 2.090053713072851510e-02
3.526725852588625457e+03 5.545135378347214594e-01 2.082796586578821579e-02
3.530252578441215064e+03 5.734881156849156447e-01 2.137679158096003618e-02
3.533782831019657806e+03 6.056084325389607947e-01 2.212590474603572110e-02
3.537316613850678550e+03 6.495725281552280350e-01 2.238781116388770601e-02
3.540853930464530094e+03 7.001801977466087790e-01 2.119122885292763075e-02
3.544394784394995895e+03 7.590005185379546937e-01 1.933612200588960550e-02
3.547939179179392340e+03 8.179804418773434227e-01 1.684618981830234008e-02
3.551487118358572843e+03 8.778217536319141701e-01 1.546132210428443655e-02
3.555038605476932389e+03 9.303882435313275412e-01 1.567176679198174771e-02
3.558593644082410719e+03 9.737686416516927457e-01 1.618105663522332455e-02
3.562152237726494150e+03 1.008838316761996534e+00 1.683701714925189136e-02
3.565714389964221937e+03 1.030738496223841505e+00 1.698509862458900954e-02
3.569280104354187188e+03 1.045170527672927729e+00 1.753752697354269210e-02
3.572849384458542772e+03 1.048874865192082062e+00 1.749499071291965233e-02
3.576422233843002232e+03 1.043057427174139296e+00 1.720132963761828587e-02
3.579998656076846601e+03 1.025362984983286152e+00 1.838449859311650295e-02
3.583578654732924406e+03 1.007376600010069234e+00 1.878087754332465747e-02
3.587162233387658489e+03 9.781833885785529148e-01 2.048700007170672216e-02
3.590749395621047370e+03 9.399924902131537863e-01 2.315471185199165574e-02
3.594340145016669794e+03 8.947119866848806113e-01 2.609866424062064552e-02
3.597934485161687462e+03 8.469264240848340952e-01 2.726761369618192071e-02
3.601532419646850485e+03 7.993312081977772543e-01 2.565590347423768805e-02
3.605133952066498296e+03 7.555636104192747782e-01 2.176423208606047613e-02
3.608739086018566013e+03 7.130117480791375861e-01 1.450941804296628987e-02
3.612347825104585809e+03 7.015816015720480747e-01 1.735448499594421934e-02
3.615960172929691907e+03 7.015651918019308875e-01 2.146704812440954069e-02
3.619576133102622407e+03 7.102458660942227997e-01 2.332677347179267294e-02
3.623195709235726554e+03 7.225198690287629733e-01 2.285435186952336148e-02
3.626818904944963379e+03 7.366827555424433349e-01 2.254865888304054614e-02
3.630445723849909427e+03 7.573194416739182921e-01 2.219340813126568016e-02
3.634076169573760581e+03 7.868411339034269147e-01 2.138511273383654834e-02
3.637710245743335690e+03 8.249857747994864265e-01 1.988303434049432800e-02
3.641347955989080219e+03 8.662374147706854988e-01 1.906256990972937312e-02
3.644989303945070333e+03 9.071172708472241553e-01 1.826970708029248061e-02
3.648634293249016537e+03 9.448783778239092657e-01 1.816688569032667497e-02
3.652282927542266862e+03 9.763910474684204255e-01 1.856928777101071737e-02
3.655935210469810499e+03 1.000221070241164245e+00 1.755264522811732231e-02
3.659591145680281443e+03 1.027252209145860684e+00 1.752577269604635793e-02
3.663250736825963031e+03 1.053353612730971500e+00 1.857353151247480988e-02
3.666913987562790226e+03 1.071526594588258385e+00 1.876785034593798918e-02
3.670580901550354156e+03 1.086007939899714447e+00 1.908319274675143729e-02
3.674251482451905758e+03 1.101378475797523571e+00 1.927027363204343591e-02
3.677925733934358959e+03 1.110286765287145094e+00 1.838314480727170491e-02
3.681603659668294313e+03 1.113651739180914424e+00 1.816973495913915340e-02
3.685285263327964003e+03 1.112747501756357948e+00 1.805867411032851394e-02
3.688970548591293209e+03 1.107570769107049546e+00 1.798710059674158909e-02
3.692659519139885560e+03 1.095643563652389796e+00 1.807124075828106177e-02
3.696352178659026777e+03 1.074023882417049602e+00 1.863309051577225622e-02
3.700048530837686940e+03 1.043299790060037813e+00 1.826824052413937929e-02
3.703748579368525952e+03 1.010492091874078291e+00 1.661135091078938530e-02
3.707452327947895355e+03 9.778845529025574912e-01 1.397691235155376112e-02
3.711159780275844696e+03 9.497555253785958662e-01 1.144155538675342872e-02
3.714870940056121526e+03 9.333119885713037078e-01 1.146136437809558428e-02
3.718585810996179134e+03 9.257069847553329733e-01 1.150209132366430270e-02
3.722304396807176545e+03 9.266253532087637135e-01 1.026412614112896457e-02
3.726026701203984885e+03 9.301099347580542576e-01 1.008841076865745270e-02
3.729752727905190113e+03 9.356397649487939727e-01 1.023290214564654896e-02
3.733482480633096657e+03 9.456180485799059454e-01 1.181251833838938871e-02
3.737215963113731050e+03 9.582526728332159127e-01 1.373362418800226289e-02
3.740953179076846027e+03 9.776393599333901285e-01 1.419806900668376878e-02
3.744694132255923705e+03 9.914634152824440827e-01 1.326804382932337753e-02
3.748438826388181042e+03 9.995024485464678587e-01 1.319857388435791493e-02
3.752187265214570289e+03 9.991801684525374316e-01 1.327482099016347172e-02
3.755939452479786269e+03 9.918452913046816866e-01 1.410121479928056962e-02
3.759695391932267285e+03 9.866906595018637427e-01 1.377040594713328965e-02
3.763455087324201031e+03 9.798261901896224702e-01 1.338397192560487198e-02
3.767218542411526414e+03 9.622864060091300686e-01 1.385432188924520108e-02
3.770985760953939007e+03 9.405705037468286012e-01 1.419177495177654548e-02
3.774756746714894234e+03 9.132457893391614512e-01 1.291221069792160801e-02
3.778531503461610555e+03 8.869833322338085413e-01 9.838683676122974425e-03
3.782310034965073100e+03 8.671821250862919994e-01 1.024754762441235957e-02
3.786092345000039586e+03 8.465250544890405848e-01 1.067853824977025787e-02
3.789878437345040766e+03 8.377071581373106701e-01 1.255164048317932053e-02
3.793668315782387253e+03 8.263630886608601678e-01 1.214970994832634266e-02
3.797461984098170888e+03 8.140059289496082151e-01 1.265002740826426560e-02
3.801259446082270188e+03 8.062809286625176597e-01 1.350255106914546172e-02
3.805060705528353537e+03 8.061677485063225568e-01 1.489569408904174198e-02
3.808865766233883278e+03 8.084471779826966076e-01 1.623935087077495176e-02
3.812674632000118436e+03 8.203551994605928765e-01 1.603992972802104761e-02
3.816487306632119726e+03 8.372960278874734819e-01 1.444255337119827905e-02
3.820303793938753188e+03 8.621317817565481434e-01 1.265925368156408000e-02
3.824124097732693372e+03 9.011770696322490837e-01 1.351805925173445513e-02
3.827948221830427428e+03 9.517620534151757239e-01 1.546483317517528301e-02
3.831776170052258749e+03 1.007369121938984424e+00 1.615599467791661165e-02
3.835607946222312421e+03 1.064892497830170814e+00 1.566607873126833056e-02
3.839443554168536139e+03 1.124512967572337097e+00 1.474098831266962978e-02
3.843282997722705659e+03 1.185615489490768004e+00 1.310689657073688986e-02
3.847126280720429804e+03 1.239319042026902240e+00 1.296172281081227860e-02
3.850973407001151372e+03 1.288034197926128721e+00 1.290993531117576483e-02
3.854824380408153957e+03 1.330975377720433395e+00 1.323820950346861480e-02
3.858679204788563311e+03 1.366464434235787229e+00 1.307506564866004264e-02
3.862537883993353262e+03 1.384665725878714948e+00 1.342097617275944850e-02
3.866400421877347981e+03 1.386442593938873813e+00 1.335136370736608735e-02
3.870266822299226533e+03 1.373556934672647944e+00 1.335983372512469965e-02
3.874137089121526969e+03 1.358482587985870405e+00 1.233090259555225110e-02
3.878011226210649966e+03 1.329738236804450580e+00 9.349203357859421290e-03
3.881889237436861549e+03 1.284254458189334258e+00 9.939149508581178460e-03
3.885771126674299921e+03 1.221084208266816518e+00 1.537516767742158098e-02
3.889656897800975457e+03 1.154944793356497357e+00 1.819934833144318254e-02
3.893546554698777527e+03 1.089685745579540121e+00 1.838498221421589959e-02
3.897440101253477678e+03 1.028780593128451715e+00 1.584863255169304680e-02
3.901337541354732366e+03 9.809070161304471736e-01 1.395369951421458928e-02
3.905238878896088409e+03 9.455776350398562569e-01 1.066325672567396479e-02
3.909144117774985716e+03 9.288077478833236533e-01 7.929571598519220138e-03
3.913053261892762293e+03 9.391922224470213854e-01 8.611186032138258908e-03
3.916966315154656058e+03 9.763028735811793979e-01 1.129217352401533023e-02
3.920883281469812118e+03 1.023339940326251307e+00 1.074070332125423750e-02
3.924804164751283224e+03 1.088360604152615041e+00 1.248466465863755023e-02
3.928728968916035683e+03 1.160338953079020907e+00 1.267393258056245288e-02
3.932657697884953450e+03 1.230519061788490909e+00 1.138880694159992608e-02
3.936590355582839493e+03 1.290188031457979889e+00 1.037729898544439457e-02
3.940526945938423523e+03 1.344102371155412090e+00 9.094708229880050718e-03
3.944467472884363360e+03 1.379532326557955102e+00 8.711702158387315403e-03
3.948411940357249023e+03 1.398712490138995124e+00 8.723225002144620668e-03
3.952360352297607733e+03 1.401299986718385515e+00 8.898900421192793703e-03
3.956312712649906643e+03 1.386170452744478476e+00 1.076136261351897869e-02
3.960269025362557841e+03 1.359382763283713436e+00 1.313174980530238713e-02
3.964229294387921527e+03 1.327873177071153377e+00 1.367538461479396276e-02
3.968193523682310570e+03 1.286877930050497998e+00 1.026931929475312366e-02
3.972161717205994591e+03 1.253122458054897193e+00 8.851954009011998165e-03
3.976133878923201792e+03 1.232479842738372966e+00 8.366376227698882340e-03
3.980110012802126221e+03 1.232820437192360341e+00 8.554448168397588495e-03
3.984090122814929600e+03 1.249701802475351231e+00 9.768632538629156217e-03
3.988074212937745870e+03 1.274388536418154194e+00 1.040672600905019098e-02
3.992062287150684824e+03 1.312796438449871150e+00 1.272104105191489663e-02
3.996054349437837118e+03 1.360534858116199564e+00 1.619391091048973802e-02
4.000050403787276082e+03 1.413120341807290403e+00 1.620680522385204228e-02
4.004050454191064546e+03 1.458647851164737164e+00 1.392537036644092563e-02
4.008054504645257111e+03 1.488265973015464816e+00 1.056185555328260049e-02
4.012062559149903791e+03 1.500121562042011192e+00 1.298003945093522196e-02
4.016074621709055009e+03 1.495977474476708702e+00 1.535901332499999168e-02
4.020090696330765240e+03 1.483861283601863867e+00 1.511971791109637149e-02
4.024110787027097558e+03 1.465102008177461279e+00 1.334153267414929685e-02
4.028134897814125907e+03 1.446594541977087145e+00 1.197474595263123623e-02
4.032163032711941469e+03 1.428989387977448011e+00 1.109048074477217947e-02
4.036195195744654484e+03 1.412416847353078042e+00 1.021996455286842097e-02
4.040231390940400615e+03 1.404514691829541029e+00 1.116269021243302025e-02
4.044271622331342314e+03 1.405372827914775913e+00 9.822472386246471066e-03
4.048315893953675186e+03 1.401463993297110466e+00 8.613437016430745483e-03
4.052364209847629809e+03 1.393375585651236426e+00 1.172970663221688248e-02
4.056416574057479011e+03 1.387017164481797682e+00 1.219978137141162176e-02
4.060472990631537868e+03 1.388856403233184489e+00 1.351277122147867028e-02
4.064533463622170530e+03 1.386103699297061898e+00 1.608180772541516201e-02
4.068597997085794304e+03 1.376629913051989451e+00 1.792728013841152213e-02
4.072666595082881486e+03 1.360129414505131695e+00 1.767145432867732457e-02
4.076739261677965715e+03 1.336842413809219421e+00 1.687724253552827514e-02
4.080816000939644709e+03 1.309203597937770525e+00 1.644938395493762001e-02
4.084896816940585722e+03 1.272150409991370967e+00 1.756060359904734747e-02
4.088981713757527814e+03 1.231490780361251147e+00 1.765698443263987935e-02
4.093070695471286854e+03 1.191036379702626435e+00 1.720327185427016417e-02
4.097163766166759160e+03 1.155696659850682373e+00 1.659939560073062439e-02
4.101260929932927866e+03 1.126981904470649498e+00 1.547466798064428377e-02
4.105362190862862008e+03 1.111772991757076667e+00 1.505122836180830016e-02
4.109467553053726078e+03 1.110226195343421596e+00 1.569277821648931703e-02
4.113577020606780934e+03 1.121530558582050086e+00 1.604473854064041721e-02
4.117690597627389252e+03 1.148169795861163411e+00 1.381117141391651620e-02
4.121808288225018259e+03 1.183067538706469746e+00 1.199015576674350783e-02
4.125930096513244280e+03 1.218425039246329833e+00 1.384038998850070298e-02
4.130056026609759101e+03 1.256850765630255884e+00 1.070405754510222497e-02
4.134186082636369974e+03 1.303779287896073447e+00 1.109434785091180722e-02
4.138320268719007800e+03 1.360793878422192460e+00 1.647736009014713621e-02
4.142458588987728035e+03 1.414005654422819891e+00 1.738279500514117865e-02
4.146601047576717065e+03 1.456252320136488976e+00 1.512672012876987819e-02
4.150747648624294925e+03 1.481801214262005617e+00 1.424549672479251232e-02
4.154898396272920763e+03 1.491750330831951743e+00 1.587188562327560698e-02
4.159053294669195566e+03 1.491774331016561872e+00 1.729705493822858431e-02
4.163212347963865795e+03 1.482800901677258754e+00 1.861261135409295053e-02
4.167375560311830668e+03 1.470273235141084989e+00 1.899808738271876671e-02
4.171542935872143971e+03 1.458460551296808960e+00 1.717447970628608461e-02
4.175714478808017702e+03 1.451290481282701217e+00 1.469817801049019129e-02
4.179890193286827525e+03 1.450816438792980057e+00 1.330840559028509916e-02
4.184070083480115500e+03 1.463933506616164060e+00 1.462140386586682599e-02
4.188254153563597356e+03 1.488183398692683790e+00 1.407501454503326706e-02
4.192442407717161586e+03 1.516853225177926756e+00 1.036028689455334439e-02
4.196634850124880359e+03 1.541157018237772069e+00 5.692548901797880694e-03
4.200831484975006788e+03 1.555342229576158086e+00 5.872099309513392762e-03
4.205032316459983122e+03 1.561927891105965083e+00 5.574675712184676106e-03
4.209237348776444378e+03 1.562060316682809091e+00 6.974756266343800672e-03
4.213446586125221984e+03 1.551862340886936753e+00 6.979170697470114468e-03
4.217660032711349231e+03 1.535804898238032790e+00 7.163464196109413894e-03
4.221877692744061278e+03 1.513572169767043007e+00 8.370845445948824765e-03
4.226099570436806971e+03 1.488243749786722692e+00 9.385612989564008635e-03
4.230325670007245208e+03 1.462318109487184437e+00 9.736295036959777965e-03
4.234555995677254032e+03 1.441080603549061978e+00 9.050750567951321157e-03
4.238790551672932452e+03 1.427551218144279765e+00 8.819536427119111996e-03
4.243029342224606808e+03 1.422190891624439679e+00 8.261029378940645818e-03
4.247272371566832589e+03 1.425483383029609863e+00 8.078007136726591750e-03
4.251519643938400804e+03 1.440930523686710041e+00 8.986914138481797570e-03
4.255771163582340705e+03 1.464435704304877017e+00 8.755252174279184660e-03
4.260026934745924336e+03 1.492163565194595254e+00 8.687453156586744801e-03
4.264286961680671993e+03 1.527975838451111068e+00 8.154693573339352741e-03
4.268551248642354039e+03 1.569659233084606864e+00 8.063827376549292589e-03
4.272819799890998183e+03 1.610901389324780997e+00 9.391575225366171134e-03
4.277092619690890388e+03 1.642295093229087399e+00 9.506744821023196609e-03
4.281369712310583054e+03 1.668484927483145031e+00 9.698779967188184831e-03
4.285651082022895025e+03 1.693105590370061586e+00 9.357662892188561843e-03
4.289936733104918858e+03 1.711627658960735099e+00 8.108942418776316635e-03
4.294226669838025373e+03 1.718916691220990112e+00 1.087655520486784967e-02
4.298520896507864563e+03 1.722170415810001520e+00 1.299551917809608527e-02
4.302819417404373780e+03 1.728120779469567880e+00 1.261007469525706089e-02
4.307122236821779552e+03 1.734124419709698994e+00 1.193585553032975623e-02
4.311429359058603040e+03 1.744445781318425537e+00 1.071613293519259498e-02
4.315740788417662770e+03 1.762386281176761216e+00 1.136106170413879977e-02
4.320056529206081905e+03 1.782966468018426065e+00 1.159232053868486899e-02
4.324376585735290064e+03 1.811500277673640191e+00 1.180273796581899660e-02
4.328700962321026054e+03 1.841208778872422736e+00 1.096158190434537612e-02
4.333029663283348782e+03 1.876057818418806811e+00 8.694941142648944174e-03
4.337362692946633615e+03 1.907539266630977837e+00 7.989714396058578486e-03
