# starting wavelength: 3156.550
# ending wavelength: 8758.430
# wav flux eflux
3.159535058474598372e+03 4.623639447803989944e-02 1.108838525236882089e-01
3.162694593533074112e+03 2.554671771088459220e-01 8.113611198125937618e-02
3.165857288126608182e+03 4.200605558687156016e-01 7.580149770728608627e-02
3.169023145414736064e+03 5.230346548700934850e-01 5.693208014612936851e-02
3.172192168560151458e+03 5.719507662472711473e-01 5.048787449247565950e-02
3.175364360728712654e+03 5.958020813343989364e-01 4.376966568013133940e-02
3.178539725089442527e+03 6.022323620539807854e-01 4.099902950614350144e-02
3.181718264814533086e+03 6.050695113032464878e-01 3.539465637576076629e-02
3.184899983079348658e+03 6.037866206767230626e-01 3.620795138716108308e-02
3.188084883062429071e+03 6.065520094408007878e-01 3.405519754890686673e-02
3.191272967945492383e+03 6.081375708527987367e-01 2.961998935333148147e-02
3.194464240913438971e+03 6.106577685181151516e-01 2.720678119440460979e-02
3.197658705154353811e+03 6.097730559976226594e-01 2.459541474945035888e-02
3.200856363859509202e+03 6.049909298246616274e-01 2.268706346286186379e-02
3.204057220223369768e+03 6.002502963882504483e-01 2.122827822375115969e-02
3.207261277443593826e+03 5.942364417309090596e-01 2.008957802819158825e-02
3.210468538721038840e+03 5.845440726075860072e-01 1.923077956491805671e-02
3.213679007259760965e+03 5.725375148886393539e-01 1.885234567754597718e-02
3.216892686267021418e+03 5.644482334635433363e-01 1.831803305972402873e-02
3.220109578953289656e+03 5.638360425749037175e-01 1.760215790042634135e-02
3.223329688532243836e+03 5.668782292475025297e-01 1.720117523587563757e-02
3.226553018220777176e+03 5.652246153265433337e-01 1.759272080129628199e-02
3.229779571238999324e+03 5.674216227775815691e-01 1.740513499157017932e-02
3.233009350810239084e+03 5.758570587584197487e-01 1.741840595033023256e-02
3.236242360161050783e+03 5.771248883435160515e-01 1.753591659132444983e-02
3.239478602521212906e+03 5.783247151756757409e-01 1.722420504364291158e-02
3.242718081123734919e+03 5.842403429526994429e-01 1.726746310895483846e-02
3.245960799204859995e+03 5.909857109228113803e-01 1.783514256205079654e-02
3.249206760004065927e+03 5.966437561614161833e-01 1.825993788238579330e-02
3.252455966764071036e+03 6.024260625092303645e-01 1.901987448483044921e-02
3.255708422730835991e+03 6.052656283806167048e-01 1.946341602494857173e-02
3.258964131153567905e+03 6.033630595401522356e-01 2.000598962072665243e-02
3.262223095284722604e+03 6.085153377064120850e-01 2.001051474034099345e-02
3.265485318380008266e+03 6.090402780218588941e-01 1.919109639956954882e-02
3.268750803698389518e+03 6.097689065285231136e-01 1.651350407415265800e-02
3.272019554502088795e+03 6.006611311159881783e-01 1.565815120298755594e-02
3.275291574056592253e+03 5.863053884950805150e-01 1.633436991811327080e-02
3.278566865630649772e+03 5.659524049479598418e-01 1.775790365896651526e-02
3.281845432496281319e+03 5.349613643970568821e-01 1.771521153607413801e-02
3.285127277928778767e+03 5.076777226644937357e-01 1.752641595593254845e-02
3.288412405206708627e+03 4.790814623809639405e-01 1.718190769775115867e-02
3.291700817611916591e+03 4.467388961848404727e-01 1.618705638922251014e-02
3.294992518429529355e+03 4.226640615104769738e-01 1.478030531704145091e-02
3.298287510947960072e+03 4.025897224303673916e-01 1.379225129079164093e-02
3.301585798458909267e+03 3.927238695576463767e-01 1.518292985198674110e-02
3.304887384257369376e+03 3.828996523476309033e-01 1.622080238280822900e-02
3.308192271641627485e+03 3.743808749236915423e-01 1.720588193044245498e-02
3.311500463913270323e+03 3.703202224927426567e-01 1.679787938166653685e-02
3.314811964377184722e+03 3.643089994101478823e-01 1.718719365912237465e-02
3.318126776341563072e+03 3.654015081872544757e-01 1.695012193711470730e-02
3.321444903117905596e+03 3.664251565659856769e-01 1.637679993041708804e-02
3.324766348021024896e+03 3.645092507161549200e-01 1.628221718426893158e-02
3.328091114369046863e+03 3.639242260895078629e-01 1.625499240944570586e-02
3.331419205483417045e+03 3.674657005803813048e-01 1.571617637679863233e-02
3.334750624688901553e+03 3.730942466887552933e-01 1.523872046451837936e-02
3.338085375313591612e+03 3.699650184138631448e-01 1.631725139786468701e-02
3.341423460688906289e+03 3.704553256708253972e-01 1.763931726367721359e-02
3.344764884149596128e+03 3.765704207317878693e-01 1.745870449534309143e-02
3.348109649033746791e+03 3.809231788830401699e-01 1.431693423819275016e-02
3.351457758682781787e+03 3.930444371257216241e-01 1.432283175050419639e-02
3.354809216441465651e+03 4.082770281860319539e-01 1.469373921399638565e-02
3.358164025657908041e+03 4.213893473407233636e-01 1.439675407623208087e-02
3.361522189683567376e+03 4.382564033273704807e-01 1.458716643661667201e-02
3.364883711873251741e+03 4.614397843439461133e-01 1.536915689817808933e-02
3.368248595585126168e+03 4.879520850119997144e-01 1.621728611134493417e-02
3.371616844180712633e+03 5.126217119733368355e-01 1.513888986239497053e-02
3.374988461024894150e+03 5.379523927387791504e-01 1.385520868064133229e-02
3.378363449485920228e+03 5.603929242537052380e-01 1.235673970481229733e-02
3.381741812935407324e+03 5.771604617830490280e-01 1.239619423549657810e-02
3.385123554748343849e+03 5.933286442630216762e-01 1.214178380660466648e-02
3.388508678303093347e+03 6.061720464670554698e-01 1.207516161611764047e-02
3.391897186981397681e+03 6.129974282533856567e-01 1.270542945255678791e-02
3.395289084168380214e+03 6.113204604015435306e-01 1.199661657762595215e-02
3.398684373252549449e+03 6.075482374337687341e-01 9.497071615467358660e-03
3.402083057625803121e+03 6.071363444216274496e-01 9.454437291734108656e-03
3.405485140683430018e+03 6.035029630402024559e-01 9.229937668838113923e-03
3.408890625824114522e+03 5.995745273230559391e-01 9.213549807867888602e-03
3.412299516449939802e+03 5.945874539011095639e-01 9.152517681820336939e-03
3.415711815966390986e+03 5.901454967255588269e-01 9.144895608144796781e-03
3.419127527782358356e+03 5.851712580839688593e-01 9.116287891356544826e-03
3.422546655310141887e+03 5.827054491869635422e-01 8.697236162668988205e-03
3.425969201965453522e+03 5.787096882171715029e-01 8.827915247286014996e-03
3.429395171167419903e+03 5.768495270848225109e-01 9.154418975026688832e-03
3.432824566338588284e+03 5.756119533187515902e-01 9.158957680867906015e-03
3.436257390904928343e+03 5.767253511255564513e-01 9.203059710281041861e-03
3.439693648295834464e+03 5.762653375476415318e-01 9.216091832829786945e-03
3.443133341944131189e+03 5.697811416869767998e-01 8.031951011378407612e-03
3.446576475286076402e+03 5.661681546063801473e-01 7.598530377173819995e-03
3.450023051761363604e+03 5.709588298036893939e-01 8.054749861003593012e-03
3.453473074813126004e+03 5.761211410327307103e-01 8.305349306856970454e-03
3.456926547887940615e+03 5.759063545968393649e-01 8.249324358813692887e-03
3.460383474435829612e+03 5.761031788804068521e-01 8.441597065435780395e-03
3.463843857910266706e+03 5.778187190401102846e-01 8.281811617504800799e-03
3.467307701768178049e+03 5.798772481237235432e-01 7.016411845631802605e-03
3.470775009469947236e+03 5.777899440975827750e-01 6.341830620213214677e-03
3.474245784479418489e+03 5.685742493538581410e-01 8.094965269036632355e-03
3.477720030263898934e+03 5.597583021475363019e-01 8.333673839685308907e-03
3.481197750294164052e+03 5.520490451102928464e-01 8.544879731133889558e-03
3.484678948044459503e+03 5.468175801568428973e-01 8.804135668409526772e-03
3.488163626992504760e+03 5.413847384357627357e-01 8.551256757612703610e-03
3.491651790619498570e+03 5.347468387240125187e-01 8.017595714716697908e-03
3.495143442410119405e+03 5.291590361632309003e-01 7.450725146548810469e-03
3.498638585852530468e+03 5.292895031166143793e-01 7.981129956316572807e-03
3.502137224438384237e+03 5.293993503875884521e-01 8.345073914051457514e-03
3.505639361662823831e+03 5.293073959982375065e-01 8.325831362812778635e-03
3.509145001024487556e+03 5.323129688785150915e-01 8.214515723790226029e-03
3.512654146025513455e+03 5.352984562909370858e-01 7.966285624675113752e-03
3.516166800171540217e+03 5.384712640050691723e-01 7.878394881781400003e-03
3.519682966971712631e+03 5.419246126313225220e-01 7.871422119600514702e-03
3.523202649938685681e+03 5.442424064614551638e-01 7.927387514061365673e-03
3.526725852588625457e+03 5.491402793602728760e-01 7.881720404484733947e-03
3.530252578441215064e+03 5.541160836829582825e-01 7.828566193715170984e-03
3.533782831019657806e+03 5.565018140950453995e-01 7.933985106138696092e-03
3.537316613850678550e+03 5.561348585874662520e-01 6.501562246326589127e-03
3.540853930464530094e+03 5.579770134418385874e-01 5.611007499218549632e-03
3.544394784394995895e+03 5.663971748304932330e-01 6.406450652238369382e-03
3.547939179179392340e+03 5.741389557664956511e-01 7.600297743657702040e-03
3.551487118358572843e+03 5.785842454005405422e-01 7.759542526036101312e-03
3.555038605476932389e+03 5.842365412184078455e-01 7.046668514605636605e-03
3.558593644082410719e+03 5.931706855573500858e-01 5.389260807405632688e-03
3.562152237726494150e+03 5.932871062208558977e-01 5.535061465944608391e-03
3.565714389964221937e+03 5.861410961916593276e-01 5.461100494620232775e-03
3.569280104354187188e+03 5.782770264788072989e-01 5.677217284219157785e-03
3.572849384458542772e+03 5.636400561227291606e-01 5.647448443800782807e-03
3.576422233843002232e+03 5.434807183130926367e-01 6.254372239764467191e-03
3.579998656076846601e+03 5.184099465255819217e-01 6.582025904508044013e-03
3.583578654732924406e+03 4.922597166529252832e-01 6.781597703700218208e-03
3.587162233387658489e+03 4.651483928609645435e-01 7.299481091565223310e-03
3.590749395621047370e+03 4.357155891995586616e-01 7.483341968743823132e-03
3.594340145016669794e+03 4.098396842083129044e-01 6.735356948784048357e-03
3.597934485161687462e+03 3.886962669858368136e-01 6.779216654714734051e-03
3.601532419646850485e+03 3.697300812270934989e-01 6.064020209226394717e-03
3.605133952066498296e+03 3.577986634173042635e-01 5.768513299855036053e-03
3.608739086018566013e+03 3.535615732851526416e-01 5.919534369512834127e-03
3.612347825104585809e+03 3.571112225919344518e-01 6.291580198768224712e-03
3.615960172929691907e+03 3.636169516013838532e-01 6.664791628505688237e-03
3.619576133102622407e+03 3.728445323578126191e-01 6.861697325245807652e-03
3.623195709235726554e+03 3.844695334685642174e-01 6.965457298451721221e-03
3.626818904944963379e+03 4.010868368364298719e-01 5.239671144747603225e-03
3.630445723849909427e+03 4.153660949390620694e-01 3.640658871890523063e-03
3.634076169573760581e+03 4.216796657241796975e-01 4.070446138577229686e-03
3.637710245743335690e+03 4.268245370521622783e-01 4.196646702930923595e-03
3.641347955989080219e+03 4.318436443829006266e-01 5.819426592724404219e-03
3.644989303945070333e+03 4.266012241458739807e-01 5.873404827986749080e-03
3.648634293249016537e+03 4.138494895698049403e-01 6.978182412218729078e-03
3.652282927542266862e+03 3.997374415384775670e-01 8.591853188526491283e-03
3.655935210469810499e+03 3.868784651797449459e-01 8.869569188452159150e-03
3.659591145680281443e+03 3.686924613878205248e-01 8.902822674998131514e-03
3.663250736825963031e+03 3.570890046712671961e-01 8.599094383963433799e-03
3.666913987562790226e+03 3.502905143845785330e-01 8.394087806683287606e-03
3.670580901550354156e+03 3.437901076768234421e-01 7.960749383986947744e-03
3.674251482451905758e+03 3.496401017642414844e-01 8.319391880172001888e-03
3.677925733934358959e+03 3.601584401431946469e-01 8.598855903578492277e-03
3.681603659668294313e+03 3.760858071091452426e-01 8.578462855823539013e-03
3.685285263327964003e+03 3.975183609741231860e-01 8.398783556078535592e-03
3.688970548591293209e+03 4.224610416568406746e-01 7.862724951497930548e-03
3.692659519139885560e+03 4.498723982332056837e-01 7.472632272867461151e-03
3.696352178659026777e+03 4.752282300362297707e-01 7.404412502644075640e-03
3.700048530837686940e+03 4.989112937375871359e-01 7.414619103950794050e-03
3.703748579368525952e+03 5.208748998164257626e-01 7.412751547003561779e-03
3.707452327947895355e+03 5.377277522051125969e-01 7.108869077403927317e-03
3.711159780275844696e+03 5.477484783616022312e-01 6.375031932764167741e-03
3.714870940056121526e+03 5.602437104524791156e-01 6.263125302939626105e-03
3.718585810996179134e+03 5.722997922665176151e-01 2.999290311275088113e-03
3.722304396807176545e+03 5.730183567423160484e-01 2.915633337990653634e-03
3.726026701203984885e+03 5.665204357676650870e-01 3.129512491305619544e-03
3.729752727905190113e+03 5.529472022176602497e-01 3.081996037130565157e-03
3.733482480633096657e+03 5.357325296934262182e-01 2.756133019635347622e-03
3.737215963113731050e+03 5.161978499049656444e-01 2.705984572661787168e-03
3.740953179076846027e+03 4.939895322766639230e-01 2.798908529772996864e-03
3.744694132255923705e+03 4.666501166863460948e-01 2.546372150667340888e-03
3.748438826388181042e+03 4.419419047147825630e-01 2.842010810887503694e-03
3.752187265214570289e+03 4.177245434702200888e-01 3.867365687817921754e-03
3.755939452479786269e+03 3.974207995836753771e-01 3.852175340443181242e-03
3.759695391932267285e+03 3.845370393166990253e-01 3.593287945829932301e-03
3.763455087324201031e+03 3.780907058679422450e-01 3.267401904279583578e-03
3.767218542411526414e+03 3.804422497811793535e-01 3.297160632962158316e-03
3.770985760953939007e+03 3.910181521457727349e-01 4.948737243773173450e-03
3.774756746714894234e+03 4.068473695336818907e-01 5.273684729365584259e-03
3.778531503461610555e+03 4.281621042956311740e-01 5.015457335474909212e-03
3.782310034965073100e+03 4.510681113564233291e-01 5.382951399941586328e-03
3.786092345000039586e+03 4.784271213648876309e-01 5.803207930267011323e-03
3.789878437345040766e+03 5.114404984710131385e-01 5.686154956039020207e-03
3.793668315782387253e+03 5.459984551053084223e-01 5.957459884946747844e-03
3.797461984098170888e+03 5.798726399841998003e-01 6.451467668349854419e-03
3.801259446082270188e+03 6.106435215196622801e-01 6.634268548503672626e-03
3.805060705528353537e+03 6.387208941865938350e-01 6.593437174647602539e-03
3.808865766233883278e+03 6.637530233144228742e-01 6.509280523020711043e-03
3.812674632000118436e+03 6.858169188435107033e-01 6.377315111594484241e-03
3.816487306632119726e+03 7.026943652324044720e-01 6.787043633373664696e-03
3.820303793938753188e+03 7.182724910426853127e-01 6.834014989127684507e-03
3.824124097732693372e+03 7.268380332539502442e-01 6.756886539672020756e-03
3.827948221830427428e+03 7.311194191537513376e-01 7.038681787780846390e-03
3.831776170052258749e+03 7.287280771347708352e-01 7.006599770028591745e-03
3.835607946222312421e+03 7.202957779091527790e-01 6.859356108241329575e-03
3.839443554168536139e+03 7.086783685397720634e-01 7.051515205146692555e-03
3.843282997722705659e+03 7.001402247608530249e-01 6.578464835193221887e-03
3.847126280720429804e+03 6.891321815116379090e-01 6.644508511179274615e-03
3.850973407001151372e+03 6.774260501376561106e-01 7.168841220028562659e-03
3.854824380408153957e+03 6.634080152263841512e-01 6.610990942382246639e-03
3.858679204788563311e+03 6.545547203254477031e-01 5.414034781184950788e-03
3.862537883993353262e+03 6.508856593937158985e-01 5.727617904112210397e-03
3.866400421877347981e+03 6.520879503567706958e-01 6.040255487187760203e-03
3.870266822299226533e+03 6.571811268395838512e-01 5.647307668732051353e-03
3.874137089121526969e+03 6.662892569732613568e-01 5.172460494933274304e-03
3.878011226210649966e+03 6.782040353009554101e-01 4.934498265389365701e-03
3.881889237436861549e+03 6.935650400819997063e-01 4.984387840245472871e-03
3.885771126674299921e+03 7.065879463306107278e-01 4.968799922459797222e-03
3.889656897800975457e+03 7.191743496317903883e-01 5.205833157915722154e-03
3.893546554698777527e+03 7.327785760226486200e-01 5.374190010885919813e-03
3.897440101253477678e+03 7.415493613619976720e-01 5.758052149446144310e-03
3.901337541354732366e+03 7.518089992308127911e-01 5.967471870043112442e-03
3.905238878896088409e+03 7.606542018078269463e-01 6.473611246473085640e-03
3.909144117774985716e+03 7.718116943467140390e-01 6.371890848672595586e-03
3.913053261892762293e+03 7.824818679130814969e-01 6.136051330117418649e-03
3.916966315154656058e+03 7.965459939599142114e-01 6.199678591548067608e-03
3.920883281469812118e+03 8.091680977133872688e-01 6.132295279583197152e-03
3.924804164751283224e+03 8.209183747860864244e-01 5.972413695412313005e-03
3.928728968916035683e+03 8.344928627242039765e-01 5.692177598727214162e-03
3.932657697884953450e+03 8.560703000552222219e-01 6.100046223650752893e-03
3.936590355582839493e+03 8.779084538735705268e-01 5.725859310925715540e-03
3.940526945938423523e+03 8.983938647060728533e-01 5.318655766815507183e-03
3.944467472884363360e+03 9.151327625662826204e-01 5.303389533390469313e-03
3.948411940357249023e+03 9.288643240067079310e-01 5.473175602908323355e-03
3.952360352297607733e+03 9.363736984281632036e-01 5.656924965338164246e-03
3.956312712649906643e+03 9.439647792936330939e-01 5.650906886796644608e-03
3.960269025362557841e+03 9.481682638271010655e-01 5.975843541045672454e-03
3.964229294387921527e+03 9.524361920422177441e-01 6.948585293007987843e-03
3.968193523682310570e+03 9.582692736936646583e-01 7.199295663067699358e-03
3.972161717205994591e+03 9.641596903440758926e-01 6.736501918612540843e-03
3.976133878923201792e+03 9.721369558431310898e-01 8.685326476715190050e-03
3.980110012802126221e+03 9.766132311404682742e-01 9.350633097435823854e-03
3.984090122814929600e+03 9.816543296615068970e-01 9.294719902422393654e-03
3.988074212937745870e+03 9.803840002405914689e-01 9.270521224291734808e-03
3.992062287150684824e+03 9.781338247327678870e-01 1.030135235109084016e-02
3.996054349437837118e+03 9.748680234799806943e-01 1.149474410902369403e-02
4.000050403787276082e+03 9.713096433041570332e-01 1.144168316426890167e-02
4.004050454191064546e+03 9.715992247306917129e-01 1.031436664233651920e-02
4.008054504645257111e+03 9.790607757112671505e-01 1.186563736772736424e-02
4.012062559149903791e+03 9.837283411720797455e-01 1.214482840072591413e-02
4.016074621709055009e+03 9.897027288090043395e-01 1.244816275741065896e-02
4.020090696330765240e+03 9.969835426442749116e-01 1.220513033030579293e-02
4.024110787027097558e+03 1.003153479047665941e+00 1.131692316376688157e-02
4.028134897814125907e+03 1.004829947507923871e+00 1.266800275708325312e-02
4.032163032711941469e+03 1.011643984648087802e+00 1.236628308772439767e-02
4.036195195744654484e+03 1.012847095065052327e+00 1.227082612599948372e-02
4.040231390940400615e+03 1.007021475899704033e+00 1.126235523120598138e-02
4.044271622331342314e+03 1.000178349072922579e+00 1.078460227013446938e-02
4.048315893953675186e+03 9.930472611688565543e-01 1.113245122628010036e-02
4.052364209847629809e+03 9.854894086284757826e-01 1.075005225278320882e-02
4.056416574057479011e+03 9.757688349747711820e-01 1.102822471334669041e-02
4.060472990631537868e+03 9.699601545062286334e-01 1.055548126474015191e-02
4.064533463622170530e+03 9.604614540707879788e-01 1.116545838210660987e-02
4.068597997085794304e+03 9.531456507187955340e-01 1.080136281789375978e-02
4.072666595082881486e+03 9.456808013483705144e-01 1.030483177406518389e-02
4.076739261677965715e+03 9.377385995511849925e-01 9.780281894845614318e-03
4.080816000939644709e+03 9.324284505899539388e-01 9.808845658367074463e-03
4.084896816940585722e+03 9.328071373428211688e-01 9.337186953108891213e-03
4.088981713757527814e+03 9.314081007698485903e-01 9.067534486990219342e-03
4.093070695471286854e+03 9.325418093133839292e-01 8.078259453315344424e-03
4.097163766166759160e+03 9.323868831048621741e-01 7.275299567067912421e-03
4.101260929932927866e+03 9.252344928705503735e-01 7.540841677233724345e-03
4.105362190862862008e+03 9.147433551004782171e-01 5.758020479678520841e-03
4.109467553053726078e+03 9.087449500527619017e-01 6.025144549701064688e-03
4.113577020606780934e+03 8.988937672100033582e-01 5.732274363437884698e-03
