# starting wavelength: 3436.450
# ending wavelength: 8917.430
# wav flux eflux
3.439693648295834464e+03 4.213593473323478111e-01 2.579846400481888152e-02
3.443133341944131189e+03 3.986153873338477704e-01 2.010599600456099839e-02
3.446576475286076402e+03 3.850079171460717986e-01 1.520616356308429097e-02
3.450023051761363604e+03 3.813601391178550459e-01 1.180726558287189913e-02
3.453473074813126004e+03 3.829090594954025484e-01 9.214586592482794034e-03
3.456926547887940615e+03 3.892989490619394033e-01 7.634865886386302258e-03
3.460383474435829612e+03 4.004244606422857622e-01 6.178800863264773818e-03
3.463843857910266706e+03 4.137602137827508519e-01 5.281436042624569269e-03
3.467307701768178049e+03 4.278399070087167688e-01 4.470383073334367741e-03
3.470775009469947236e+03 4.415138821906429145e-01 4.032380803825323483e-03
3.474245784479418489e+03 4.540772299127762701e-01 3.700850855847515573e-03
3.477720030263898934e+03 4.637631348933478614e-01 4.107551905565818597e-03
3.481197750294164052e+03 4.734896784036049522e-01 3.779471634320669734e-03
3.484678948044459503e+03 4.777173588535184034e-01 4.580631991028885630e-03
3.488163626992504760e+03 4.800758667926447454e-01 5.021135890242225779e-03
3.491651790619498570e+03 4.809723729909773371e-01 5.247715864958060923e-03
3.495143442410119405e+03 4.804677727764664619e-01 5.432630017535462590e-03
3.498638585852530468e+03 4.780666012637833084e-01 5.858898051566864898e-03
3.502137224438384237e+03 4.745741910699051158e-01 6.456580113553407954e-03
3.505639361662823831e+03 4.682358727056569192e-01 6.304786587193129781e-03
3.509145001024487556e+03 4.635787512064137861e-01 5.689790212557446596e-03
3.512654146025513455e+03 4.589955337121369716e-01 4.732684392679474897e-03
3.516166800171540217e+03 4.550002176355653627e-01 3.888249525718667256e-03
3.519682966971712631e+03 4.524378396765917909e-01 3.472271774396862905e-03
3.523202649938685681e+03 4.511019243783461752e-01 3.208723871717894614e-03
3.526725852588625457e+03 4.520426929892943368e-01 3.582825890811539536e-03
3.530252578441215064e+03 4.567333387138435286e-01 5.639261482783409184e-03
3.533782831019657806e+03 4.608023596922757315e-01 6.087190994239068814e-03
3.537316613850678550e+03 4.629675076791386346e-01 5.933302125402563874e-03
3.540853930464530094e+03 4.647159348088810704e-01 5.744233811380178821e-03
3.544394784394995895e+03 4.675326564969695120e-01 5.535741377140370421e-03
3.547939179179392340e+03 4.709178459704169706e-01 5.416382437483292615e-03
3.551487118358572843e+03 4.758135790730941284e-01 5.199502841894099517e-03
3.555038605476932389e+03 4.799497191359410886e-01 5.137327707703015674e-03
3.558593644082410719e+03 4.854131747151738119e-01 5.123187569781379597e-03
3.562152237726494150e+03 4.911014543236416618e-01 5.115587685745997745e-03
3.565714389964221937e+03 4.957608253168220291e-01 5.093500789485201109e-03
3.569280104354187188e+03 4.998818125144910973e-01 5.075199509804061669e-03
3.572849384458542772e+03 5.025940843707278338e-01 5.017233245054032037e-03
3.576422233843002232e+03 5.037084399799417467e-01 4.899388026499938709e-03
3.579998656076846601e+03 5.049868185493848749e-01 4.864549368468498031e-03
3.583578654732924406e+03 5.056388087951680932e-01 4.823345508035469312e-03
3.587162233387658489e+03 5.047141831107297971e-01 4.767596153927463470e-03
3.590749395621047370e+03 5.037535515926477858e-01 4.900876536353892046e-03
3.594340145016669794e+03 5.026435796972676950e-01 4.829573697991428743e-03
3.597934485161687462e+03 5.011368015232093853e-01 4.810369213650293740e-03
3.601532419646850485e+03 5.002625119464052528e-01 4.745835937908703291e-03
3.605133952066498296e+03 4.982244484621992098e-01 4.904845836231921941e-03
3.608739086018566013e+03 4.948578250760947150e-01 5.965161036372218679e-03
3.612347825104585809e+03 4.928878536457246273e-01 6.949501507012927591e-03
3.615960172929691907e+03 4.934100300277048934e-01 7.102908793045309768e-03
3.619576133102622407e+03 4.968286284783112183e-01 6.745892831278016769e-03
3.623195709235726554e+03 5.030865799093098278e-01 6.232393152514193249e-03
3.626818904944963379e+03 5.127082118414509893e-01 6.018265977443231461e-03
3.630445723849909427e+03 5.255322028192979111e-01 6.221265790845653849e-03
3.634076169573760581e+03 5.412812949717801247e-01 6.863715578288219661e-03
3.637710245743335690e+03 5.590970768229471810e-01 7.612961231730006398e-03
3.641347955989080219e+03 5.787030127378237632e-01 8.209106196960393176e-03
3.644989303945070333e+03 5.992902254694701947e-01 8.278590048459429779e-03
3.648634293249016537e+03 6.190025232825298040e-01 7.427135162056230054e-03
3.652282927542266862e+03 6.412034293840294108e-01 5.515725729563276079e-03
3.655935210469810499e+03 6.595528217370316693e-01 4.891004884695454059e-03
3.659591145680281443e+03 6.744768316186803281e-01 4.904483987126402600e-03
3.663250736825963031e+03 6.882062520447754794e-01 4.920521883401483658e-03
3.666913987562790226e+03 6.998154095021418275e-01 5.443601711859946159e-03
3.670580901550354156e+03 7.075460677292185752e-01 6.166504056288501373e-03
3.674251482451905758e+03 7.147009844117887534e-01 6.518366534503503354e-03
3.677925733934358959e+03 7.210496070820391346e-01 6.618393499678959860e-03
3.681603659668294313e+03 7.274094859787796352e-01 6.101172417106751240e-03
3.685285263327964003e+03 7.339372253661503587e-01 5.466890375954819650e-03
3.688970548591293209e+03 7.408969920767385364e-01 4.813411952601920167e-03
3.692659519139885560e+03 7.480514507238110733e-01 4.354820747554724418e-03
3.696352178659026777e+03 7.573489332912642924e-01 4.766891793135872614e-03
3.700048530837686940e+03 7.676877036444856861e-01 5.412858408937441627e-03
3.703748579368525952e+03 7.759228922859795485e-01 5.552730017874436819e-03
3.707452327947895355e+03 7.878415308340773748e-01 5.717791519233697550e-03
3.711159780275844696e+03 7.996677440027670780e-01 5.115940968711359636e-03
3.714870940056121526e+03 8.102764845861029075e-01 3.583506372156844595e-03
3.718585810996179134e+03 8.173750792729472803e-01 2.604104027369969886e-03
3.722304396807176545e+03 8.214095620070996917e-01 2.469817909022845297e-03
3.726026701203984885e+03 8.215373298146284586e-01 3.197150145304718076e-03
3.729752727905190113e+03 8.187232545181408749e-01 4.201964177098458167e-03
3.733482480633096657e+03 8.144471336842658005e-01 4.640861862123409586e-03
3.737215963113731050e+03 8.091408821572138033e-01 4.655560134101815149e-03
3.740953179076846027e+03 8.040852139853936764e-01 4.190652753459133198e-03
3.744694132255923705e+03 8.001538816440065816e-01 3.609651364682042122e-03
3.748438826388181042e+03 7.976580257977704536e-01 2.949229503466676162e-03
3.752187265214570289e+03 7.973549223143573395e-01 2.632169295890558758e-03
3.755939452479786269e+03 7.996201729310091766e-01 2.879543552880782422e-03
3.759695391932267285e+03 8.021799376257525704e-01 2.959249262145999086e-03
3.763455087324201031e+03 8.086267539801675897e-01 3.441627493532037341e-03
3.767218542411526414e+03 8.171248476959455109e-01 3.765800901918868286e-03
3.770985760953939007e+03 8.267287474842760497e-01 3.698680404053332656e-03
3.774756746714894234e+03 8.376609745422650688e-01 3.166767964405001624e-03
3.778531503461610555e+03 8.470476087268890009e-01 2.619674481490071993e-03
3.782310034965073100e+03 8.552859440935627333e-01 2.230156152976431935e-03
3.786092345000039586e+03 8.628077898759176634e-01 1.867155340705749320e-03
3.789878437345040766e+03 8.685741019857653455e-01 2.050058975485005274e-03
3.793668315782387253e+03 8.728046685125795401e-01 2.265950501412021794e-03
3.797461984098170888e+03 8.752591408383144644e-01 2.193391641975488658e-03
3.801259446082270188e+03 8.774298568124045961e-01 2.208624722095378461e-03
3.805060705528353537e+03 8.798679975039784829e-01 1.815756317219347979e-03
3.808865766233883278e+03 8.829991162090280454e-01 1.363706212265732888e-03
3.812674632000118436e+03 8.876126722724138052e-01 9.902559869601056542e-04
3.816487306632119726e+03 8.937552495079360559e-01 7.931817145664294723e-04
3.820303793938753188e+03 9.021115791244630477e-01 9.700385853848599417e-04
3.824124097732693372e+03 9.121201034368205951e-01 1.053411719498743111e-03
3.827948221830427428e+03 9.230377670912928156e-01 1.090519517653782550e-03
3.831776170052258749e+03 9.361685577607959940e-01 1.054506930636504684e-03
3.835607946222312421e+03 9.504089512046203225e-01 1.076178616091174071e-03
3.839443554168536139e+03 9.656260942581478268e-01 9.420777555559172421e-04
3.843282997722705659e+03 9.809842293164957594e-01 7.895664165885206334e-04
3.847126280720429804e+03 9.962287901135312707e-01 7.726089461749897436e-04
3.850973407001151372e+03 1.011803187718264718e+00 7.640267340388399173e-04
3.854824380408153957e+03 1.027060370575898274e+00 7.366230052463552686e-04
3.858679204788563311e+03 1.041458433729572475e+00 8.688616254860861716e-04
3.862537883993353262e+03 1.056008043306923438e+00 8.764031357982283391e-04
3.866400421877347981e+03 1.069839950593589606e+00 8.938642030691796008e-04
3.870266822299226533e+03 1.082520986919643047e+00 9.156819294486967216e-04
3.874137089121526969e+03 1.094558665083016136e+00 9.737163348671804388e-04
3.878011226210649966e+03 1.105444068529022772e+00 1.000199911326770785e-03
3.881889237436861549e+03 1.115541317188947668e+00 9.639986144646741110e-04
3.885771126674299921e+03 1.124932641267921474e+00 7.913847090983620707e-04
3.889656897800975457e+03 1.132300939069186496e+00 8.074827980540183687e-04
3.893546554698777527e+03 1.138009647064783136e+00 9.961839888202510349e-04
3.897440101253477678e+03 1.142839444697348439e+00 1.095710890088818145e-03
3.901337541354732366e+03 1.146286549221445794e+00 1.272158955518216429e-03
3.905238878896088409e+03 1.149570057082087926e+00 1.276010723436891937e-03
3.909144117774985716e+03 1.152893211279789609e+00 1.275139673875271343e-03
3.913053261892762293e+03 1.156349386651943867e+00 1.110128253361841646e-03
3.916966315154656058e+03 1.160418833089154944e+00 1.426249384550151581e-03
3.920883281469812118e+03 1.164574025413137148e+00 1.830773324616591586e-03
3.924804164751283224e+03 1.167681308604831436e+00 1.847125767911950199e-03
3.928728968916035683e+03 1.171172736545921911e+00 1.862809224399856979e-03
3.932657697884953450e+03 1.173561095469096704e+00 1.766210361657524937e-03
3.936590355582839493e+03 1.174245121545510973e+00 1.615622609784431651e-03
3.940526945938423523e+03 1.173774654845942900e+00 1.818781411339540771e-03
3.944467472884363360e+03 1.171360366927562069e+00 1.909752692170363147e-03
3.948411940357249023e+03 1.168655641111699728e+00 1.962566315544543409e-03
3.952360352297607733e+03 1.165506772375665134e+00 1.819482220877841278e-03
3.956312712649906643e+03 1.162726319892455340e+00 1.675381763011943650e-03
3.960269025362557841e+03 1.160043195709372865e+00 1.605292830094438633e-03
3.964229294387921527e+03 1.157579675762737237e+00 1.580478029816794611e-03
3.968193523682310570e+03 1.156130009968989736e+00 1.564974858258107605e-03
3.972161717205994591e+03 1.155450301176846883e+00 1.489614517236327552e-03
3.976133878923201792e+03 1.155753733277716577e+00 1.392771248598600586e-03
3.980110012802126221e+03 1.156863825857444183e+00 1.290399435867598324e-03
3.984090122814929600e+03 1.157500831625896787e+00 1.375130536238585669e-03
3.988074212937745870e+03 1.158522108408994944e+00 1.348217033342640142e-03
3.992062287150684824e+03 1.159586785808714993e+00 1.262101345723443211e-03
3.996054349437837118e+03 1.160809819126136677e+00 1.419502615955212186e-03
4.000050403787276082e+03 1.162441854558523113e+00 1.762495779478240624e-03
4.004050454191064546e+03 1.162778867760813739e+00 1.654775999965037462e-03
4.008054504645257111e+03 1.162438054801774978e+00 1.654779113600136345e-03
4.012062559149903791e+03 1.161985289828688428e+00 1.635282839390007426e-03
4.016074621709055009e+03 1.160485763675343840e+00 1.782464797820592674e-03
4.020090696330765240e+03 1.158263245033327227e+00 1.831840293997500767e-03
4.024110787027097558e+03 1.156762522101537849e+00 1.665004037483608541e-03
4.028134897814125907e+03 1.155695055855692432e+00 1.397634069568377780e-03
4.032163032711941469e+03 1.155655794340114673e+00 1.662820668635455346e-03
4.036195195744654484e+03 1.156367935632599320e+00 1.981566666005617986e-03
4.040231390940400615e+03 1.156402901835051233e+00 1.854580616589312581e-03
4.044271622331342314e+03 1.155758613380290400e+00 1.715968147194986892e-03
4.048315893953675186e+03 1.154497464444925292e+00 1.470300864137950555e-03
4.052364209847629809e+03 1.151675904188881772e+00 1.434722836633761222e-03
4.056416574057479011e+03 1.147545733259465184e+00 1.545375809187558196e-03
4.060472990631537868e+03 1.141678121971713145e+00 1.452369772016094945e-03
4.064533463622170530e+03 1.135148764459699811e+00 1.174062802069334149e-03
4.068597997085794304e+03 1.128507480187886713e+00 9.985645396775493562e-04
4.072666595082881486e+03 1.121862995766014226e+00 9.966237762353297863e-04
4.076739261677965715e+03 1.115659393897599383e+00 9.124458619457616283e-04
4.080816000939644709e+03 1.108754678970882646e+00 9.152750249856747783e-04
4.084896816940585722e+03 1.102262590173756163e+00 9.023352039113812558e-04
4.088981713757527814e+03 1.096331956221699544e+00 7.616945341436928609e-04
4.093070695471286854e+03 1.089894331820571605e+00 7.367547623173018945e-04
4.097163766166759160e+03 1.082923879835399061e+00 7.563921670350903402e-04
4.101260929932927866e+03 1.076180504081909906e+00 8.018252969571060826e-04
4.105362190862862008e+03 1.070288682239666223e+00 7.031897615298115471e-04
4.109467553053726078e+03 1.065514592944187822e+00 8.563030017955938289e-04
4.113577020606780934e+03 1.061106770540022115e+00 8.767873856096134334e-04
4.117690597627389252e+03 1.056350697991981002e+00 8.721104924103360813e-04
4.121808288225018259e+03 1.052313888850528345e+00 8.503381002395371188e-04
4.125930096513244280e+03 1.048658044824561486e+00 8.829394312193874659e-04
4.130056026609759101e+03 1.045228829712473662e+00 9.412661462955727257e-04
4.134186082636369974e+03 1.042502093393898654e+00 9.141164512518967170e-04
4.138320268719007800e+03 1.040483362229981834e+00 1.077820239526917781e-03
4.142458588987728035e+03 1.038537176222368297e+00 1.132362936349545247e-03
4.146601047576717065e+03 1.036734071377824362e+00 1.115369028789272784e-03
4.150747648624294925e+03 1.034861574557831565e+00 1.098996644605553267e-03
4.154898396272920763e+03 1.032652570504857259e+00 1.095332340585116609e-03
4.159053294669195566e+03 1.030177138116300961e+00 1.151009533976662079e-03
4.163212347963865795e+03 1.028219312356583703e+00 1.205781746545596129e-03
4.167375560311830668e+03 1.026820909809760263e+00 1.256160525299098146e-03
4.171542935872143971e+03 1.025385715986015578e+00 1.405334799719044295e-03
4.175714478808017702e+03 1.024754595425894754e+00 1.211650823783686978e-03
4.179890193286827525e+03 1.025249175729943341e+00 8.933951527264329074e-04
4.184070083480115500e+03 1.027265262430807846e+00 1.124506008995230719e-03
4.188254153563597356e+03 1.030380800710076983e+00 1.318409709147967982e-03
4.192442407717161586e+03 1.033725600287328739e+00 1.192128868978211634e-03
4.196634850124880359e+03 1.036598120892392449e+00 1.028171948210993697e-03
4.200831484975006788e+03 1.039479164057069527e+00 7.919641095319494102e-04
4.205032316459983122e+03 1.040672393141564678e+00 8.970450869007918614e-04
4.209237348776444378e+03 1.041099588432236267e+00 8.852296925464627408e-04
4.213446586125221984e+03 1.040581450544858289e+00 9.358608484650374334e-04
4.217660032711349231e+03 1.039037844422449286e+00 9.754400908280814369e-04
4.221877692744061278e+03 1.035675613053661070e+00 9.726874089718002929e-04
4.226099570436806971e+03 1.031145205482845828e+00 1.084072138692744949e-03
4.230325670007245208e+03 1.026386981094065787e+00 1.111329237057191244e-03
4.234555995677254032e+03 1.021017765915014808e+00 1.272956279627655667e-03
4.238790551672932452e+03 1.015929454550093869e+00 1.428825060734759556e-03
4.243029342224606808e+03 1.011951478800877657e+00 1.417802626883378665e-03
4.247272371566832589e+03 1.008936884238296861e+00 1.365821990138353387e-03
4.251519643938400804e+03 1.006669230012333660e+00 1.098722932407693049e-03
4.255771163582340705e+03 1.006317186015176945e+00 1.143453605546607870e-03
4.260026934745924336e+03 1.007710614828483342e+00 1.406700012972983893e-03
4.264286961680671993e+03 1.010192283244713662e+00 1.455404246258340311e-03
4.268551248642354039e+03 1.013394497486930668e+00 1.239609612626443738e-03
4.272819799890998183e+03 1.016129360985558172e+00 9.588529480251507331e-04
4.277092619690890388e+03 1.018093786726698813e+00 9.512291707847205088e-04
4.281369712310583054e+03 1.019999493000246504e+00 8.587992890724445178e-04
4.285651082022895025e+03 1.020236315434793539e+00 7.377652643463767463e-04
4.289936733104918858e+03 1.020509802847560765e+00 7.043622285989273746e-04
4.294226669838025373e+03 1.020388681826024158e+00 6.852819787243741561e-04
4.298520896507864563e+03 1.020128150746722362e+00 7.032643175610268395e-04
4.302819417404373780e+03 1.019722674341623003e+00 6.852096654492925579e-04
4.307122236821779552e+03 1.019666599331714663e+00 6.622941188279420728e-04
4.311429359058603040e+03 1.020740637027848230e+00 6.566097208284199039e-04
4.315740788417662770e+03 1.022242487233907315e+00 6.550946245043776268e-04
4.320056529206081905e+03 1.024844947084856850e+00 6.234550848684801633e-04
4.324376585735290064e+03 1.028907571569219526e+00 6.314731038990557170e-04
4.328700962321026054e+03 1.033693638253638580e+00 6.260954090924923188e-04
4.333029663283348782e+03 1.039458992345297039e+00 5.249782184140751838e-04
4.337362692946633615e+03 1.046750557553332683e+00 5.451504631570911266e-04
4.341700055639581478e+03 1.055271819388277077e+00 6.295829289670466832e-04
4.346041755695222491e+03 1.064509907115750220e+00 6.879897856761776160e-04
4.350387797450919606e+03 1.074099607037396265e+00 5.525388232113954143e-04
4.354738185248371337e+03 1.083138545754044113e+00 5.416017090023916890e-04
4.359092923433621763e+03 1.091963420102392224e+00 5.461430544465238060e-04
4.363452016357056891e+03 1.100784507430373704e+00 5.262539662870812382e-04
4.367815468373414660e+03 1.108496655643252504e+00 5.250361877918970424e-04
4.372183283841789489e+03 1.115838425243647736e+00 4.691981385181030100e-04
4.376555467125633186e+03 1.122286286360526741e+00 5.196481637410855191e-04
4.380932022592760404e+03 1.128132438382056124e+00 5.722588533435403295e-04
4.385312954615354101e+03 1.133600780732295643e+00 5.945398912275342033e-04
4.389698267569970994e+03 1.138976868332783887e+00 5.779434994517718572e-04
4.394087965837542470e+03 1.144770772258925096e+00 5.597318866540665176e-04
4.398482053803381859e+03 1.150954578798223382e+00 5.318855678748842224e-04
4.402880535857186260e+03 1.158398738244024173e+00 5.043018361785384877e-04
4.407283416393044718e+03 1.167052942538326921e+00 5.138470632859229448e-04
4.411690699809440048e+03 1.176442183644750727e+00 4.844289194714683825e-04
4.416102390509250654e+03 1.186971852562683338e+00 5.421742360946072738e-04
4.420518492899761441e+03 1.198553261653596103e+00 6.710887104321694961e-04
4.424939011392662906e+03 1.210913926684693553e+00 5.881491875872001639e-04
4.429363950404056595e+03 1.223722405224939358e+00 4.481154162435372116e-04
4.433793314354462382e+03 1.236820295181311202e+00 3.995447807063125809e-04
4.438227107668818462e+03 1.249847047856107229e+00 3.885051353906399780e-04
4.442665334776488635e+03 1.263129126384431977e+00 4.627896993261494153e-04
4.447108000111265937e+03 1.276191476496491894e+00 4.402003452890300818e-04
4.451555108111379013e+03 1.288826757175602244e+00 4.614543822797871750e-04
4.456006663219492111e+03 1.301370951306853874e+00 5.051208028872165249e-04
4.460462669882713271e+03 1.313753179994932463e+00 4.890920782600395068e-04
4.464923132552597053e+03 1.326203781390463909e+00 4.814624647106684305e-04
4.469388055685150903e+03 1.338541753050634053e+00 4.819355994024359020e-04
4.473857443740837880e+03 1.350684680145966432e+00 5.011094164744704866e-04
4.478331301184580298e+03 1.362695941154174362e+00 5.080757580770194288e-04
