# starting wavelength: 3453.670
# ending wavelength: 9845.000
# wav flux eflux
3.456926547887940615e+03 1.914574590262000831e+00 1.021631883856041478e-01
3.460383474435829612e+03 1.960226215686800444e+00 7.542582598381185333e-02
3.463843857910266706e+03 2.003871614603681905e+00 5.779237419340400167e-02
3.467307701768178049e+03 2.040395324362589413e+00 4.481758365645878428e-02
3.470775009469947236e+03 2.068927789309233933e+00 3.536478081935180706e-02
3.474245784479418489e+03 2.090480483883270235e+00 2.916855184269816909e-02
3.477720030263898934e+03 2.103947618229124128e+00 2.527884151032194771e-02
3.481197750294164052e+03 2.109728373846793126e+00 2.193593523510017559e-02
3.484678948044459503e+03 2.108568814647572509e+00 2.059784979264183552e-02
3.488163626992504760e+03 2.103835192527351072e+00 1.875214302822072673e-02
3.491651790619498570e+03 2.096854818310793789e+00 1.760941450606217512e-02
3.495143442410119405e+03 2.097379746776841802e+00 1.606064950132930422e-02
3.498638585852530468e+03 2.113002559914463951e+00 1.987969265696769294e-02
3.502137224438384237e+03 2.137799226508334538e+00 2.536088654710409382e-02
3.505639361662823831e+03 2.145155483251038664e+00 2.426955141463679744e-02
3.509145001024487556e+03 2.168917857796583526e+00 2.713465759082302545e-02
3.512654146025513455e+03 2.181084381098153280e+00 2.672152594576693643e-02
3.516166800171540217e+03 2.190039121882841222e+00 2.638773206011543401e-02
3.519682966971712631e+03 2.196616960344887293e+00 2.650426283182264267e-02
3.523202649938685681e+03 2.199062381776754282e+00 2.651171856650455516e-02
3.526725852588625457e+03 2.201991548769576479e+00 2.516088164235427346e-02
3.530252578441215064e+03 2.200422334571665139e+00 2.442856275028271879e-02
3.533782831019657806e+03 2.196558432892171897e+00 2.420234242272984587e-02
3.537316613850678550e+03 2.176928878429410741e+00 2.493148519499593929e-02
3.540853930464530094e+03 2.155208464035679672e+00 2.544412109632695693e-02
3.544394784394995895e+03 2.128503200742458024e+00 2.614695715939777815e-02
3.547939179179392340e+03 2.100092609267776300e+00 2.611188411761535336e-02
3.551487118358572843e+03 2.067448666576869432e+00 2.659381870088156283e-02
3.555038605476932389e+03 2.028059717408225993e+00 2.654484315663650090e-02
3.558593644082410719e+03 1.985883600523512982e+00 2.688851689949299864e-02
3.562152237726494150e+03 1.945021884930189238e+00 2.611826836901819451e-02
3.565714389964221937e+03 1.897832336806666298e+00 2.416560329580059660e-02
3.569280104354187188e+03 1.851322706206938618e+00 2.343768667593705210e-02
3.572849384458542772e+03 1.806641405208623707e+00 2.284939651894894730e-02
3.576422233843002232e+03 1.768874089037480779e+00 2.273397803855290930e-02
3.579998656076846601e+03 1.732139565817436999e+00 2.264675306864628868e-02
3.583578654732924406e+03 1.705087638214735080e+00 2.368254958134782817e-02
3.587162233387658489e+03 1.680986898859382794e+00 2.375280876939982536e-02
3.590749395621047370e+03 1.655905966861046075e+00 2.343624486150405403e-02
3.594340145016669794e+03 1.635634556567497011e+00 2.245398176497507420e-02
3.597934485161687462e+03 1.627053141698328709e+00 1.978351391031632836e-02
3.601532419646850485e+03 1.614764069123923562e+00 1.880854267136107885e-02
3.605133952066498296e+03 1.602418789254596021e+00 1.869474575460369770e-02
3.608739086018566013e+03 1.585438868277376567e+00 1.878433452273637477e-02
3.612347825104585809e+03 1.555361176671650858e+00 1.879833778805240982e-02
3.615960172929691907e+03 1.519405040442122878e+00 1.911328826593667457e-02
3.619576133102622407e+03 1.486421436883603064e+00 1.738528321575448510e-02
3.623195709235726554e+03 1.465600193403722828e+00 1.725569092527891660e-02
3.626818904944963379e+03 1.450919833339237242e+00 1.686346791236059336e-02
3.630445723849909427e+03 1.438064878334227581e+00 1.684152658411232698e-02
3.634076169573760581e+03 1.427194643140165642e+00 1.727405841824432992e-02
3.637710245743335690e+03 1.415963786564065741e+00 1.619805126646343615e-02
3.641347955989080219e+03 1.410244273726926734e+00 1.624861391679978048e-02
3.644989303945070333e+03 1.410695365698106718e+00 1.630775763469240885e-02
3.648634293249016537e+03 1.416700705289312801e+00 1.635383259640594417e-02
3.652282927542266862e+03 1.427604211214380081e+00 1.638880742399116339e-02
3.655935210469810499e+03 1.440934424300926109e+00 1.661647935761914607e-02
3.659591145680281443e+03 1.452000520718510712e+00 1.577479586319789628e-02
3.663250736825963031e+03 1.475085591226186432e+00 1.591181384662570392e-02
3.666913987562790226e+03 1.506952457633124798e+00 1.696699021587841708e-02
3.670580901550354156e+03 1.539422160957740759e+00 1.639221726588295167e-02
3.674251482451905758e+03 1.569313110625699226e+00 1.672579275246795921e-02
3.677925733934358959e+03 1.601097516321343450e+00 1.689899392861030775e-02
3.681603659668294313e+03 1.629705189112869324e+00 1.703415801975378258e-02
3.685285263327964003e+03 1.661512700652064689e+00 1.673666217184068689e-02
3.688970548591293209e+03 1.682870325867338757e+00 1.703997733869467776e-02
3.692659519139885560e+03 1.694906230845996786e+00 1.693682607513979921e-02
3.696352178659026777e+03 1.704499000790760332e+00 1.561171966605196665e-02
3.700048530837686940e+03 1.707883843494212739e+00 1.587747434977558603e-02
3.703748579368525952e+03 1.706794176928453588e+00 1.575238019002161288e-02
3.707452327947895355e+03 1.692490779621870001e+00 1.588079956809771223e-02
3.711159780275844696e+03 1.663994985427370565e+00 1.553816843332791499e-02
3.714870940056121526e+03 1.629007551052190195e+00 1.543757190401926632e-02
3.718585810996179134e+03 1.589863711690805648e+00 1.563866359838480408e-02
3.722304396807176545e+03 1.553520159257323563e+00 1.587255734918503400e-02
3.726026701203984885e+03 1.503065945359147948e+00 1.821996493696137129e-02
3.729752727905190113e+03 1.445822647056413057e+00 1.700892433550535779e-02
3.733482480633096657e+03 1.392937915544911531e+00 1.450089951696267865e-02
3.737215963113731050e+03 1.347993840995642234e+00 1.406098701348184113e-02
3.740953179076846027e+03 1.308670410009356688e+00 1.444029778465818169e-02
3.744694132255923705e+03 1.274869616706213238e+00 1.334852305964863602e-02
3.748438826388181042e+03 1.252498087102817959e+00 1.267030398030352840e-02
3.752187265214570289e+03 1.243375419442385388e+00 1.288927742958422169e-02
3.755939452479786269e+03 1.246139786228108726e+00 1.162085428980679652e-02
3.759695391932267285e+03 1.268953130655465555e+00 1.227871498332570172e-02
3.763455087324201031e+03 1.302796947824458540e+00 1.257586216165835179e-02
3.767218542411526414e+03 1.347308561605137234e+00 1.310608189278803827e-02
3.770985760953939007e+03 1.400206936756962284e+00 1.411467696953527980e-02
3.774756746714894234e+03 1.467825306161008037e+00 1.656167385668061778e-02
3.778531503461610555e+03 1.541718435036773416e+00 1.833373224239205970e-02
3.782310034965073100e+03 1.619581857499282851e+00 1.903400382282052425e-02
3.786092345000039586e+03 1.692689769429086999e+00 1.722641468980234264e-02
3.789878437345040766e+03 1.757872888748769791e+00 1.649298392994349993e-02
3.793668315782387253e+03 1.811865764640447907e+00 1.512020917588928481e-02
3.797461984098170888e+03 1.850107055320745264e+00 1.195879695328200092e-02
3.801259446082270188e+03 1.866179676785000741e+00 1.204678669813528426e-02
3.805060705528353537e+03 1.860677894711297409e+00 1.302962091203289062e-02
3.808865766233883278e+03 1.841018940862496622e+00 1.380353670355761314e-02
3.812674632000118436e+03 1.812874916236878908e+00 1.399238326973096212e-02
3.816487306632119726e+03 1.769139720020879825e+00 1.417143450747438901e-02
3.820303793938753188e+03 1.708753918984477371e+00 1.376866627908419037e-02
3.824124097732693372e+03 1.637169499461814226e+00 1.435841224592150286e-02
3.827948221830427428e+03 1.563495601739832264e+00 1.360985292370676426e-02
3.831776170052258749e+03 1.479176828537856370e+00 1.264661230788790246e-02
3.835607946222312421e+03 1.395116455462204863e+00 1.144819835473775797e-02
3.839443554168536139e+03 1.318799543329628010e+00 1.420734665171078173e-02
3.843282997722705659e+03 1.258111924852883812e+00 1.621326830747614467e-02
3.847126280720429804e+03 1.215440580955126748e+00 1.580564261119093983e-02
3.850973407001151372e+03 1.185993129002605340e+00 1.476487568953160391e-02
3.854824380408153957e+03 1.181242002196702057e+00 1.446020867310084286e-02
3.858679204788563311e+03 1.197360039431100365e+00 1.649919259734545021e-02
3.862537883993353262e+03 1.238056713384871443e+00 2.354023536935950442e-02
3.866400421877347981e+03 1.291063978877996288e+00 2.740894440897504586e-02
3.870266822299226533e+03 1.342799304741152833e+00 2.762660696102781782e-02
3.874137089121526969e+03 1.397073347051364323e+00 2.646774219251722682e-02
3.878011226210649966e+03 1.455554226373377169e+00 2.449610650968977663e-02
3.881889237436861549e+03 1.513170399759554918e+00 2.254981804731881825e-02
3.885771126674299921e+03 1.562748424682300463e+00 2.091711277301222180e-02
3.889656897800975457e+03 1.602989816961988279e+00 2.074824181809312162e-02
3.893546554698777527e+03 1.638043309856731078e+00 2.008243206561287700e-02
3.897440101253477678e+03 1.659160936836254097e+00 1.981755521476480375e-02
3.901337541354732366e+03 1.657861571804513989e+00 1.992127622039373269e-02
3.905238878896088409e+03 1.634439357278201443e+00 2.207074275795526536e-02
3.909144117774985716e+03 1.603337772571348907e+00 2.111945321305996534e-02
3.913053261892762293e+03 1.559533758838422157e+00 2.003853359896393821e-02
3.916966315154656058e+03 1.532940587399405308e+00 2.025740734502006271e-02
3.920883281469812118e+03 1.517686656840320669e+00 2.010648396927841239e-02
3.924804164751283224e+03 1.511073804459291514e+00 2.051566088160658788e-02
3.928728968916035683e+03 1.511041122161638883e+00 2.068299546762602734e-02
3.932657697884953450e+03 1.517391286293586772e+00 2.156601345329735644e-02
3.936590355582839493e+03 1.527427010813191544e+00 2.426906815464035388e-02
3.940526945938423523e+03 1.540040937642936258e+00 2.723896946199960353e-02
3.944467472884363360e+03 1.543718727971627125e+00 2.679773627635112510e-02
3.948411940357249023e+03 1.535670361858464172e+00 2.675801296896858708e-02
3.952360352297607733e+03 1.514449561426260971e+00 3.142151374129317082e-02
3.956312712649906643e+03 1.499153147720475587e+00 3.534132065511606802e-02
3.960269025362557841e+03 1.507989629323709169e+00 3.661269517838604270e-02
3.964229294387921527e+03 1.503723115134284916e+00 3.912280765326541648e-02
3.968193523682310570e+03 1.502490722012779445e+00 3.700525426800160833e-02
3.972161717205994591e+03 1.510941961273008394e+00 3.477485744158003572e-02
3.976133878923201792e+03 1.514698130647625263e+00 3.400270426615174119e-02
3.980110012802126221e+03 1.536676802675287279e+00 3.580450273170039666e-02
3.984090122814929600e+03 1.568456289044591445e+00 3.621813058035809607e-02
3.988074212937745870e+03 1.613428084921979311e+00 3.524924030323766527e-02
3.992062287150684824e+03 1.646622391876761071e+00 3.163465526453330956e-02
3.996054349437837118e+03 1.659535557336316192e+00 2.880232650321701629e-02
4.000050403787276082e+03 1.654859704126417030e+00 2.365784987672134299e-02
4.004050454191064546e+03 1.605451367797428253e+00 2.658312508125686840e-02
4.008054504645257111e+03 1.529918279570092743e+00 3.131525769531143949e-02
4.012062559149903791e+03 1.437167506695286923e+00 3.358861042378326334e-02
4.016074621709055009e+03 1.324420952832809917e+00 3.312087212834850108e-02
4.020090696330765240e+03 1.206557977671128601e+00 2.677148242521873098e-02
4.024110787027097558e+03 1.106044240798469636e+00 2.078255707785918449e-02
4.028134897814125907e+03 1.029047407386804558e+00 1.887751046593845114e-02
4.032163032711941469e+03 9.838669400295623202e-01 1.898603332507534103e-02
4.036195195744654484e+03 9.611490339194440624e-01 1.906580019084724159e-02
4.040231390940400615e+03 9.581587248625269559e-01 1.819190572608118603e-02
4.044271622331342314e+03 9.954203786636151019e-01 2.048999288249019751e-02
4.048315893953675186e+03 1.061333572060556119e+00 2.373559505383461554e-02
4.052364209847629809e+03 1.151926181444949737e+00 2.374671506672722601e-02
4.056416574057479011e+03 1.252861971848162392e+00 1.740213068382194528e-02
4.060472990631537868e+03 1.352929235690316201e+00 1.656314380226424007e-02
4.064533463622170530e+03 1.435661668402385738e+00 1.550752844890649317e-02
4.068597997085794304e+03 1.497139105928716463e+00 1.611083818254114078e-02
4.072666595082881486e+03 1.552137579595834982e+00 1.579204028546536340e-02
4.076739261677965715e+03 1.586497401619450409e+00 1.598793540583403130e-02
4.080816000939644709e+03 1.605590260254705859e+00 1.704893335649821512e-02
4.084896816940585722e+03 1.611730434303993320e+00 1.921445638090929844e-02
4.088981713757527814e+03 1.604769056986633080e+00 1.640492972341442424e-02
4.093070695471286854e+03 1.590649874471368630e+00 1.452486242164864952e-02
4.097163766166759160e+03 1.580712738451610866e+00 1.370878545406948971e-02
4.101260929932927866e+03 1.567997237498137020e+00 1.272078847616775303e-02
4.105362190862862008e+03 1.575009943264541246e+00 1.330993679297233674e-02
4.109467553053726078e+03 1.599829295691443498e+00 1.578591742604848122e-02
4.113577020606780934e+03 1.623226209898400052e+00 1.434573098091827641e-02
4.117690597627389252e+03 1.639770162810659349e+00 1.425334911268377400e-02
4.121808288225018259e+03 1.653031281904969507e+00 1.420396318868685261e-02
4.125930096513244280e+03 1.672589996814852098e+00 1.328301195771231479e-02
4.130056026609759101e+03 1.686035932796423831e+00 1.310353996298042369e-02
4.134186082636369974e+03 1.691179949469248545e+00 1.296983284606386191e-02
4.138320268719007800e+03 1.686899014546632269e+00 1.314049276412343308e-02
4.142458588987728035e+03 1.676503270550572688e+00 1.230363828204509950e-02
4.146601047576717065e+03 1.648393487474081320e+00 1.204425068372737967e-02
4.150747648624294925e+03 1.608805455998197464e+00 1.217040176246113325e-02
4.154898396272920763e+03 1.574375215195062294e+00 1.229336178346785921e-02
4.159053294669195566e+03 1.534974784287715499e+00 1.247565966169520389e-02
4.163212347963865795e+03 1.489987076601941185e+00 1.246426908196369976e-02
4.167375560311830668e+03 1.439568560711182110e+00 1.254300165405492634e-02
4.171542935872143971e+03 1.387247232310961920e+00 1.447522104639942415e-02
4.175714478808017702e+03 1.335936020890158060e+00 1.576317790621451290e-02
4.179890193286827525e+03 1.284579568350616929e+00 1.271690255008275407e-02
4.184070083480115500e+03 1.264116192037954445e+00 1.356928401156294768e-02
4.188254153563597356e+03 1.257154795982625917e+00 1.388596215950050304e-02
4.192442407717161586e+03 1.257013711789126020e+00 1.526670889930376029e-02
4.196634850124880359e+03 1.263440547667082692e+00 1.713348363313257211e-02
4.200831484975006788e+03 1.267858777572767659e+00 1.728381195941763870e-02
4.205032316459983122e+03 1.273881975286467627e+00 1.655418423779321871e-02
4.209237348776444378e+03 1.274598324816277328e+00 1.557120991089096761e-02
4.213446586125221984e+03 1.273769123240528156e+00 1.549283723315693535e-02
4.217660032711349231e+03 1.261436561887204100e+00 1.385048309466753620e-02
4.221877692744061278e+03 1.229423451896219044e+00 1.701745197530648776e-02
4.226099570436806971e+03 1.190894180251596879e+00 1.662499078156735866e-02
4.230325670007245208e+03 1.138758181597087082e+00 1.560625816881725317e-02
4.234555995677254032e+03 1.106568609425130356e+00 1.573356847051656654e-02
4.238790551672932452e+03 1.078883974047886385e+00 1.602410795113386535e-02
4.243029342224606808e+03 1.058844525333978215e+00 1.584067659158228461e-02
4.247272371566832589e+03 1.045240459698542290e+00 1.762261245125881434e-02
4.251519643938400804e+03 1.046023012372818917e+00 1.765039173803492970e-02
4.255771163582340705e+03 1.058367300273326483e+00 1.753269591215496359e-02
4.260026934745924336e+03 1.081215713191699734e+00 1.597533906116211863e-02
4.264286961680671993e+03 1.130215151772605342e+00 1.696084679080590851e-02
4.268551248642354039e+03 1.185408877812087258e+00 1.826667388912093376e-02
4.272819799890998183e+03 1.247086519650738801e+00 1.854337587575452528e-02
4.277092619690890388e+03 1.307550105084932301e+00 1.773662208934911194e-02
4.281369712310583054e+03 1.361012028307385435e+00 1.915877705741954318e-02
4.285651082022895025e+03 1.400744564317759844e+00 1.990890662891233245e-02
4.289936733104918858e+03 1.417508424497795128e+00 1.933577092183003804e-02
4.294226669838025373e+03 1.421426045211580780e+00 1.491567508062561186e-02
4.298520896507864563e+03 1.390621903053474995e+00 1.771881729295192096e-02
4.302819417404373780e+03 1.332669723717203381e+00 2.016930646654953654e-02
4.307122236821779552e+03 1.265207245789536472e+00 2.115634788795433749e-02
4.311429359058603040e+03 1.182588880724714908e+00 1.514711715451867551e-02
4.315740788417662770e+03 1.130824047645926367e+00 1.794610894756269726e-02
4.320056529206081905e+03 1.074430020136955433e+00 1.768256620060372833e-02
4.324376585735290064e+03 1.023474948411358554e+00 1.836565691907065048e-02
4.328700962321026054e+03 9.875671080416632552e-01 1.752160057796807099e-02
4.333029663283348782e+03 9.780790920916730968e-01 1.811273196116746503e-02
4.337362692946633615e+03 9.771235416578075705e-01 1.811381772687633077e-02
4.341700055639581478e+03 9.900875514437571523e-01 1.896968294952622314e-02
4.346041755695222491e+03 1.013051406951978706e+00 1.797770725042384735e-02
4.350387797450919606e+03 1.032959758060361333e+00 1.722396640407791377e-02
4.354738185248371337e+03 1.043337901639260323e+00 1.714875889695198496e-02
4.359092923433621763e+03 1.045887762536111820e+00 1.698837268206385837e-02
4.363452016357056891e+03 1.049722968744254414e+00 1.906502237334042546e-02
4.367815468373414660e+03 1.038311559892200364e+00 1.905228043726847967e-02
4.372183283841789489e+03 1.008607053864725156e+00 1.833697689285848989e-02
4.376555467125633186e+03 9.632676019385886246e-01 1.919282177100470332e-02
4.380932022592760404e+03 8.997554835772433313e-01 2.188094287602580790e-02
4.385312954615354101e+03 8.296846565042225174e-01 2.503319795907935422e-02
4.389698267569970994e+03 7.654338229798007820e-01 2.388513969530546566e-02
4.394087965837542470e+03 7.198876408125105542e-01 1.924079696347872834e-02
4.398482053803381859e+03 7.106898596391012513e-01 2.027782731080074105e-02
4.402880535857186260e+03 7.033446626992559958e-01 2.001376101131176546e-02
4.407283416393044718e+03 7.082257137216277920e-01 1.946101362977361443e-02
4.411690699809440048e+03 7.387664639766321484e-01 2.200756810511148368e-02
4.416102390509250654e+03 7.859650646699670729e-01 2.464979239919697085e-02
4.420518492899761441e+03 8.252742785928708358e-01 2.303967039106825931e-02
4.424939011392662906e+03 8.604701866257394860e-01 1.971024835672089554e-02
4.429363950404056595e+03 8.854359739438517618e-01 2.204427530914626968e-02
4.433793314354462382e+03 8.999281669840403231e-01 2.584679377646947190e-02
4.438227107668818462e+03 9.104574195667300973e-01 2.280973769111098448e-02
4.442665334776488635e+03 9.285231883523888952e-01 1.952927644255226386e-02
4.447108000111265937e+03 9.593736306378478629e-01 2.429382604136296267e-02
4.451555108111379013e+03 9.860705695372382618e-01 2.630667402321171591e-02
4.456006663219492111e+03 1.004768069135381969e+00 2.508500932034151906e-02
4.460462669882713271e+03 1.015000669179524584e+00 2.607282913381494746e-02
4.464923132552597053e+03 1.025781548999360471e+00 2.714655896866294965e-02
4.469388055685150903e+03 1.033404879075902283e+00 2.723589429471523840e-02
4.473857443740837880e+03 1.042663670555157740e+00 2.675113961360107984e-02
4.478331301184580298e+03 1.058381876448284187e+00 2.680093983486735512e-02
4.482809632485766087e+03 1.073179890925910707e+00 2.704075382732096938e-02
4.487292442118253348e+03 1.078326882260995712e+00 2.669736656111419693e-02
4.491779734560373072e+03 1.078104584671776278e+00 2.645693546328420701e-02
4.496271514294934605e+03 1.085266192930191442e+00 2.600592110557268383e-02
4.500767785809231100e+03 1.094247721407455298e+00 2.204455133123268268e-02
