# starting wavelength: 3433.020
# ending wavelength: 9993.720
# wav flux eflux
3.436257390904928343e+03 8.317940693838162813e-01 1.452973007148299425e-02
3.439693648295834464e+03 8.435998376227208384e-01 1.038723158497073355e-02
3.443133341944131189e+03 8.522479975267354124e-01 8.140871886759751611e-03
3.446576475286076402e+03 8.591722328785689200e-01 6.395689058188281859e-03
3.450023051761363604e+03 8.657533921040480029e-01 4.931279085092137547e-03
3.453473074813126004e+03 8.715707896376103658e-01 3.962456957990204143e-03
3.456926547887940615e+03 8.772994881696314362e-01 3.193466117809515455e-03
3.460383474435829612e+03 8.828201537895746798e-01 2.609631202598249218e-03
3.463843857910266706e+03 8.880470666420577919e-01 2.170554505695833185e-03
3.467307701768178049e+03 8.929552622115678462e-01 1.862841143550902781e-03
3.470775009469947236e+03 8.975362609573646067e-01 1.620522132042035617e-03
3.474245784479418489e+03 9.017626747714406754e-01 1.447349483587419359e-03
3.477720030263898934e+03 9.054260821000751358e-01 1.300911509873484443e-03
3.481197750294164052e+03 9.082708243296205852e-01 1.214017342154852372e-03
3.484678948044459503e+03 9.107654446768214118e-01 1.142777332366110314e-03
3.488163626992504760e+03 9.124870304890166928e-01 1.095752971306985981e-03
3.491651790619498570e+03 9.138895158170212696e-01 1.045512369793744414e-03
3.495143442410119405e+03 9.149778044386589482e-01 1.014570466318399054e-03
3.498638585852530468e+03 9.153445694402213562e-01 9.841161851762607674e-04
3.502137224438384237e+03 9.154261071051015275e-01 8.985275991957251398e-04
3.505639361662823831e+03 9.150437963850722722e-01 8.751345572786965645e-04
3.509145001024487556e+03 9.142478737394198474e-01 8.702303715962228080e-04
3.512654146025513455e+03 9.127994643632417748e-01 9.151062673777383884e-04
3.516166800171540217e+03 9.106858266133246449e-01 8.367318570074776338e-04
3.519682966971712631e+03 9.086769439079743771e-01 7.423779886820437972e-04
3.523202649938685681e+03 9.066831539483968250e-01 7.506027045711638436e-04
3.526725852588625457e+03 9.045233539458179539e-01 7.713660442567464885e-04
3.530252578441215064e+03 9.021502733552508868e-01 7.688687490433425680e-04
3.533782831019657806e+03 8.997017867972628702e-01 7.702578635723633530e-04
3.537316613850678550e+03 8.972659843658620238e-01 8.152422011982183355e-04
3.540853930464530094e+03 8.947373211259327386e-01 9.885254133832862330e-04
3.544394784394995895e+03 8.923080946665983282e-01 1.115168355351579040e-03
3.547939179179392340e+03 8.900991754654815624e-01 1.136017623547057320e-03
3.551487118358572843e+03 8.888917689095013897e-01 1.117915205168540285e-03
3.555038605476932389e+03 8.882707408535110982e-01 1.102997050348231969e-03
3.558593644082410719e+03 8.883799902567469653e-01 1.098125093710489598e-03
3.562152237726494150e+03 8.890892954416346194e-01 1.092947609984364380e-03
3.565714389964221937e+03 8.900571797711269717e-01 1.012266762346064912e-03
3.569280104354187188e+03 8.917553212880572344e-01 9.697284665859974822e-04
3.572849384458542772e+03 8.944954455783834524e-01 9.885314595252257721e-04
3.576422233843002232e+03 8.978785364088788246e-01 1.037437661974302625e-03
3.579998656076846601e+03 9.018852291702191826e-01 1.106714675648724430e-03
3.583578654732924406e+03 9.065199132494893286e-01 1.158777551077699690e-03
3.587162233387658489e+03 9.116862694583895976e-01 1.197122463445941462e-03
3.590749395621047370e+03 9.172857374415197551e-01 1.194066248000089136e-03
3.594340145016669794e+03 9.233569274999690046e-01 1.138694827636962427e-03
3.597934485161687462e+03 9.295761751165976250e-01 1.059921798246749860e-03
3.601532419646850485e+03 9.359078102357735185e-01 9.541183822664987303e-04
3.605133952066498296e+03 9.419814481990225197e-01 9.047218027078030456e-04
3.608739086018566013e+03 9.478345473197808957e-01 8.900198647502713129e-04
3.612347825104585809e+03 9.536269776344254989e-01 8.495174182151112420e-04
3.615960172929691907e+03 9.592506473274620138e-01 7.860545281140326546e-04
3.619576133102622407e+03 9.645506804663869227e-01 7.769272752960791834e-04
3.623195709235726554e+03 9.690940491476756069e-01 7.904765237840747326e-04
3.626818904944963379e+03 9.731400366074816066e-01 8.343652817817427941e-04
3.630445723849909427e+03 9.768893547167658564e-01 8.547330505416787967e-04
3.634076169573760581e+03 9.803734547609883609e-01 8.105686215497670674e-04
3.637710245743335690e+03 9.836789714218943104e-01 6.329025646385118015e-04
3.641347955989080219e+03 9.871765117597496308e-01 5.976748486729914446e-04
3.644989303945070333e+03 9.909534416841524473e-01 6.037830032820081178e-04
3.648634293249016537e+03 9.946027939382331429e-01 6.309726388815256343e-04
3.652282927542266862e+03 9.981402422720585532e-01 6.998684450133158853e-04
3.655935210469810499e+03 1.001626289298698014e+00 8.036248949197648825e-04
3.659591145680281443e+03 1.005367314144923752e+00 7.741725730492256393e-04
3.663250736825963031e+03 1.009543279487762568e+00 6.188102565662618538e-04
3.666913987562790226e+03 1.014283457371177422e+00 5.646922464115168355e-04
3.670580901550354156e+03 1.019231945168771025e+00 5.328064037902509450e-04
3.674251482451905758e+03 1.025036672043438513e+00 5.636202513293122078e-04
3.677925733934358959e+03 1.031247641389036795e+00 6.991424210433871489e-04
3.681603659668294313e+03 1.037548309730623286e+00 7.541406038469611892e-04
3.685285263327964003e+03 1.043681151222928039e+00 7.773856750620571554e-04
3.688970548591293209e+03 1.050148340415892889e+00 7.919338497311470808e-04
3.692659519139885560e+03 1.056798641090212598e+00 7.704128728879725647e-04
3.696352178659026777e+03 1.063408280528154393e+00 7.349858271948629109e-04
3.700048530837686940e+03 1.069638913795276203e+00 6.941973950296896449e-04
3.703748579368525952e+03 1.075621821271673717e+00 6.456276395038383024e-04
3.707452327947895355e+03 1.081136070537209726e+00 6.067677665924385349e-04
3.711159780275844696e+03 1.086256339346341360e+00 5.887376287045398022e-04
3.714870940056121526e+03 1.090663215151432608e+00 5.892971127368972026e-04
3.718585810996179134e+03 1.094561360761005631e+00 5.872478885477122384e-04
3.722304396807176545e+03 1.097960279098785019e+00 6.039624976799414088e-04
3.726026701203984885e+03 1.100716092355695119e+00 6.097071851920010796e-04
3.729752727905190113e+03 1.102781907233854941e+00 6.053899521073711478e-04
3.733482480633096657e+03 1.104091702197188996e+00 6.087830765436968387e-04
3.737215963113731050e+03 1.104597655012112600e+00 6.010198876480300030e-04
3.740953179076846027e+03 1.104409005103657693e+00 5.957602776134546599e-04
3.744694132255923705e+03 1.103987751250529614e+00 5.834186966002598328e-04
3.748438826388181042e+03 1.103451751918544277e+00 5.844504988704198305e-04
3.752187265214570289e+03 1.102728229282170513e+00 5.888405893084717926e-04
3.755939452479786269e+03 1.101720099853998214e+00 5.844682070219529542e-04
3.759695391932267285e+03 1.100532764120633500e+00 5.889208000535929750e-04
3.763455087324201031e+03 1.099133036602336189e+00 6.445997682360126053e-04
3.767218542411526414e+03 1.097532436955115598e+00 7.206641885272750464e-04
3.770985760953939007e+03 1.096156152137851780e+00 6.712213624182530175e-04
3.774756746714894234e+03 1.095157512771629094e+00 6.709405820488719601e-04
3.778531503461610555e+03 1.094957294043344520e+00 6.418142966907044392e-04
3.782310034965073100e+03 1.095258892663892425e+00 4.718279885627100654e-04
3.786092345000039586e+03 1.096745995621004388e+00 5.077952568916245220e-04
3.789878437345040766e+03 1.099231998594274451e+00 6.358331609327583667e-04
3.793668315782387253e+03 1.102169382540418408e+00 6.862509168786063611e-04
3.797461984098170888e+03 1.105766299536618202e+00 7.085347452990810530e-04
3.801259446082270188e+03 1.110117603502354333e+00 6.882890138448609363e-04
3.805060705528353537e+03 1.114967933839077885e+00 6.346146669102422332e-04
3.808865766233883278e+03 1.120189193777105352e+00 6.277264025795313432e-04
3.812674632000118436e+03 1.126046972504945343e+00 6.063476156598486501e-04
3.816487306632119726e+03 1.132262784176244930e+00 6.038365353665344805e-04
3.820303793938753188e+03 1.138817536250114060e+00 6.281387520417742142e-04
3.824124097732693372e+03 1.145695467646580923e+00 6.268856928668268321e-04
3.827948221830427428e+03 1.152986733847487066e+00 6.405752311444896149e-04
3.831776170052258749e+03 1.160607232445378889e+00 6.606942517266742006e-04
3.835607946222312421e+03 1.168048123312843689e+00 6.673849543290896356e-04
3.839443554168536139e+03 1.175218199596957058e+00 6.876388782342801858e-04
3.843282997722705659e+03 1.182090594373035763e+00 6.786339558817672864e-04
3.847126280720429804e+03 1.188812261264406311e+00 6.630826712458720964e-04
3.850973407001151372e+03 1.195838355047575741e+00 6.715589269234787783e-04
3.854824380408153957e+03 1.202804216403510873e+00 6.273242032703298891e-04
3.858679204788563311e+03 1.209373701101067677e+00 6.203989622818337300e-04
3.862537883993353262e+03 1.215759808618899429e+00 6.398810527283121897e-04
3.866400421877347981e+03 1.221757376099159131e+00 7.159787658591967342e-04
3.870266822299226533e+03 1.227590874000602517e+00 7.197230701199022014e-04
3.874137089121526969e+03 1.233435956747719109e+00 6.913288986039251623e-04
3.878011226210649966e+03 1.239161276209301388e+00 5.945682398903210037e-04
3.881889237436861549e+03 1.244987329201885817e+00 5.136761295211027386e-04
3.885771126674299921e+03 1.250705612176126191e+00 4.694405514335462911e-04
3.889656897800975457e+03 1.256844201291580809e+00 5.246584836231897846e-04
3.893546554698777527e+03 1.263146232624940080e+00 5.273282309568575648e-04
3.897440101253477678e+03 1.269196698641424925e+00 5.115109337739486397e-04
3.901337541354732366e+03 1.275077732553627552e+00 4.699721646636458700e-04
3.905238878896088409e+03 1.280732464260862846e+00 4.867386335730147047e-04
3.909144117774985716e+03 1.285818615717038149e+00 5.412765533793024910e-04
3.913053261892762293e+03 1.291015385742788846e+00 5.558030634030657882e-04
3.916966315154656058e+03 1.295930219365149183e+00 6.622328710800760290e-04
3.920883281469812118e+03 1.300393126498435414e+00 8.054551089432048861e-04
3.924804164751283224e+03 1.304166985644471310e+00 8.298538530739594252e-04
3.928728968916035683e+03 1.307194147361344649e+00 7.932279119672331485e-04
3.932657697884953450e+03 1.309128232639585887e+00 7.662639471681710352e-04
3.936590355582839493e+03 1.309982150062759310e+00 7.548117835710867933e-04
3.940526945938423523e+03 1.309678669209218382e+00 7.603242525350948798e-04
3.944467472884363360e+03 1.308505261676941700e+00 7.685842993761020326e-04
3.948411940357249023e+03 1.306577309750607041e+00 7.946980865517933338e-04
3.952360352297607733e+03 1.304212929569267709e+00 8.302439021116364082e-04
3.956312712649906643e+03 1.300746866953525149e+00 9.522259813785606758e-04
3.960269025362557841e+03 1.296926993702997244e+00 1.021005498810629263e-03
3.964229294387921527e+03 1.293067986564752747e+00 9.684933506117067263e-04
3.968193523682310570e+03 1.289164549303387419e+00 6.629993963276947832e-04
3.972161717205994591e+03 1.286672164908803984e+00 4.671216604281701887e-04
3.976133878923201792e+03 1.285481581114600091e+00 5.437026149582802276e-04
3.980110012802126221e+03 1.285489265569020212e+00 6.302310457036943868e-04
3.984090122814929600e+03 1.286480077625502538e+00 5.517813437765575627e-04
3.988074212937745870e+03 1.288432665869263749e+00 4.543043691944535388e-04
3.992062287150684824e+03 1.291136643817669905e+00 4.097692042911699585e-04
3.996054349437837118e+03 1.294453373970334331e+00 4.106497678113258222e-04
4.000050403787276082e+03 1.298441366440953537e+00 4.170307207888383750e-04
4.004050454191064546e+03 1.303272520320645222e+00 4.806428745926936063e-04
4.008054504645257111e+03 1.308277027351509858e+00 4.532289594556403894e-04
4.012062559149903791e+03 1.313258462102820934e+00 4.260243805675734932e-04
4.016074621709055009e+03 1.317886175511926217e+00 4.488227403840016456e-04
4.020090696330765240e+03 1.322263285705953528e+00 4.473973096776716753e-04
4.024110787027097558e+03 1.326112283864181229e+00 4.485204380397435245e-04
4.028134897814125907e+03 1.329514807395302478e+00 4.982536270577014870e-04
4.032163032711941469e+03 1.332360157447800564e+00 4.910034119136046267e-04
4.036195195744654484e+03 1.333840990766733459e+00 4.398832150695102319e-04
4.040231390940400615e+03 1.334015187882921838e+00 5.226021328524561903e-04
4.044271622331342314e+03 1.332956504237366557e+00 6.699669216151825282e-04
4.048315893953675186e+03 1.331189960862970922e+00 6.138086970198208510e-04
4.052364209847629809e+03 1.328526366616432641e+00 5.252639484617424017e-04
4.056416574057479011e+03 1.325426535035587383e+00 5.162831277404700877e-04
4.060472990631537868e+03 1.322073001508268231e+00 5.917458739294175147e-04
4.064533463622170530e+03 1.317951150014589734e+00 5.742380408894053869e-04
4.068597997085794304e+03 1.313174127147612946e+00 6.293038971026331755e-04
4.072666595082881486e+03 1.308128443122284157e+00 7.475801923876762871e-04
4.076739261677965715e+03 1.303246250907320158e+00 7.495219776207290080e-04
4.080816000939644709e+03 1.298675048724863723e+00 7.171477409218579482e-04
4.084896816940585722e+03 1.294636855637962380e+00 7.572410239919469613e-04
4.088981713757527814e+03 1.291162868072599723e+00 7.594721421779182784e-04
4.093070695471286854e+03 1.288196280024910712e+00 7.418973763220244747e-04
4.097163766166759160e+03 1.285959862419440825e+00 8.008939514065786325e-04
4.101260929932927866e+03 1.284167464759597976e+00 8.559902651646593766e-04
4.105362190862862008e+03 1.282797662749548318e+00 8.691913542028676179e-04
4.109467553053726078e+03 1.282261172481573341e+00 8.094581623075909659e-04
4.113577020606780934e+03 1.282005423114369602e+00 5.879996291695667801e-04
4.117690597627389252e+03 1.281398478192963930e+00 5.725530599091571216e-04
4.121808288225018259e+03 1.280542463261501007e+00 7.587609812660349321e-04
4.125930096513244280e+03 1.279832753846463778e+00 7.073162579475214583e-04
4.130056026609759101e+03 1.279729563992728192e+00 6.479864509383767264e-04
4.134186082636369974e+03 1.279871104664208170e+00 4.631390740798943442e-04
4.138320268719007800e+03 1.280980278724442867e+00 4.642636489090225141e-04
4.142458588987728035e+03 1.283071405312466329e+00 5.744755620184977853e-04
4.146601047576717065e+03 1.285261702628593516e+00 5.595923827672987915e-04
4.150747648624294925e+03 1.287678782738455929e+00 5.606496615192845326e-04
4.154898396272920763e+03 1.290446342614365971e+00 5.572463414155856467e-04
4.159053294669195566e+03 1.293726271120087201e+00 5.406008923205447327e-04
4.163212347963865795e+03 1.296933795138892398e+00 5.209245965626401907e-04
4.167375560311830668e+03 1.299763422517086653e+00 5.190941390391161587e-04
4.171542935872143971e+03 1.302420635504366597e+00 5.148228308919783336e-04
4.175714478808017702e+03 1.305026211567157146e+00 5.136679272326788621e-04
4.179890193286827525e+03 1.307292728621076705e+00 5.249441749335952319e-04
4.184070083480115500e+03 1.309099017754709715e+00 5.139430289792616940e-04
4.188254153563597356e+03 1.310887455567897986e+00 4.731786266015149123e-04
4.192442407717161586e+03 1.312351949591349154e+00 4.962912709607303569e-04
4.196634850124880359e+03 1.313404956740986673e+00 5.552309992345629127e-04
4.200831484975006788e+03 1.314326338374892877e+00 5.190216911741018287e-04
4.205032316459983122e+03 1.315420109092075407e+00 4.857885521840197185e-04
4.209237348776444378e+03 1.316622932047495365e+00 4.463031434806983503e-04
4.213446586125221984e+03 1.317958857902925329e+00 4.148804697223937516e-04
4.217660032711349231e+03 1.319781513904770165e+00 6.425955547884323535e-04
4.221877692744061278e+03 1.321538401229633175e+00 5.786596158368170111e-04
4.226099570436806971e+03 1.322483936622179224e+00 5.559414532044803549e-04
4.230325670007245208e+03 1.323069698171627673e+00 5.483680148408380094e-04
4.234555995677254032e+03 1.323337592825661657e+00 5.306738547918232133e-04
4.238790551672932452e+03 1.323169543703333950e+00 4.815615851311826892e-04
4.243029342224606808e+03 1.322280484528044475e+00 5.227380207481412914e-04
4.247272371566832589e+03 1.320761764747349520e+00 5.474642832156550315e-04
4.251519643938400804e+03 1.319058740933973350e+00 4.622730502030869375e-04
4.255771163582340705e+03 1.317443185911111980e+00 4.293300396293016417e-04
4.260026934745924336e+03 1.315804484734270030e+00 4.234952772057903013e-04
4.264286961680671993e+03 1.314257957437237501e+00 4.197204048244938595e-04
4.268551248642354039e+03 1.312974597643753905e+00 4.250336521608204178e-04
4.272819799890998183e+03 1.312018875593126577e+00 4.291961174588642108e-04
4.277092619690890388e+03 1.311271302527359239e+00 4.288228465483384633e-04
4.281369712310583054e+03 1.310641831208370522e+00 4.243983860947660603e-04
4.285651082022895025e+03 1.310067690358622139e+00 4.225456298925178928e-04
4.289936733104918858e+03 1.309472359703653055e+00 4.090895624666081873e-04
4.294226669838025373e+03 1.309029454409407212e+00 4.086197576070221328e-04
4.298520896507864563e+03 1.308854705571713906e+00 3.316052967728225242e-04
4.302819417404373780e+03 1.308305955247012653e+00 3.181259111913718610e-04
4.307122236821779552e+03 1.307415739727571191e+00 2.939236944240278542e-04
4.311429359058603040e+03 1.306400927081715180e+00 2.887399743524228968e-04
4.315740788417662770e+03 1.305147145742959758e+00 2.617108619156604935e-04
4.320056529206081905e+03 1.303500869666688544e+00 2.640005120406859677e-04
4.324376585735290064e+03 1.301555684003733449e+00 2.715826334471605863e-04
4.328700962321026054e+03 1.299199736506829739e+00 2.653667283865059024e-04
4.333029663283348782e+03 1.296676300296849105e+00 2.630400020958710322e-04
4.337362692946633615e+03 1.293979822008206382e+00 1.925630732456937774e-04
4.341700055639581478e+03 1.290857281969202575e+00 2.642895822293153413e-04
4.346041755695222491e+03 1.287758723729993671e+00 2.680853437360511166e-04
4.350387797450919606e+03 1.284650023136943098e+00 3.035170461350259223e-04
4.354738185248371337e+03 1.282087754995118623e+00 3.211382211805611717e-04
4.359092923433621763e+03 1.279897375386999991e+00 4.347204949467238901e-04
4.363452016357056891e+03 1.278597999067051960e+00 3.951309681609839930e-04
4.367815468373414660e+03 1.278334738844608243e+00 3.678407605477044878e-04
4.372183283841789489e+03 1.278925059696043531e+00 3.526393889930864631e-04
4.376555467125633186e+03 1.280523543634543460e+00 4.203032907037269504e-04
4.380932022592760404e+03 1.283033638617490535e+00 4.927717032174444827e-04
4.385312954615354101e+03 1.286057636870901355e+00 5.560715985104120167e-04
4.389698267569970994e+03 1.289492974680345849e+00 4.521704397451770151e-04
4.394087965837542470e+03 1.292809594742924340e+00 3.508796636001288534e-04
4.398482053803381859e+03 1.295982154729778735e+00 3.212741100109471029e-04
4.402880535857186260e+03 1.298936177506611278e+00 3.282514526183281239e-04
4.407283416393044718e+03 1.301794114078014708e+00 3.261578502205631576e-04
4.411690699809440048e+03 1.304361447916964734e+00 3.162237806241885245e-04
4.416102390509250654e+03 1.306858809494725548e+00 3.048140369307933699e-04
4.420518492899761441e+03 1.309092291779620831e+00 3.697370608543789640e-04
4.424939011392662906e+03 1.311510363737744544e+00 3.592781491639747762e-04
4.429363950404056595e+03 1.314299158001997814e+00 4.864109805324628413e-04
4.433793314354462382e+03 1.317592413626066605e+00 5.508835940327773449e-04
4.438227107668818462e+03 1.321780727933139055e+00 5.460531446440252843e-04
4.442665334776488635e+03 1.326602121445672022e+00 4.412413449473935514e-04
4.447108000111265937e+03 1.332484661647314494e+00 6.121186155439787809e-04
4.451555108111379013e+03 1.338874116433440786e+00 7.245374894174305518e-04
4.456006663219492111e+03 1.345309064667442378e+00 7.589400674668707889e-04
4.460462669882713271e+03 1.351874658017169439e+00 7.485649412462695761e-04
4.464923132552597053e+03 1.358231377311131194e+00 6.653053220547732989e-04
4.469388055685150903e+03 1.363981550292358902e+00 5.201722077236068222e-04
4.473857443740837880e+03 1.368841912480555312e+00 5.214134171970166015e-04
