# starting wavelength: 3689.200
# ending wavelength: 7471.450
# wav flux eflux
3.692659519139885560e+03 6.729359138585840894e-01 1.278533905348162511e-02
3.696352178659026777e+03 6.738182143009395775e-01 9.347880720615403538e-03
3.700048530837686940e+03 6.727579403638410671e-01 7.414047966822798902e-03
3.703748579368525952e+03 6.716185267225276423e-01 5.796125952883973177e-03
3.707452327947895355e+03 6.712329346361903815e-01 4.555767715831392055e-03
3.711159780275844696e+03 6.709937516417781023e-01 4.067764757208988842e-03
3.714870940056121526e+03 6.692091079336500714e-01 3.256054206771497039e-03
3.718585810996179134e+03 6.671834510451073452e-01 2.817285828318562280e-03
3.722304396807176545e+03 6.647302918694214524e-01 2.383373369205561785e-03
3.726026701203984885e+03 6.620084647572438419e-01 2.150939262206756023e-03
3.729752727905190113e+03 6.595105045775416786e-01 1.904075290017494043e-03
3.733482480633096657e+03 6.572547580143376367e-01 1.729086816829867321e-03
3.737215963113731050e+03 6.558440861615491002e-01 1.593988716906216425e-03
3.740953179076846027e+03 6.548986603715606369e-01 1.485643007169240495e-03
3.744694132255923705e+03 6.546353225426613243e-01 1.404693764672389038e-03
3.748438826388181042e+03 6.554167895866550575e-01 1.341277886530349225e-03
3.752187265214570289e+03 6.573205590421240530e-01 1.315159226240361721e-03
3.755939452479786269e+03 6.596720093646161187e-01 1.315723663064984192e-03
3.759695391932267285e+03 6.633536442235036246e-01 1.343921758112593843e-03
3.763455087324201031e+03 6.672663763456319064e-01 1.362755396712163119e-03
3.767218542411526414e+03 6.722341272727870853e-01 1.404293570806778831e-03
3.770985760953939007e+03 6.787709346082838602e-01 1.434382385095299721e-03
3.774756746714894234e+03 6.871789098609110136e-01 1.530178210780229302e-03
3.778531503461610555e+03 6.962251803669788908e-01 1.500639725491229601e-03
3.782310034965073100e+03 7.056033429277382973e-01 1.492629383932062882e-03
3.786092345000039586e+03 7.154845519202833737e-01 1.492207350270429150e-03
3.789878437345040766e+03 7.259551926894688423e-01 1.524920555592980832e-03
3.793668315782387253e+03 7.366178622720357394e-01 1.568282716226353018e-03
3.797461984098170888e+03 7.485982081711316516e-01 1.819872949943689188e-03
3.801259446082270188e+03 7.600924803465465285e-01 1.744875384625740660e-03
3.805060705528353537e+03 7.710913339587874837e-01 1.725105495952375737e-03
3.808865766233883278e+03 7.829483030080589545e-01 1.673293874940169753e-03
3.812674632000118436e+03 7.939293117912562536e-01 1.686935734696488843e-03
3.816487306632119726e+03 8.034887414781832771e-01 1.697100917481154199e-03
3.820303793938753188e+03 8.120231491884601915e-01 1.703399081993361942e-03
3.824124097732693372e+03 8.199476841447558284e-01 1.701286716225198494e-03
3.827948221830427428e+03 8.275837470793427908e-01 1.656557202610894550e-03
3.831776170052258749e+03 8.347641947983681643e-01 1.563823465713680069e-03
3.835607946222312421e+03 8.406324295265760194e-01 1.580701710900293388e-03
3.839443554168536139e+03 8.450952570549260523e-01 1.774281529314086434e-03
3.843282997722705659e+03 8.488286278410640540e-01 1.829534908864045937e-03
3.847126280720429804e+03 8.518613702620929651e-01 2.027143792710343027e-03
3.850973407001151372e+03 8.549756875786970189e-01 1.879477698538007877e-03
3.854824380408153957e+03 8.585674131304238399e-01 1.808743315672535230e-03
3.858679204788563311e+03 8.620788560023026070e-01 1.724643953960003752e-03
3.862537883993353262e+03 8.664327681911365708e-01 1.695270017690226911e-03
3.866400421877347981e+03 8.721607334018712798e-01 1.626282228735299309e-03
3.870266822299226533e+03 8.783089067728764299e-01 1.642375876583673875e-03
3.874137089121526969e+03 8.863092530499849797e-01 1.826930866203224429e-03
3.878011226210649966e+03 8.949458096792862749e-01 1.823131277290452939e-03
3.881889237436861549e+03 9.035227668729911565e-01 1.797291439883381145e-03
3.885771126674299921e+03 9.133441043908201440e-01 1.894467174204947932e-03
3.889656897800975457e+03 9.243927727447404097e-01 1.886976253697678811e-03
3.893546554698777527e+03 9.357911236283070755e-01 1.593760846647193381e-03
3.897440101253477678e+03 9.463785553717150023e-01 1.535307114377697712e-03
3.901337541354732366e+03 9.569950869783774294e-01 1.517433964332353660e-03
3.905238878896088409e+03 9.674517568668397072e-01 1.493184203103291178e-03
3.909144117774985716e+03 9.776964432665565807e-01 1.467766056728601106e-03
3.913053261892762293e+03 9.871553874406642226e-01 1.567562574809739729e-03
3.916966315154656058e+03 9.951739748283449094e-01 1.585612682621055517e-03
3.920883281469812118e+03 1.003470611404551960e+00 1.576046090674416977e-03
3.924804164751283224e+03 1.012003352429818870e+00 1.557980034996965654e-03
3.928728968916035683e+03 1.019980713302486963e+00 1.456295360220032434e-03
3.932657697884953450e+03 1.026903785792515844e+00 1.447462758470138746e-03
3.936590355582839493e+03 1.034450453717807639e+00 1.499657286977037129e-03
3.940526945938423523e+03 1.042335453772793796e+00 1.548939638113333269e-03
3.944467472884363360e+03 1.051522515038355143e+00 1.976696666515094861e-03
3.948411940357249023e+03 1.059287548397723544e+00 2.063760345857800285e-03
3.952360352297607733e+03 1.068285870394343195e+00 2.620106801756435632e-03
3.956312712649906643e+03 1.075750364984042085e+00 2.712046090762653110e-03
3.960269025362557841e+03 1.083261335788948676e+00 2.626783402639854340e-03
3.964229294387921527e+03 1.087416677447525348e+00 2.659273928037331203e-03
3.968193523682310570e+03 1.090378899489689690e+00 2.731609098188735648e-03
3.972161717205994591e+03 1.093198514971671420e+00 2.618979939008763119e-03
3.976133878923201792e+03 1.094042342552698832e+00 2.796736847588003443e-03
3.980110012802126221e+03 1.093113878497027791e+00 2.941269132624627254e-03
3.984090122814929600e+03 1.092273014184432123e+00 2.903939307227089168e-03
3.988074212937745870e+03 1.091059274113789446e+00 2.873074586309307728e-03
3.992062287150684824e+03 1.089695401855061530e+00 2.821289622094113030e-03
3.996054349437837118e+03 1.088228638840909035e+00 2.724244570612238247e-03
4.000050403787276082e+03 1.088558643787149727e+00 2.830244975785136275e-03
4.004050454191064546e+03 1.088607780011589199e+00 2.827117704923722344e-03
4.008054504645257111e+03 1.088416235799680720e+00 2.800903707320959168e-03
4.012062559149903791e+03 1.089910793579378367e+00 2.818294864749200466e-03
4.016074621709055009e+03 1.091901684846943832e+00 2.614515215618359520e-03
4.020090696330765240e+03 1.093366332015351716e+00 2.556114336891731915e-03
4.024110787027097558e+03 1.094887187185221933e+00 2.662336998552543993e-03
4.028134897814125907e+03 1.094296407606074828e+00 2.599772366101359925e-03
4.032163032711941469e+03 1.092668771817111528e+00 4.090589445539381808e-03
4.036195195744654484e+03 1.090877669618080859e+00 4.879362597765111650e-03
4.040231390940400615e+03 1.084983410505327539e+00 4.875283559212768326e-03
4.044271622331342314e+03 1.071264439876305596e+00 4.800708945029061835e-03
4.048315893953675186e+03 1.052797067747734294e+00 5.574242131482269602e-03
4.052364209847629809e+03 1.029910770634065997e+00 6.807791363474593842e-03
4.056416574057479011e+03 1.005478819632389387e+00 7.654968918795413725e-03
4.060472990631537868e+03 9.842437067288321018e-01 7.878103415057811920e-03
4.064533463622170530e+03 9.617269789632015842e-01 7.254727907681856637e-03
4.068597997085794304e+03 9.430948810254329295e-01 6.329777258030252519e-03
4.072666595082881486e+03 9.293201784157285594e-01 6.044667536529894393e-03
4.076739261677965715e+03 9.208946688387631418e-01 6.540476545131641145e-03
4.080816000939644709e+03 9.181166285446988873e-01 6.783412826823686723e-03
4.084896816940585722e+03 9.190946143787470657e-01 6.505390971745043591e-03
4.088981713757527814e+03 9.203688526023475758e-01 5.695044397371593764e-03
4.093070695471286854e+03 9.215802627528371094e-01 4.859524727041079732e-03
4.097163766166759160e+03 9.218245104575942817e-01 4.349256723275825645e-03
4.101260929932927866e+03 9.178650039445684916e-01 4.492228896008440206e-03
4.105362190862862008e+03 9.100096994652344673e-01 3.255239025603118199e-03
4.109467553053726078e+03 9.029281994105875508e-01 3.117323429236950206e-03
4.113577020606780934e+03 8.951037924347458041e-01 3.309720331759087586e-03
4.117690597627389252e+03 8.865884213030345018e-01 3.162232384997673996e-03
4.121808288225018259e+03 8.773413772026684709e-01 3.070253518807635959e-03
4.125930096513244280e+03 8.660278682023297980e-01 4.247327431849506202e-03
4.130056026609759101e+03 8.565248816301241908e-01 4.660527200803331674e-03
4.134186082636369974e+03 8.486595921220695393e-01 4.439803835236578664e-03
4.138320268719007800e+03 8.435120062546878072e-01 3.921591107196314638e-03
4.142458588987728035e+03 8.416397044369344771e-01 4.285800631781263789e-03
4.146601047576717065e+03 8.421799851407630877e-01 5.308985117383693483e-03
4.150747648624294925e+03 8.419917844168424148e-01 5.566302721128280756e-03
4.154898396272920763e+03 8.417048022163255983e-01 5.318578779484298309e-03
4.159053294669195566e+03 8.390908398903513810e-01 4.681780591301535482e-03
4.163212347963865795e+03 8.339686640480906688e-01 3.625634519759342311e-03
4.167375560311830668e+03 8.233138941783267883e-01 3.800798938240193634e-03
4.171542935872143971e+03 8.084641327498099939e-01 4.369533028338152235e-03
4.175714478808017702e+03 7.905587827551713298e-01 4.560110873957957250e-03
4.179890193286827525e+03 7.710136838751094901e-01 3.567299573528222648e-03
4.184070083480115500e+03 7.528849920624398617e-01 1.509335453110391976e-03
4.188254153563597356e+03 7.400893959469116989e-01 1.324534094336649861e-03
4.192442407717161586e+03 7.310190099660793805e-01 1.416098727145823554e-03
4.196634850124880359e+03 7.268256581769491076e-01 1.487365655796706043e-03
4.200831484975006788e+03 7.248158428590357749e-01 1.409725925900475125e-03
4.205032316459983122e+03 7.258818376040692133e-01 1.432514761442089685e-03
4.209237348776444378e+03 7.307130932208826257e-01 1.523933690312111611e-03
4.213446586125221984e+03 7.377768470483263563e-01 2.059609879576683195e-03
4.217660032711349231e+03 7.462380350102266746e-01 2.475113820280526369e-03
4.221877692744061278e+03 7.541780430564642979e-01 2.460457689324323412e-03
4.226099570436806971e+03 7.612620595438064353e-01 2.063495249231791281e-03
4.230325670007245208e+03 7.648632171484780473e-01 2.018717494277246904e-03
4.234555995677254032e+03 7.664641252104948954e-01 1.933406048035558314e-03
4.238790551672932452e+03 7.651526681979530231e-01 2.057326689431736039e-03
4.243029342224606808e+03 7.616827463155569911e-01 2.545349666728002804e-03
4.247272371566832589e+03 7.561318889875646709e-01 3.015514556987427489e-03
4.251519643938400804e+03 7.504790227736611863e-01 3.017485481720959435e-03
4.255771163582340705e+03 7.456283241348836688e-01 2.579394905235641699e-03
4.260026934745924336e+03 7.423419349696065428e-01 1.908977961804477711e-03
4.264286961680671993e+03 7.419005896060912875e-01 1.580597097669595276e-03
4.268551248642354039e+03 7.449327275149904004e-01 2.219544997433904078e-03
4.272819799890998183e+03 7.501504503897002962e-01 2.441378901998467361e-03
4.277092619690890388e+03 7.566473443357731865e-01 1.966369127717067320e-03
4.281369712310583054e+03 7.610059626545740974e-01 1.760313556787836435e-03
4.285651082022895025e+03 7.641534287890350274e-01 1.617897437566337632e-03
4.289936733104918858e+03 7.653009511998871695e-01 1.319462804123166686e-03
4.294226669838025373e+03 7.641910084444816231e-01 1.085270997923415501e-03
4.298520896507864563e+03 7.600997797258817190e-01 1.189672019426141810e-03
4.302819417404373780e+03 7.530053762000361584e-01 1.467991639210767521e-03
4.307122236821779552e+03 7.445998710967161038e-01 1.490058653573575302e-03
4.311429359058603040e+03 7.354082566421180633e-01 1.214541633676019181e-03
4.315740788417662770e+03 7.272691752721602843e-01 1.231190707959352228e-03
4.320056529206081905e+03 7.206598807004831464e-01 1.072807111881158041e-03
4.324376585735290064e+03 7.159780784927187725e-01 8.779931489687036730e-04
4.328700962321026054e+03 7.137100003901979406e-01 7.817511611911089802e-04
4.333029663283348782e+03 7.144007892256428738e-01 8.903840223636839621e-04
4.337362692946633615e+03 7.174523796815666099e-01 9.813142084085688891e-04
4.341700055639581478e+03 7.223162262771091191e-01 1.166749743551370342e-03
4.346041755695222491e+03 7.288832395887293591e-01 1.231107838817352548e-03
4.350387797450919606e+03 7.367514018535936682e-01 1.016281347786651213e-03
4.354738185248371337e+03 7.447451260935743500e-01 7.720789697142169550e-04
4.359092923433621763e+03 7.526171757598479894e-01 3.829697149951979615e-04
4.363452016357056891e+03 7.590038513357816319e-01 4.389283313608851786e-04
4.367815468373414660e+03 7.650542664683469551e-01 4.300394521798207208e-04
4.372183283841789489e+03 7.701785011588331287e-01 3.980609929676449509e-04
4.376555467125633186e+03 7.748294194754209441e-01 4.939934060072089439e-04
4.380932022592760404e+03 7.788851036545536566e-01 6.890964481685304347e-04
4.385312954615354101e+03 7.825481588814825473e-01 1.006611448344892383e-03
4.389698267569970994e+03 7.870254924170945188e-01 1.254329634305364951e-03
4.394087965837542470e+03 7.931057721516516779e-01 1.054915652240145593e-03
4.398482053803381859e+03 8.009523457297210713e-01 1.256021877749913078e-03
4.402880535857186260e+03 8.100202115024848215e-01 1.415434764893732690e-03
4.407283416393044718e+03 8.197840305414948459e-01 1.399550408319093654e-03
4.411690699809440048e+03 8.306548263736904802e-01 1.390707406514840594e-03
4.416102390509250654e+03 8.423821078438074039e-01 1.307159238083291809e-03
4.420518492899761441e+03 8.542833431796799104e-01 1.260800724896036715e-03
4.424939011392662906e+03 8.666375410205504615e-01 1.220362150258736669e-03
4.429363950404056595e+03 8.787788098291211547e-01 1.291045159325505693e-03
4.433793314354462382e+03 8.910246298877340099e-01 1.318158474571772334e-03
4.438227107668818462e+03 9.034665224672104866e-01 1.244088572004602719e-03
4.442665334776488635e+03 9.162001143915993184e-01 1.294033553661942454e-03
4.447108000111265937e+03 9.287433262196035377e-01 1.546413596712221039e-03
4.451555108111379013e+03 9.410255309236847943e-01 1.642169672566179579e-03
4.456006663219492111e+03 9.526255208532661278e-01 1.445839702722440329e-03
4.460462669882713271e+03 9.632501542647859960e-01 1.158320987244034145e-03
4.464923132552597053e+03 9.724330693383883562e-01 1.261066377649032195e-03
4.469388055685150903e+03 9.798483386384735372e-01 1.795467152846267136e-03
4.473857443740837880e+03 9.868503391648950629e-01 1.747974048248269975e-03
4.478331301184580298e+03 9.953576970689665959e-01 1.594585000415500459e-03
4.482809632485766087e+03 1.004832784225348830e+00 1.711672994695968624e-03
4.487292442118253348e+03 1.014298193436431905e+00 1.715376484554245913e-03
4.491779734560373072e+03 1.024060563551009162e+00 1.688253348677960222e-03
4.496271514294934605e+03 1.035196129067207593e+00 1.710337770622654156e-03
4.500767785809231100e+03 1.046817854177610974e+00 1.592433059379461504e-03
4.505268553595042249e+03 1.058776162602621307e+00 1.549323575500387816e-03
4.509773822148638828e+03 1.071286964534151620e+00 1.564094697221964222e-03
4.514283595970789065e+03 1.083803350009915789e+00 1.599309151207093868e-03
4.518797879566761367e+03 1.096586146125461347e+00 1.476689268092294238e-03
4.523316677446328868e+03 1.109597094748653978e+00 1.293500086689810440e-03
4.527839994123776705e+03 1.123288885543163529e+00 1.336680303768947092e-03
4.532367834117902021e+03 1.137425438360914365e+00 1.521936391309063703e-03
4.536900201952022144e+03 1.151088942419079997e+00 1.504899917559079795e-03
4.541437102153975502e+03 1.164272910424931196e+00 1.329054577727667441e-03
4.545978539256130716e+03 1.176433866333555622e+00 9.071419396150198853e-04
4.550524517795388419e+03 1.186205445704086703e+00 8.004983442377912317e-04
4.555075042313184895e+03 1.193206849697882044e+00 8.662225350510116767e-04
4.559630117355500261e+03 1.198258489529342219e+00 6.878671139259067866e-04
4.564189747472856652e+03 1.202368295667186837e+00 7.004192613860026626e-04
4.568753937220330954e+03 1.204445826138785369e+00 7.040169692571546971e-04
4.573322691157552981e+03 1.204459585842825531e+00 6.304605577504109656e-04
4.577896013848711846e+03 1.203321188293370314e+00 5.856136412234339613e-04
4.582473909862562323e+03 1.201411816158511670e+00 7.353389337513972605e-04
4.587056383772426670e+03 1.197550567637606589e+00 7.183043192615534049e-04
4.591643440156200086e+03 1.192120945110876962e+00 6.936392909058416425e-04
4.596235083596357981e+03 1.185235780986907628e+00 7.550414069612417477e-04
4.600831318679955984e+03 1.177563887811250654e+00 7.499289345214896728e-04
4.605432149998637215e+03 1.168685762274294548e+00 8.678020428809676400e-04
4.610037582148637739e+03 1.159083974148454654e+00 9.410830410601984291e-04
4.614647619730787483e+03 1.149727414990929120e+00 9.627184541274363874e-04
4.619262267350520233e+03 1.140916423848513217e+00 8.991780252706935671e-04
4.623881529617872729e+03 1.132545612657355205e+00 8.109082133488904704e-04
4.628505411147491941e+03 1.125127643071327510e+00 9.036941977752022733e-04
4.633133916558640522e+03 1.118470462167938662e+00 8.974526599740120444e-04
4.637767050475200449e+03 1.111903917564598387e+00 8.875604490744714225e-04
4.642404817525677572e+03 1.105834783927272635e+00 8.856634315232633781e-04
4.647047222343205249e+03 1.100305711804578257e+00 8.731812556021130434e-04
4.651694269565549803e+03 1.095334051617263604e+00 8.030618093644510984e-04
4.656345963835116891e+03 1.090238182145347734e+00 8.879012898973332119e-04
4.661002309798953320e+03 1.084772135896561629e+00 1.149028742132767421e-03
4.665663312108753416e+03 1.078775934040900220e+00 1.277350755321892718e-03
4.670328975420864481e+03 1.071680242671829708e+00 1.150218764197883520e-03
4.674999304396286789e+03 1.063093259500177412e+00 1.243395331483213061e-03
4.679674303700684504e+03 1.053821385559917667e+00 1.270982955751559854e-03
4.684353978004386590e+03 1.043692909383525880e+00 1.336441785320393628e-03
4.689038331982392265e+03 1.033498225647865310e+00 1.326237796534657318e-03
4.693727370314376458e+03 1.022239376231913077e+00 1.293010257391500727e-03
4.698421097684692540e+03 1.010803659362796481e+00 1.164127619580746995e-03
4.703119518782378691e+03 9.991248749152581432e-01 1.029633743093994174e-03
4.707822638301162442e+03 9.881393395720819983e-01 1.031410255927708462e-03
4.712530460939465229e+03 9.777679090254458583e-01 1.048590323224380489e-03
4.717242991400406027e+03 9.680339863070291928e-01 9.488860839984786591e-04
4.721960234391808626e+03 9.587471049284501667e-01 8.558767988988625263e-04
4.726682194626201635e+03 9.499296816547337929e-01 8.399650855418118326e-04
4.731408876820829391e+03 9.413814909853985835e-01 8.381330119102077579e-04
4.736140285697651962e+03 9.327853843979729831e-01 8.418189920426792693e-04
4.740876425983350600e+03 9.251080719672490904e-01 6.574670065016104603e-04
4.745617302409335934e+03 9.186982566172460229e-01 7.200943673109569398e-04
4.750362919711747054e+03 9.134947407712892264e-01 7.752072886797468617e-04
4.755113282631459697e+03 9.086168595186826513e-01 6.708843227801837214e-04
4.759868395914093526e+03 9.040116577423182864e-01 7.513480633911810746e-04
4.764628264310008490e+03 9.000730485074849296e-01 7.307219176118630527e-04
4.769392892574320285e+03 8.969808916047159464e-01 7.270002599802742865e-04
4.774162285466896719e+03 8.942217759424470058e-01 7.027848711445754473e-04
4.778936447752364984e+03 8.924311217524181217e-01 8.567201598794183491e-04
4.783715384200118933e+03 8.904038090812460560e-01 8.590801173116462044e-04
4.788499099584319993e+03 8.885967516550908885e-01 8.375916147314422340e-04
4.793287598683906253e+03 8.866500557189236353e-01 8.362493634746471453e-04
4.798080886282591564e+03 8.852647060927466560e-01 8.362597290984218317e-04
4.802878967168876443e+03 8.836923321920299168e-01 8.290153877983845541e-04
4.807681846136046261e+03 8.818226333621674851e-01 8.334349089595283894e-04
