# starting wavelength: 3328.280
# ending wavelength: 9993.720
# wav flux eflux
3.331419205483417045e+03 5.243042361961822717e-01 1.675545811309824516e-03
3.334750624688901553e+03 5.452787778451106959e-01 1.239291519067868119e-03
3.338085375313591612e+03 5.653645078735972662e-01 9.335069265275477892e-04
3.341423460688906289e+03 5.848359892345379452e-01 7.220433388108808389e-04
3.344764884149596128e+03 6.036199702584791327e-01 6.023155596613069583e-04
3.348109649033746791e+03 6.215936638477251863e-01 4.895025093640117475e-04
3.351457758682781787e+03 6.387857068077559264e-01 3.961631108120578751e-04
3.354809216441465651e+03 6.552448757882974872e-01 3.222116738587545853e-04
3.358164025657908041e+03 6.710492338896903997e-01 2.674379272028539725e-04
3.361522189683567376e+03 6.862286716296885913e-01 2.266470581216865410e-04
3.364883711873251741e+03 7.008105945039623252e-01 1.974062829485421599e-04
3.368248595585126168e+03 7.148298217781607899e-01 1.752503293222816886e-04
3.371616844180712633e+03 7.283346712270920564e-01 1.575775233053206524e-04
3.374988461024894150e+03 7.413741657999540768e-01 1.458069152324903330e-04
3.378363449485920228e+03 7.539540445079925268e-01 1.367634152320035170e-04
3.381741812935407324e+03 7.660732586848616466e-01 1.310509582502382333e-04
3.385123554748343849e+03 7.778121128170526477e-01 1.291078744798713508e-04
3.388508678303093347e+03 7.891552577188679640e-01 1.303011005184976441e-04
3.391897186981397681e+03 8.001309306055021109e-01 1.407270841571039435e-04
3.395289084168380214e+03 8.106835569057601054e-01 1.408464200496847591e-04
3.398684373252549449e+03 8.208457982085484161e-01 1.398276402906644842e-04
3.402083057625803121e+03 8.306526905375517522e-01 1.392362303316448363e-04
3.405485140683430018e+03 8.401595338281343528e-01 1.416511411666798433e-04
3.408890625824114522e+03 8.493596515457136897e-01 1.448073469025627986e-04
3.412299516449939802e+03 8.582483633657362887e-01 1.387624024394577187e-04
3.415711815966390986e+03 8.667956311751683351e-01 1.322209083362444685e-04
3.419127527782358356e+03 8.749618745826323041e-01 1.582890494095558892e-04
3.422546655310141887e+03 8.828753891023479738e-01 1.714746666986267443e-04
3.425969201965453522e+03 8.905264333813184274e-01 1.729066340721515966e-04
3.429395171167419903e+03 8.978965850886508893e-01 1.680661029919152077e-04
3.432824566338588284e+03 9.050400804631316687e-01 1.669017924416645678e-04
3.436257390904928343e+03 9.119352326318523883e-01 1.734167145828180423e-04
3.439693648295834464e+03 9.186338654415431293e-01 1.972624714414888708e-04
3.443133341944131189e+03 9.250087959762940404e-01 2.067043530380585495e-04
3.446576475286076402e+03 9.310782295777854101e-01 2.162539911356399416e-04
3.450023051761363604e+03 9.367770704163377316e-01 2.221315850174656822e-04
3.453473074813126004e+03 9.422451967347639235e-01 2.352969258515365963e-04
3.456926547887940615e+03 9.474461909246786329e-01 2.202074651452184994e-04
3.460383474435829612e+03 9.523917608201796225e-01 2.113856979084482329e-04
3.463843857910266706e+03 9.569891979590319231e-01 1.988011245917491860e-04
3.467307701768178049e+03 9.612441865141551078e-01 1.970186309347464546e-04
3.470775009469947236e+03 9.652064865885343625e-01 1.953353438443960295e-04
3.474245784479418489e+03 9.688812936468711445e-01 1.927519099945779668e-04
3.477720030263898934e+03 9.722887443921520711e-01 1.859787177500617781e-04
3.481197750294164052e+03 9.752745980473012111e-01 1.837419299468211968e-04
3.484678948044459503e+03 9.779076579642512757e-01 1.835558870032372039e-04
3.488163626992504760e+03 9.801769998020909425e-01 1.831502191381281417e-04
3.491651790619498570e+03 9.821314708496562407e-01 1.824101144757813765e-04
3.495143442410119405e+03 9.837943736375395209e-01 1.864042738613038461e-04
3.498638585852530468e+03 9.851381549591838871e-01 1.878295831530867532e-04
3.502137224438384237e+03 9.861698237466220984e-01 1.875971636842778693e-04
3.505639361662823831e+03 9.869347142298925402e-01 1.882241702221800666e-04
3.509145001024487556e+03 9.874458754653269166e-01 1.921067558154040446e-04
3.512654146025513455e+03 9.877699715324640417e-01 1.928569372125176742e-04
3.516166800171540217e+03 9.878916356349066730e-01 1.980100623823504618e-04
3.519682966971712631e+03 9.878154956745585080e-01 2.088447576430523488e-04
3.523202649938685681e+03 9.876579969593092256e-01 2.189290323122966141e-04
3.526725852588625457e+03 9.874687471652038306e-01 2.234328102115704399e-04
3.530252578441215064e+03 9.871886947262393797e-01 2.448371600927319591e-04
3.533782831019657806e+03 9.868015064478645737e-01 2.879192203876021353e-04
3.537316613850678550e+03 9.864352709674287789e-01 3.050500755163161430e-04
3.540853930464530094e+03 9.861143780631890232e-01 2.780352614553665701e-04
3.544394784394995895e+03 9.858870352858090103e-01 2.124244244572362158e-04
3.547939179179392340e+03 9.860197397599079761e-01 1.654659709904652263e-04
3.551487118358572843e+03 9.864645500795737876e-01 1.458335321406867106e-04
3.555038605476932389e+03 9.872395905824347118e-01 1.609019205011551408e-04
3.558593644082410719e+03 9.883385761791080304e-01 1.924725133172883434e-04
3.562152237726494150e+03 9.896511496274283948e-01 2.063049960901869317e-04
3.565714389964221937e+03 9.912401986546621746e-01 2.088920925340341647e-04
3.569280104354187188e+03 9.930732501031541704e-01 2.079241097952569894e-04
3.572849384458542772e+03 9.951281887346588029e-01 2.316887281292930197e-04
3.576422233843002232e+03 9.975272931632038764e-01 2.748025992194979574e-04
3.579998656076846601e+03 1.000037764295065967e+00 3.378578375810763288e-04
3.583578654732924406e+03 1.002505258803984889e+00 3.247762096156046408e-04
3.587162233387658489e+03 1.005202598687279902e+00 3.214289109729283442e-04
3.590749395621047370e+03 1.007878529283691593e+00 2.902143280890878631e-04
3.594340145016669794e+03 1.010475804573858660e+00 2.555878500867748895e-04
3.597934485161687462e+03 1.012945959285924902e+00 2.303838931270626425e-04
3.601532419646850485e+03 1.015287037357542665e+00 2.187060431049443808e-04
3.605133952066498296e+03 1.017487609789739178e+00 2.364689961739536159e-04
3.608739086018566013e+03 1.019611841656815399e+00 2.792826645976318107e-04
3.612347825104585809e+03 1.021567890419823987e+00 3.219235266318806830e-04
3.615960172929691907e+03 1.023439713946525664e+00 3.663552911543015806e-04
3.619576133102622407e+03 1.025371041941754546e+00 3.603748226365885714e-04
3.623195709235726554e+03 1.027392303880515501e+00 3.344537698633557004e-04
3.626818904944963379e+03 1.029544695134958499e+00 3.181542284101965897e-04
3.630445723849909427e+03 1.031861856029139490e+00 2.801261213076930109e-04
3.634076169573760581e+03 1.034393469918453157e+00 2.688327196218198061e-04
3.637710245743335690e+03 1.037173625141651012e+00 2.641770363882497692e-04
3.641347955989080219e+03 1.040199522016012512e+00 2.441261499342448158e-04
3.644989303945070333e+03 1.043522618619379339e+00 2.189159803337068996e-04
3.648634293249016537e+03 1.047141266345138932e+00 2.182364899088001754e-04
3.652282927542266862e+03 1.050971001871112476e+00 2.250180647437072007e-04
3.655935210469810499e+03 1.055118896559853026e+00 2.305175906623113408e-04
3.659591145680281443e+03 1.059535252298517971e+00 2.593193353949692728e-04
3.663250736825963031e+03 1.064151082202334342e+00 2.912899891035583577e-04
3.666913987562790226e+03 1.068842727202801601e+00 2.991132021961385697e-04
3.670580901550354156e+03 1.073499699934620466e+00 3.519846188062935428e-04
3.674251482451905758e+03 1.077946252398969351e+00 3.762891064883250227e-04
3.677925733934358959e+03 1.081976116056692749e+00 3.889650558665036571e-04
3.681603659668294313e+03 1.085730133708786571e+00 3.796906403313241160e-04
3.685285263327964003e+03 1.089130036677646851e+00 3.282111384528582469e-04
3.688970548591293209e+03 1.092024305194097211e+00 2.801841200764629866e-04
3.692659519139885560e+03 1.094366293197880591e+00 2.796008825532287061e-04
3.696352178659026777e+03 1.096204098773616797e+00 3.212764884481296586e-04
3.700048530837686940e+03 1.097609001797886785e+00 3.729635095850326182e-04
3.703748579368525952e+03 1.098595221066029692e+00 4.304844189146580830e-04
3.707452327947895355e+03 1.099227214889014981e+00 4.780672035291993419e-04
3.711159780275844696e+03 1.099606519103288438e+00 5.025526611852608070e-04
3.714870940056121526e+03 1.099893088009156417e+00 4.877675753480756131e-04
3.718585810996179134e+03 1.100345596056794717e+00 4.098539668401955855e-04
3.722304396807176545e+03 1.100741950147739345e+00 3.214080208673196146e-04
3.726026701203984885e+03 1.101602911119257122e+00 2.509268252742893391e-04
3.729752727905190113e+03 1.102894033297259213e+00 1.963572870561797743e-04
3.733482480633096657e+03 1.104661545401290024e+00 1.875340087172717746e-04
3.737215963113731050e+03 1.106983117235823988e+00 2.387047411571045579e-04
3.740953179076846027e+03 1.109822976587528487e+00 2.850365956176527599e-04
3.744694132255923705e+03 1.113123169868734941e+00 2.930049940193426693e-04
3.748438826388181042e+03 1.116837660455090697e+00 2.692336679066672719e-04
3.752187265214570289e+03 1.120764687206624366e+00 2.547121753565909389e-04
3.755939452479786269e+03 1.124948339769049621e+00 2.472082651129372546e-04
3.759695391932267285e+03 1.129420963831609503e+00 2.207362880704172607e-04
3.763455087324201031e+03 1.134055314694457417e+00 1.911768497264281234e-04
3.767218542411526414e+03 1.138823992464526480e+00 1.659831036421973631e-04
3.770985760953939007e+03 1.143703944414599549e+00 1.239921359620371625e-04
3.774756746714894234e+03 1.148514642321588175e+00 1.444396148403009363e-04
3.778531503461610555e+03 1.153443377972842576e+00 1.417721454143094429e-04
3.782310034965073100e+03 1.158424149228437505e+00 1.647637233184888798e-04
3.786092345000039586e+03 1.163586959437557411e+00 1.654913133814468827e-04
3.789878437345040766e+03 1.168783243375466352e+00 1.709431380541609913e-04
3.793668315782387253e+03 1.174121437535596835e+00 1.948834518570616390e-04
3.797461984098170888e+03 1.179767663174063008e+00 1.892727767403269376e-04
3.801259446082270188e+03 1.185751118044106933e+00 2.019803321958964291e-04
3.805060705528353537e+03 1.192041549771900355e+00 2.009680361347431377e-04
3.808865766233883278e+03 1.198711503687474922e+00 1.899246394336636583e-04
3.812674632000118436e+03 1.205795158061272021e+00 2.002704969282861230e-04
3.816487306632119726e+03 1.213202483993123471e+00 2.487390728419297992e-04
3.820303793938753188e+03 1.220956627870856348e+00 3.015142590436007655e-04
3.824124097732693372e+03 1.228841600308430593e+00 3.046399175933568694e-04
3.827948221830427428e+03 1.236883416072300124e+00 2.905800178545256645e-04
3.831776170052258749e+03 1.245078523835569273e+00 2.627395289019688316e-04
3.835607946222312421e+03 1.253255623132295993e+00 2.286222109224884805e-04
3.839443554168536139e+03 1.261311435276299076e+00 1.982075451188315793e-04
3.843282997722705659e+03 1.269230733778369036e+00 1.983383586325983879e-04
3.847126280720429804e+03 1.276962585649130011e+00 2.031684012847018552e-04
3.850973407001151372e+03 1.284548927170416022e+00 2.001489253383631256e-04
3.854824380408153957e+03 1.291954702832059043e+00 2.044035128773783448e-04
3.858679204788563311e+03 1.299095876226664004e+00 1.988804679380777921e-04
3.862537883993353262e+03 1.306055621117313104e+00 2.273982799683941104e-04
3.866400421877347981e+03 1.312921096424203737e+00 2.357666468881019963e-04
3.870266822299226533e+03 1.319807946003225707e+00 2.033470918353673710e-04
3.874137089121526969e+03 1.326792116075812933e+00 2.397541458062810659e-04
3.878011226210649966e+03 1.333684602065761560e+00 2.563689463227566837e-04
3.881889237436861549e+03 1.340392294733289136e+00 2.724141265127775872e-04
3.885771126674299921e+03 1.346948810016960874e+00 2.757890014860355497e-04
3.889656897800975457e+03 1.353229079685360325e+00 2.964911174493732159e-04
3.893546554698777527e+03 1.359191330584446966e+00 3.131424125861181343e-04
3.897440101253477678e+03 1.364676396788952584e+00 3.091363269758982371e-04
3.901337541354732366e+03 1.369818716401503877e+00 2.729647436202004072e-04
3.905238878896088409e+03 1.374468989836517885e+00 2.534234551445306962e-04
3.909144117774985716e+03 1.378531285615769431e+00 3.591474126143092923e-04
3.913053261892762293e+03 1.382153999978654957e+00 4.145282120598664652e-04
3.916966315154656058e+03 1.385626559667339608e+00 3.902026606357449773e-04
3.920883281469812118e+03 1.388974130737425705e+00 3.871316729636098365e-04
3.924804164751283224e+03 1.392191047877949783e+00 3.606320306379932807e-04
3.928728968916035683e+03 1.395286078916910588e+00 3.260299292897452308e-04
3.932657697884953450e+03 1.398445725903516568e+00 3.268565224078996971e-04
3.936590355582839493e+03 1.401795888693008196e+00 3.275614954836099553e-04
3.940526945938423523e+03 1.405312835739605415e+00 3.042444915099172488e-04
3.944467472884363360e+03 1.408605549862546491e+00 3.810186784791561618e-04
3.948411940357249023e+03 1.412095708776729186e+00 4.071670258616699560e-04
3.952360352297607733e+03 1.416006738438024604e+00 4.057721516423848374e-04
3.956312712649906643e+03 1.420270747439427605e+00 4.496795903574469849e-04
3.960269025362557841e+03 1.424573352335127163e+00 4.963118080017331606e-04
3.964229294387921527e+03 1.428836018845855760e+00 5.264177682396581391e-04
3.968193523682310570e+03 1.433000243730129020e+00 5.348274649306865953e-04
3.972161717205994591e+03 1.437102612642315869e+00 5.225057027610138100e-04
3.976133878923201792e+03 1.441028769255002562e+00 4.888506764154799261e-04
3.980110012802126221e+03 1.444660342678525389e+00 4.874726034149897119e-04
3.984090122814929600e+03 1.448114038876491039e+00 4.835953019425942123e-04
3.988074212937745870e+03 1.451307162372060588e+00 5.144194434575132327e-04
3.992062287150684824e+03 1.453860499223591951e+00 4.679466319697539890e-04
3.996054349437837118e+03 1.456174069653234371e+00 3.620619828066102392e-04
4.000050403787276082e+03 1.458529816667115453e+00 3.422690779453503953e-04
4.004050454191064546e+03 1.460892407545548055e+00 4.217096324518156743e-04
4.008054504645257111e+03 1.463068224365681402e+00 4.584688042479472263e-04
4.012062559149903791e+03 1.465072126269432617e+00 4.121597133009002748e-04
4.016074621709055009e+03 1.466851354994962886e+00 2.938685743531189109e-04
4.020090696330765240e+03 1.468208073537183855e+00 3.317331748381673441e-04
4.024110787027097558e+03 1.469129091237788343e+00 3.947582002353995949e-04
4.028134897814125907e+03 1.469889223459514005e+00 3.597294458055421513e-04
4.032163032711941469e+03 1.470780070999773148e+00 2.919747149416239895e-04
4.036195195744654484e+03 1.471891643397152061e+00 3.380563007628209970e-04
4.040231390940400615e+03 1.472999549853290402e+00 3.775992140442563328e-04
4.044271622331342314e+03 1.474082421821056421e+00 3.861461491922075508e-04
4.048315893953675186e+03 1.475156013786886433e+00 3.768272011199543924e-04
4.052364209847629809e+03 1.476278195606215426e+00 3.418980790527962493e-04
4.056416574057479011e+03 1.477351661007067385e+00 3.150061646453993099e-04
4.060472990631537868e+03 1.478274583420466914e+00 3.086618944212019293e-04
4.064533463622170530e+03 1.479073017925289557e+00 3.061350849469037004e-04
4.068597997085794304e+03 1.479616370977587803e+00 2.936256632095367086e-04
4.072666595082881486e+03 1.480010915019631890e+00 2.331730214009623673e-04
4.076739261677965715e+03 1.480455801016341777e+00 2.212170069440991108e-04
4.080816000939644709e+03 1.481023437517761110e+00 2.374219069562471943e-04
4.084896816940585722e+03 1.481646239661008613e+00 2.516353118681828615e-04
4.088981713757527814e+03 1.482231748919596859e+00 2.144767829072364478e-04
4.093070695471286854e+03 1.482734296410774366e+00 2.217725035276651643e-04
4.097163766166759160e+03 1.483264570881494437e+00 2.592986144803942849e-04
4.101260929932927866e+03 1.483840666432413968e+00 2.629373572475987250e-04
4.105362190862862008e+03 1.484598383286949597e+00 2.241669778866290481e-04
4.109467553053726078e+03 1.485831109257372828e+00 1.965929849583954885e-04
4.113577020606780934e+03 1.487749930595453129e+00 2.020634864408449814e-04
4.117690597627389252e+03 1.490078285421062798e+00 2.004533590983240880e-04
4.121808288225018259e+03 1.492891298958810120e+00 1.912658499000020797e-04
4.125930096513244280e+03 1.496221808552679500e+00 1.805895660841773788e-04
4.130056026609759101e+03 1.500080520601487111e+00 2.370965144304879621e-04
4.134186082636369974e+03 1.504301786868544655e+00 2.891191679266665038e-04
4.138320268719007800e+03 1.508629584782775090e+00 2.960558041012023274e-04
4.142458588987728035e+03 1.512823612651541305e+00 2.572805126837477536e-04
4.146601047576717065e+03 1.516601890620319359e+00 2.183864050751224174e-04
4.150747648624294925e+03 1.519848379094510538e+00 2.222615997765613617e-04
4.154898396272920763e+03 1.522548652120865986e+00 2.231067820965953194e-04
4.159053294669195566e+03 1.524689236718351326e+00 2.432049918921653381e-04
4.163212347963865795e+03 1.526049817113729556e+00 2.348955528284719040e-04
4.167375560311830668e+03 1.526578545437333068e+00 2.399559286805481547e-04
4.171542935872143971e+03 1.526325365080498875e+00 2.326372719962596647e-04
4.175714478808017702e+03 1.525349229208244894e+00 2.318723185949700860e-04
4.179890193286827525e+03 1.523625849558563949e+00 2.470268270953167853e-04
4.184070083480115500e+03 1.521236637809520120e+00 2.727736620350145629e-04
4.188254153563597356e+03 1.518471641681164108e+00 2.766515683870387609e-04
4.192442407717161586e+03 1.515479134288918228e+00 2.783327161504227680e-04
4.196634850124880359e+03 1.512083220190580501e+00 2.695865069905828610e-04
4.200831484975006788e+03 1.508520797987328965e+00 2.296026262952429093e-04
4.205032316459983122e+03 1.504952962196831834e+00 1.884258222290562839e-04
4.209237348776444378e+03 1.501602837214100594e+00 2.671186384641306309e-04
4.213446586125221984e+03 1.498320082591370950e+00 2.813490635419289539e-04
4.217660032711349231e+03 1.495120296406997840e+00 2.441323417793520392e-04
4.221877692744061278e+03 1.492025387626189081e+00 2.320169480494053472e-04
4.226099570436806971e+03 1.488990137698509519e+00 3.167945728347883552e-04
4.230325670007245208e+03 1.486225586642508034e+00 3.281745122955136065e-04
4.234555995677254032e+03 1.483965288086707135e+00 3.244150098064004731e-04
4.238790551672932452e+03 1.482190500466881611e+00 3.192799339247586582e-04
4.243029342224606808e+03 1.480819468850856468e+00 2.581912967829532021e-04
4.247272371566832589e+03 1.480037248295298813e+00 3.268605663993614380e-04
4.251519643938400804e+03 1.479752804959601820e+00 4.261234200448031791e-04
4.255771163582340705e+03 1.479657423272597416e+00 4.273957510908230647e-04
4.260026934745924336e+03 1.479534148118271553e+00 3.944017441551210491e-04
4.264286961680671993e+03 1.479267320119661777e+00 3.422417421166348188e-04
4.268551248642354039e+03 1.478730291821869880e+00 2.533866572186450959e-04
4.272819799890998183e+03 1.477765889093660245e+00 2.689599016851015683e-04
4.277092619690890388e+03 1.476335478923690436e+00 3.302159594887548550e-04
4.281369712310583054e+03 1.474588662348003565e+00 2.921433205993003335e-04
4.285651082022895025e+03 1.472656323646350573e+00 2.032206329443156075e-04
4.289936733104918858e+03 1.470875595278380743e+00 1.749685426013118455e-04
4.294226669838025373e+03 1.469069829235392088e+00 1.508076370923180367e-04
4.298520896507864563e+03 1.467393387079627631e+00 1.543217583588437280e-04
4.302819417404373780e+03 1.465976614545973833e+00 1.539325764297239292e-04
4.307122236821779552e+03 1.464757554434453990e+00 1.866861735519370440e-04
4.311429359058603040e+03 1.463707827281622631e+00 1.884114928025305358e-04
4.315740788417662770e+03 1.462730057967475794e+00 1.928936862150217068e-04
4.320056529206081905e+03 1.461615878147600300e+00 1.972094957992225886e-04
4.324376585735290064e+03 1.460394956367458308e+00 1.972279458426902084e-04
4.328700962321026054e+03 1.459156427766473030e+00 1.936161614946100000e-04
4.333029663283348782e+03 1.457732197590954293e+00 1.849073813028677220e-04
4.337362692946633615e+03 1.455954043401917142e+00 1.786342418261894420e-04
