# starting wavelength: 3134.540
# ending wavelength: 8706.060
# wav flux eflux
3.137506515308006783e+03 1.917294816622475973e-01 2.123111662226012317e-02
3.140644021823316052e+03 1.846651256154479004e-01 1.515961203580987703e-02
3.143784665845140353e+03 1.903108859403926933e-01 1.128962470943838982e-02
3.146928450510986750e+03 2.089666121603967475e-01 1.380999586011564216e-02
3.150075378961498700e+03 2.310375615827916229e-01 1.224048419184896666e-02
3.153225454340461056e+03 2.548510590436193213e-01 1.163842806863699293e-02
3.156378679794802792e+03 2.771400745666672272e-01 1.130041707967759969e-02
3.159535058474598372e+03 2.951972796202887439e-01 9.753394960726637433e-03
3.162694593533074112e+03 3.100723674919295125e-01 8.501304751376143054e-03
3.165857288126608182e+03 3.219085695891876209e-01 7.364836664132642582e-03
3.169023145414736064e+03 3.314248540509622809e-01 6.394479181686484222e-03
3.172192168560151458e+03 3.381896472161750045e-01 5.864089178838396629e-03
3.175364360728712654e+03 3.425922440813752856e-01 5.478217718444785070e-03
3.178539725089442527e+03 3.464420541144930255e-01 5.051185003696345883e-03
3.181718264814533086e+03 3.480130454609440260e-01 4.789750242066027550e-03
3.184899983079348658e+03 3.497859153219813888e-01 4.538556778645727770e-03
3.188084883062429071e+03 3.512440089320628678e-01 4.418647067032935999e-03
3.191272967945492383e+03 3.516537604784144566e-01 4.338720724941922367e-03
3.194464240913438971e+03 3.503759126922630918e-01 4.221621175582879887e-03
3.197658705154353811e+03 3.468421607717765420e-01 3.964406161423296784e-03
3.200856363859509202e+03 3.429956160858471659e-01 3.839143745507676581e-03
3.204057220223369768e+03 3.374374113954249355e-01 3.731642800521032567e-03
3.207261277443593826e+03 3.326919112525667521e-01 3.767467748221287917e-03
3.210468538721038840e+03 3.276061338445625526e-01 3.733627140926247014e-03
3.213679007259760965e+03 3.220901258852972848e-01 3.646656581108225631e-03
3.216892686267021418e+03 3.167034766197540097e-01 3.468394033553734521e-03
3.220109578953289656e+03 3.104595106322572406e-01 3.772751789543499559e-03
3.223329688532243836e+03 3.043777703435416870e-01 4.169378168306643422e-03
3.226553018220777176e+03 2.992695184360919525e-01 4.358457214990826833e-03
3.229779571238999324e+03 2.952987143818052718e-01 4.472611929789707501e-03
3.233009350810239084e+03 2.914447436647442657e-01 4.570906964288304168e-03
3.236242360161050783e+03 2.887910474020243257e-01 4.462337795078400067e-03
3.239478602521212906e+03 2.861664707106236771e-01 3.921561776801161213e-03
3.242718081123734919e+03 2.856814119678831587e-01 3.739643248333931504e-03
3.245960799204859995e+03 2.868255746423367114e-01 3.950662190155183016e-03
3.249206760004065927e+03 2.886724372532689098e-01 4.193025071678536768e-03
3.252455966764071036e+03 2.915051460138109451e-01 4.512777614305295802e-03
3.255708422730835991e+03 2.957747874289424206e-01 4.823231922883208962e-03
3.258964131153567905e+03 3.029341880836917134e-01 4.704223368544421108e-03
3.262223095284722604e+03 3.076540638138297590e-01 4.634898002485748729e-03
3.265485318380008266e+03 3.127053706783275988e-01 4.190564523720858268e-03
3.268750803698389518e+03 3.164308867865543440e-01 3.925523712541289199e-03
3.272019554502088795e+03 3.191363616070912457e-01 3.722808220714792556e-03
3.275291574056592253e+03 3.209523978947772527e-01 3.495820398036057416e-03
3.278566865630649772e+03 3.210033875768192879e-01 3.725892576614858471e-03
3.281845432496281319e+03 3.202083584305181474e-01 3.961405356539543857e-03
3.285127277928778767e+03 3.179801366053454648e-01 4.212747630394285576e-03
3.288412405206708627e+03 3.135664596856526098e-01 4.081001848729038338e-03
3.291700817611916591e+03 3.094825257791620210e-01 3.728332873471239348e-03
3.294992518429529355e+03 3.043852339039546662e-01 3.359849555063986783e-03
3.298287510947960072e+03 3.000280935191491638e-01 3.191292475537141002e-03
3.301585798458909267e+03 2.956097286746968145e-01 3.039628649229923242e-03
3.304887384257369376e+03 2.913696449099258401e-01 3.004160087047502530e-03
3.308192271641627485e+03 2.865050435377893834e-01 2.859795915544576395e-03
3.311500463913270323e+03 2.821797590507476028e-01 2.928417604863034658e-03
3.314811964377184722e+03 2.801229012566885945e-01 3.238210279525529506e-03
3.318126776341563072e+03 2.779876816621212332e-01 2.874380814608894826e-03
3.321444903117905596e+03 2.754243338391826890e-01 2.388449350895824504e-03
3.324766348021024896e+03 2.716072157229740269e-01 2.056801172561766554e-03
3.328091114369046863e+03 2.668129473218767700e-01 2.205872580470984862e-03
3.331419205483417045e+03 2.617796849007198445e-01 2.289691037132084248e-03
3.334750624688901553e+03 2.569244882492119908e-01 2.290871068218011414e-03
3.338085375313591612e+03 2.515647743375281076e-01 2.321793207097414252e-03
3.341423460688906289e+03 2.452159787652249956e-01 2.331299649817662571e-03
3.344764884149596128e+03 2.387367260489310083e-01 2.060230193810982154e-03
3.348109649033746791e+03 2.330349397224267260e-01 2.089628114699481308e-03
3.351457758682781787e+03 2.274398098822497660e-01 2.096632023616331296e-03
3.354809216441465651e+03 2.218669437030939828e-01 2.014818935339645831e-03
3.358164025657908041e+03 2.170813676139967952e-01 1.795937934547537067e-03
3.361522189683567376e+03 2.133491055582958373e-01 1.675174943664252620e-03
3.364883711873251741e+03 2.109490879915842110e-01 1.662294431893836374e-03
3.368248595585126168e+03 2.095623647737945849e-01 1.725508829491182285e-03
3.371616844180712633e+03 2.099647292943610521e-01 1.685803502130928675e-03
3.374988461024894150e+03 2.112696278939188155e-01 1.683798846256778217e-03
3.378363449485920228e+03 2.140705557798236458e-01 1.653898404195930632e-03
3.381741812935407324e+03 2.177818533943592927e-01 1.652919443470853445e-03
3.385123554748343849e+03 2.225221801897950547e-01 1.659960721838776507e-03
3.388508678303093347e+03 2.286336046812762202e-01 1.758779265621100447e-03
3.391897186981397681e+03 2.347714575704701045e-01 1.770619360884756292e-03
3.395289084168380214e+03 2.415837917421080339e-01 1.869118422572041936e-03
3.398684373252549449e+03 2.491167628247169530e-01 1.984004859129373695e-03
3.402083057625803121e+03 2.572337416082529082e-01 2.232695304825110284e-03
3.405485140683430018e+03 2.641673368242041797e-01 2.265034606536915716e-03
3.408890625824114522e+03 2.715627057796112798e-01 2.164798177305104956e-03
3.412299516449939802e+03 2.776274574073299140e-01 2.143799883314684469e-03
3.415711815966390986e+03 2.837031203472341057e-01 1.981414892452596117e-03
3.419127527782358356e+03 2.894365099649381934e-01 1.444201560171226670e-03
3.422546655310141887e+03 2.926971658999764636e-01 1.524911126090401246e-03
3.425969201965453522e+03 2.937597558627368932e-01 1.697733713828401001e-03
3.429395171167419903e+03 2.937006915294779752e-01 1.747640010957694995e-03
3.432824566338588284e+03 2.940490532528807766e-01 1.784133092401513554e-03
3.436257390904928343e+03 2.939018345437871549e-01 1.832281302274413239e-03
3.439693648295834464e+03 2.929504996337082279e-01 1.726093302197734009e-03
3.443133341944131189e+03 2.918100834339774630e-01 1.567250326066047710e-03
3.446576475286076402e+03 2.917019253626983444e-01 1.470313687111545831e-03
3.450023051761363604e+03 2.918565533537374468e-01 1.212556573175457885e-03
3.453473074813126004e+03 2.929552430078232184e-01 1.127228103867267302e-03
3.456926547887940615e+03 2.954049822093376965e-01 1.190085850817689970e-03
3.460383474435829612e+03 2.984771553606003214e-01 1.191242903876955396e-03
3.463843857910266706e+03 3.022213620596001515e-01 1.221611171017196983e-03
3.467307701768178049e+03 3.068297263771622152e-01 1.247492091362949109e-03
3.470775009469947236e+03 3.123044251099679758e-01 1.181609994464939565e-03
3.474245784479418489e+03 3.179392422657995598e-01 1.236745391098264483e-03
3.477720030263898934e+03 3.238128620873840791e-01 1.141727307478860231e-03
3.481197750294164052e+03 3.300884422225358050e-01 1.102800571006461866e-03
3.484678948044459503e+03 3.361748695695895850e-01 1.117614521541057584e-03
3.488163626992504760e+03 3.411355908558936223e-01 1.100690808630383228e-03
3.491651790619498570e+03 3.461019968736811503e-01 1.143482933064385440e-03
3.495143442410119405e+03 3.499750864837852804e-01 1.135473417715515080e-03
3.498638585852530468e+03 3.534624175496227649e-01 1.065564304501996715e-03
3.502137224438384237e+03 3.555673381844126069e-01 1.040413430887488682e-03
3.505639361662823831e+03 3.567756447856955671e-01 1.048654626067323627e-03
3.509145001024487556e+03 3.574460163149715819e-01 1.012645702439832814e-03
3.512654146025513455e+03 3.572853194616173456e-01 1.038982382180869994e-03
3.516166800171540217e+03 3.558707544819925128e-01 8.653286607198641895e-04
3.519682966971712631e+03 3.538551194440110459e-01 8.388386130190147354e-04
3.523202649938685681e+03 3.513172576024428118e-01 8.123884963215199494e-04
3.526725852588625457e+03 3.487890446923874177e-01 8.218129966575596487e-04
3.530252578441215064e+03 3.453668612522945991e-01 8.235432971696660847e-04
3.533782831019657806e+03 3.409555582124247919e-01 8.156274413041061889e-04
3.537316613850678550e+03 3.368445881197840719e-01 8.602787279576497997e-04
3.540853930464530094e+03 3.326580600173811297e-01 9.490798808413924720e-04
3.544394784394995895e+03 3.284744974017778096e-01 1.216502094449922007e-03
3.547939179179392340e+03 3.255319239569675061e-01 1.209855491277489091e-03
3.551487118358572843e+03 3.226521342965767980e-01 1.187377704020125060e-03
3.555038605476932389e+03 3.206584378501250998e-01 1.201475277734680765e-03
3.558593644082410719e+03 3.197533015150521574e-01 1.165100064478280430e-03
3.562152237726494150e+03 3.203680166149400210e-01 1.438519335863419841e-03
3.565714389964221937e+03 3.214211371027581032e-01 1.750768225997176904e-03
3.569280104354187188e+03 3.233457835738285380e-01 2.042498947142224689e-03
3.572849384458542772e+03 3.250105664718354603e-01 1.924085381110211823e-03
3.576422233843002232e+03 3.264487571845713920e-01 1.925700955530567672e-03
3.579998656076846601e+03 3.281812463283548809e-01 1.688293683472839521e-03
3.583578654732924406e+03 3.288080157131442749e-01 1.790153721702757508e-03
3.587162233387658489e+03 3.296578986005337941e-01 1.771615462711707530e-03
3.590749395621047370e+03 3.294932796177293954e-01 1.934608800966679254e-03
3.594340145016669794e+03 3.285156363440561167e-01 1.863408629496749423e-03
3.597934485161687462e+03 3.278443192025208286e-01 1.627191030814796732e-03
3.601532419646850485e+03 3.277508424409708576e-01 1.564025213444632332e-03
3.605133952066498296e+03 3.280637769650510682e-01 1.667493536321217398e-03
3.608739086018566013e+03 3.286330564674544430e-01 1.693007847878665560e-03
3.612347825104585809e+03 3.293613700761678920e-01 1.669178686907630714e-03
3.615960172929691907e+03 3.304475733440802587e-01 1.633605296624917333e-03
3.619576133102622407e+03 3.316578752195433188e-01 1.560855583835440161e-03
3.623195709235726554e+03 3.326012177167421147e-01 1.650932468244437068e-03
3.626818904944963379e+03 3.339091607910981696e-01 1.656250939310632700e-03
3.630445723849909427e+03 3.358707470097890835e-01 1.686840683367148456e-03
3.634076169573760581e+03 3.364458189588337422e-01 1.616066676334211713e-03
3.637710245743335690e+03 3.370571157705012921e-01 1.288970840086682253e-03
3.641347955989080219e+03 3.382005847575190183e-01 1.374191715784919051e-03
3.644989303945070333e+03 3.403694861462300270e-01 1.585636026399712137e-03
3.648634293249016537e+03 3.423264398100088202e-01 1.407108647488733650e-03
3.652282927542266862e+03 3.427135822726296022e-01 1.381548630484655824e-03
3.655935210469810499e+03 3.425537614706898326e-01 1.439312022438369839e-03
3.659591145680281443e+03 3.419356972788696325e-01 1.442333483314387280e-03
3.663250736825963031e+03 3.403266859433832781e-01 1.697117687426189479e-03
3.666913987562790226e+03 3.383152100457813560e-01 1.618418049449374006e-03
3.670580901550354156e+03 3.358874811091965840e-01 1.327579417397337569e-03
3.674251482451905758e+03 3.340966446659189293e-01 1.243501427742870142e-03
3.677925733934358959e+03 3.330118136681203822e-01 1.423027308410841889e-03
3.681603659668294313e+03 3.319419980821266547e-01 1.424602608573288624e-03
3.685285263327964003e+03 3.309335252611579903e-01 1.441475931454887617e-03
3.688970548591293209e+03 3.299880708240933713e-01 1.458037387756444059e-03
3.692659519139885560e+03 3.298323279134259267e-01 1.345142249871305413e-03
3.696352178659026777e+03 3.287586509748062213e-01 1.197597995521447944e-03
3.700048530837686940e+03 3.257349871486234782e-01 1.607946813882273063e-03
3.703748579368525952e+03 3.230860549230604728e-01 1.751541690706227145e-03
3.707452327947895355e+03 3.198512110782552598e-01 1.611402098713263101e-03
3.711159780275844696e+03 3.173368802380473475e-01 1.659994175830193644e-03
3.714870940056121526e+03 3.164868825349352877e-01 1.723442352408614603e-03
3.718585810996179134e+03 3.179496204501801038e-01 1.594156699938582356e-03
3.722304396807176545e+03 3.224831674807979165e-01 2.354865641050657259e-03
3.726026701203984885e+03 3.271572274979287487e-01 2.496481387236193679e-03
3.729752727905190113e+03 3.328680795211834686e-01 2.518122785200620911e-03
3.733482480633096657e+03 3.399230503929566161e-01 2.304218354292477972e-03
3.737215963113731050e+03 3.455406802501897467e-01 2.232831783854125497e-03
3.740953179076846027e+03 3.512463984866665556e-01 2.019828588638191130e-03
3.744694132255923705e+03 3.551512167240374329e-01 2.024816758154188330e-03
3.748438826388181042e+03 3.577586478351209021e-01 2.269933367481510519e-03
3.752187265214570289e+03 3.595642967800756762e-01 2.403879359675576474e-03
3.755939452479786269e+03 3.603474557362897901e-01 2.108926129715847121e-03
3.759695391932267285e+03 3.623079081192105422e-01 1.805327563933417341e-03
3.763455087324201031e+03 3.656440754671718141e-01 1.939565925776941735e-03
3.767218542411526414e+03 3.692151547006649603e-01 1.923625895327680038e-03
3.770985760953939007e+03 3.729942703444675267e-01 1.899803414732302359e-03
3.774756746714894234e+03 3.791339571024074928e-01 1.846058067388208325e-03
3.778531503461610555e+03 3.850476787916040644e-01 1.773116313971123334e-03
3.782310034965073100e+03 3.909038697604874102e-01 1.817334333222768916e-03
3.786092345000039586e+03 3.969024423687468328e-01 1.699558545169126741e-03
3.789878437345040766e+03 4.041888309833207571e-01 1.764324600754499589e-03
3.793668315782387253e+03 4.130655450822799946e-01 1.861308047398666692e-03
3.797461984098170888e+03 4.196284081517320796e-01 1.866597808413473537e-03
3.801259446082270188e+03 4.262838195993277624e-01 1.860189997850000701e-03
3.805060705528353537e+03 4.330646044020887153e-01 1.818622028489584380e-03
3.808865766233883278e+03 4.388883812251201388e-01 1.860667649437980700e-03
3.812674632000118436e+03 4.452333372333937000e-01 1.757003741581575264e-03
3.816487306632119726e+03 4.504196040636976872e-01 1.843202962430855662e-03
3.820303793938753188e+03 4.550481555675751633e-01 1.782712465801877203e-03
3.824124097732693372e+03 4.601249215385856961e-01 1.959778115853403821e-03
3.827948221830427428e+03 4.646273854920474622e-01 2.316649174182741633e-03
3.831776170052258749e+03 4.689114822166342011e-01 2.254595162468544557e-03
3.835607946222312421e+03 4.718695388894583731e-01 2.210580750457565632e-03
3.839443554168536139e+03 4.738988355217915172e-01 2.448045522892142601e-03
3.843282997722705659e+03 4.766336624800478483e-01 2.533717018819390925e-03
3.847126280720429804e+03 4.805531920105111654e-01 2.589324916746141292e-03
3.850973407001151372e+03 4.840143922324097181e-01 2.548704045074829880e-03
3.854824380408153957e+03 4.895445812060086888e-01 2.259855742186712545e-03
3.858679204788563311e+03 4.967741237005935950e-01 1.937143412008252930e-03
3.862537883993353262e+03 5.071585631436430486e-01 2.094153828156635790e-03
3.866400421877347981e+03 5.200125867121269119e-01 2.101344619259243925e-03
3.870266822299226533e+03 5.336483143284838082e-01 2.121950542224199186e-03
3.874137089121526969e+03 5.494029423967496939e-01 1.869180381108754164e-03
3.878011226210649966e+03 5.661593662155181006e-01 1.593727993988283687e-03
3.881889237436861549e+03 5.827773682344392636e-01 1.557923864126400763e-03
3.885771126674299921e+03 5.994943355989339473e-01 1.545071003435771057e-03
3.889656897800975457e+03 6.148818656175016883e-01 1.370123827299282249e-03
3.893546554698777527e+03 6.296478986856683946e-01 1.318483028125368856e-03
3.897440101253477678e+03 6.441222335315300862e-01 1.249330148883736604e-03
3.901337541354732366e+03 6.581347339958761866e-01 1.036193295286897721e-03
3.905238878896088409e+03 6.710682665264562363e-01 9.806996034612206880e-04
3.909144117774985716e+03 6.816390014522316632e-01 9.814965069967363648e-04
3.913053261892762293e+03 6.904351841733176176e-01 1.218691971354120013e-03
3.916966315154656058e+03 6.983495474993036689e-01 1.565275459199864851e-03
3.920883281469812118e+03 7.058259579553677332e-01 1.517973026715546594e-03
3.924804164751283224e+03 7.123652817930922199e-01 1.205091794084384117e-03
3.928728968916035683e+03 7.195184075315097516e-01 1.164839082079772645e-03
3.932657697884953450e+03 7.266058864413330598e-01 1.139857163717594149e-03
3.936590355582839493e+03 7.343180754933357202e-01 1.176474403217283833e-03
3.940526945938423523e+03 7.415819882956048437e-01 1.208134631505168284e-03
3.944467472884363360e+03 7.493862939599233997e-01 1.243168919640889490e-03
3.948411940357249023e+03 7.569645075696331826e-01 1.321673256640921177e-03
3.952360352297607733e+03 7.638411954749760868e-01 1.304999946069446354e-03
3.956312712649906643e+03 7.696204415317918768e-01 1.296342479767040572e-03
3.960269025362557841e+03 7.745931863068664658e-01 1.255666996862365992e-03
3.964229294387921527e+03 7.782139973997896920e-01 1.447439030306642629e-03
3.968193523682310570e+03 7.810311446146238623e-01 1.699104958725868334e-03
3.972161717205994591e+03 7.829128828760346659e-01 1.480121272783686088e-03
3.976133878923201792e+03 7.862518894091139465e-01 1.857811324238361431e-03
3.980110012802126221e+03 7.895831474943526551e-01 2.194030364718968593e-03
3.984090122814929600e+03 7.910022684050325159e-01 2.146036089611710017e-03
3.988074212937745870e+03 7.909165650221551269e-01 2.136313746666642071e-03
3.992062287150684824e+03 7.892924712750862826e-01 2.173588909213384438e-03
3.996054349437837118e+03 7.873436254039939408e-01 2.136914436571367773e-03
4.000050403787276082e+03 7.840315729985535276e-01 2.202383790383179076e-03
4.004050454191064546e+03 7.802533379972608207e-01 2.231619500861232487e-03
4.008054504645257111e+03 7.759499856225188230e-01 2.224163032645679050e-03
4.012062559149903791e+03 7.709819984713136565e-01 2.174974142521294770e-03
4.016074621709055009e+03 7.649577995103831185e-01 1.876651312045501431e-03
4.020090696330765240e+03 7.599695131653388946e-01 2.037756661560524186e-03
4.024110787027097558e+03 7.541869134428362820e-01 2.171453278422062587e-03
4.028134897814125907e+03 7.492969870732559823e-01 2.266558358394787052e-03
4.032163032711941469e+03 7.465341986758871062e-01 2.385506506886593374e-03
4.036195195744654484e+03 7.437569543602042810e-01 2.392602127992022980e-03
4.040231390940400615e+03 7.396961204175039883e-01 2.383501659871588036e-03
4.044271622331342314e+03 7.344557854444198064e-01 2.390094594186931588e-03
4.048315893953675186e+03 7.292067630414815760e-01 2.412099114615611720e-03
4.052364209847629809e+03 7.268243498646124179e-01 2.405761135749319955e-03
4.056416574057479011e+03 7.254021357681452731e-01 2.490065343656942386e-03
4.060472990631537868e+03 7.253141415180006657e-01 2.426381271442512588e-03
4.064533463622170530e+03 7.270563710141874081e-01 2.409814718820543593e-03
4.068597997085794304e+03 7.296779278017233583e-01 2.351048831740688155e-03
4.072666595082881486e+03 7.340891476418970329e-01 2.413193007887269939e-03
4.076739261677965715e+03 7.390778761607812442e-01 2.585370453310453440e-03
4.080816000939644709e+03 7.446113339989073321e-01 2.990045409729657523e-03
4.084896816940585722e+03 7.491609903684508520e-01 2.982493658757739887e-03
