# starting wavelength: 3681.830
# ending wavelength: 7449.070
# wav flux eflux
3.685285263327964003e+03 7.277107941600655661e-01 9.392735002790263826e-03
3.688970548591293209e+03 7.438562653175206929e-01 7.583456299302168691e-03
3.692659519139885560e+03 7.566720319030226793e-01 5.726469626573153261e-03
3.696352178659026777e+03 7.683853830852067635e-01 4.524485109435746021e-03
3.700048530837686940e+03 7.784213939052648801e-01 3.838242912936053533e-03
3.703748579368525952e+03 7.859246935308499271e-01 3.064441686395182225e-03
3.707452327947895355e+03 7.907531996179146816e-01 2.833999655531381154e-03
3.711159780275844696e+03 7.950171950278613897e-01 2.272451604078516794e-03
3.714870940056121526e+03 7.980433161655167140e-01 1.937350889433543969e-03
3.718585810996179134e+03 8.002295014135214490e-01 1.721884724505409357e-03
3.722304396807176545e+03 8.016861178763818874e-01 1.578659467680592655e-03
3.726026701203984885e+03 8.025825092057256027e-01 1.558091780344988009e-03
3.729752727905190113e+03 8.025841022803230640e-01 1.470201386086819823e-03
3.733482480633096657e+03 8.017287064724911705e-01 1.399166731302594951e-03
3.737215963113731050e+03 7.995152253259795172e-01 1.311007285426455575e-03
3.740953179076846027e+03 7.964925842130659017e-01 1.242426386061791944e-03
3.744694132255923705e+03 7.925634323218195831e-01 1.208254123122735066e-03
3.748438826388181042e+03 7.878189894696445705e-01 1.241811846153007253e-03
3.752187265214570289e+03 7.832228431182230999e-01 1.272696145099096827e-03
3.755939452479786269e+03 7.777488330092643398e-01 1.398296483272810052e-03
3.759695391932267285e+03 7.720069621135005056e-01 1.662495790507946374e-03
3.763455087324201031e+03 7.666903283195174446e-01 1.789288299865216198e-03
3.767218542411526414e+03 7.614770956567291638e-01 1.964251190545703973e-03
3.770985760953939007e+03 7.570445010713512390e-01 2.012702142087134920e-03
3.774756746714894234e+03 7.528525996070516424e-01 1.996069745720385671e-03
3.778531503461610555e+03 7.500669340734451573e-01 1.835885174298904510e-03
3.782310034965073100e+03 7.485524645757771767e-01 1.637377570646601777e-03
3.786092345000039586e+03 7.484262427347392332e-01 1.545093107251509310e-03
3.789878437345040766e+03 7.492185256101614454e-01 1.515660870043855158e-03
3.793668315782387253e+03 7.519050605388658548e-01 1.587838306973843750e-03
3.797461984098170888e+03 7.561278757614905421e-01 1.661707956659959047e-03
3.801259446082270188e+03 7.612373266544896211e-01 1.686103906607908749e-03
3.805060705528353537e+03 7.682054838648437745e-01 1.841948047481238495e-03
3.808865766233883278e+03 7.763909061366645048e-01 1.861019190996720824e-03
3.812674632000118436e+03 7.854176589194608038e-01 1.855871666584579457e-03
3.816487306632119726e+03 7.955490349618328239e-01 1.727606489156293182e-03
3.820303793938753188e+03 8.058880225047040380e-01 1.218464086691713102e-03
3.824124097732693372e+03 8.161408962030104464e-01 9.012612917841388320e-04
3.827948221830427428e+03 8.256587638883626790e-01 8.711252719811648495e-04
3.831776170052258749e+03 8.344592393754316495e-01 9.104751511746691367e-04
3.835607946222312421e+03 8.429857471457860019e-01 9.205310508067142362e-04
3.839443554168536139e+03 8.511142389942470965e-01 9.296296462481468603e-04
3.843282997722705659e+03 8.578493390051855627e-01 8.781976206234736685e-04
3.847126280720429804e+03 8.649625101353027867e-01 9.771948034085990026e-04
3.850973407001151372e+03 8.712561123492627013e-01 9.980762360524864530e-04
3.854824380408153957e+03 8.765577991191640939e-01 9.957861269300385520e-04
3.858679204788563311e+03 8.808033450063632586e-01 1.109268713808645931e-03
3.862537883993353262e+03 8.844349382896486977e-01 1.146958637264136214e-03
3.866400421877347981e+03 8.881396358802824409e-01 1.188373114392790976e-03
3.870266822299226533e+03 8.909582777426175992e-01 1.259007352712083203e-03
3.874137089121526969e+03 8.932499703279603853e-01 1.341130496247121577e-03
3.878011226210649966e+03 8.947880191809708395e-01 1.352427686163579744e-03
3.881889237436861549e+03 8.969806317474761093e-01 1.341893795164845896e-03
3.885771126674299921e+03 8.989580885768883034e-01 1.286902623571514878e-03
3.889656897800975457e+03 9.010221909252094097e-01 1.285060332416033480e-03
3.893546554698777527e+03 9.027821273499970767e-01 1.245142971647108339e-03
3.897440101253477678e+03 9.050834268938833249e-01 1.283622765906315254e-03
3.901337541354732366e+03 9.074132862199171257e-01 1.324149490407191578e-03
3.905238878896088409e+03 9.091511739127938752e-01 1.338190606677085040e-03
3.909144117774985716e+03 9.109409152330008030e-01 1.366359394437371803e-03
3.913053261892762293e+03 9.119195191564101188e-01 1.367716091076509339e-03
3.916966315154656058e+03 9.127061307949941860e-01 1.334520300826468834e-03
3.920883281469812118e+03 9.128587572191264599e-01 1.290890590105840327e-03
3.924804164751283224e+03 9.127584432551230087e-01 1.222797388102436766e-03
3.928728968916035683e+03 9.117159790625160021e-01 1.201399431219280249e-03
3.932657697884953450e+03 9.094510353452771589e-01 1.416769068172875345e-03
3.936590355582839493e+03 9.074989339007948352e-01 1.413572519081275234e-03
3.940526945938423523e+03 9.045027652503735416e-01 1.293550673516038162e-03
3.944467472884363360e+03 9.014284515269654907e-01 1.203350294337389480e-03
3.948411940357249023e+03 8.981744277291351386e-01 1.120549365767895119e-03
3.952360352297607733e+03 8.957126316884875816e-01 9.688290964789987711e-04
3.956312712649906643e+03 8.926286722424606745e-01 1.199284006289780226e-03
3.960269025362557841e+03 8.899283509729458697e-01 1.469414370390326966e-03
3.964229294387921527e+03 8.882121932554483124e-01 1.438471396194270727e-03
3.968193523682310570e+03 8.878071243773969501e-01 1.438157411109819385e-03
3.972161717205994591e+03 8.883618582064328750e-01 1.439520687187365944e-03
3.976133878923201792e+03 8.893127030572760550e-01 1.416951634225103920e-03
3.980110012802126221e+03 8.914483466904896680e-01 1.450080224450851643e-03
3.984090122814929600e+03 8.952226838303514178e-01 1.536036633985494483e-03
3.988074212937745870e+03 8.997866844534763153e-01 1.589596530807308675e-03
3.992062287150684824e+03 9.049912715348183978e-01 1.661317835466157239e-03
3.996054349437837118e+03 9.111224942046981523e-01 1.651681597080329736e-03
4.000050403787276082e+03 9.180165144429358604e-01 1.604055544259002731e-03
4.004050454191064546e+03 9.252880414005976162e-01 1.543707844153269487e-03
4.008054504645257111e+03 9.321980488246915941e-01 1.536442832709899358e-03
4.012062559149903791e+03 9.391492064505692072e-01 1.527339514232052293e-03
4.016074621709055009e+03 9.456279714163460248e-01 1.537597043368280460e-03
4.020090696330765240e+03 9.519414938144727945e-01 1.621594135136278326e-03
4.024110787027097558e+03 9.566038968482273308e-01 1.451105226321966002e-03
4.028134897814125907e+03 9.614826867964371138e-01 1.289285407944590258e-03
4.032163032711941469e+03 9.674447033783974970e-01 1.661652166238546157e-03
4.036195195744654484e+03 9.723948844580294626e-01 1.400336658876190441e-03
4.040231390940400615e+03 9.756893892789606504e-01 1.328930618680531370e-03
4.044271622331342314e+03 9.767019700922536796e-01 1.766049132491368575e-03
4.048315893953675186e+03 9.776608429915045750e-01 1.777726581713816962e-03
4.052364209847629809e+03 9.794894374067625309e-01 1.790108008060260899e-03
4.056416574057479011e+03 9.808542171143139754e-01 1.892456799584835885e-03
4.060472990631537868e+03 9.820781165899288290e-01 1.898820933830475252e-03
4.064533463622170530e+03 9.831209983956179510e-01 1.739989642568047544e-03
4.068597997085794304e+03 9.856815034789530028e-01 1.756668031456524960e-03
4.072666595082881486e+03 9.891232728639469673e-01 1.758462344680110324e-03
4.076739261677965715e+03 9.930167330231234324e-01 1.788398495830333243e-03
4.080816000939644709e+03 9.980796438281642757e-01 2.106423422471637164e-03
4.084896816940585722e+03 1.002587471824723186e+00 1.994847530837434019e-03
4.088981713757527814e+03 1.006855554216968374e+00 1.816225778355753636e-03
4.093070695471286854e+03 1.010151434549873883e+00 1.744265702205013589e-03
4.097163766166759160e+03 1.011864516166322447e+00 1.610153521080587551e-03
4.101260929932927866e+03 1.010581206867066761e+00 1.969694924072257648e-03
4.105362190862862008e+03 1.008057294606644394e+00 1.909814235740393698e-03
4.109467553053726078e+03 1.005798812643074358e+00 1.869177831764997451e-03
4.113577020606780934e+03 1.003978387187720811e+00 1.854506565859552697e-03
4.117690597627389252e+03 1.001152408801400773e+00 1.835543549528047659e-03
4.121808288225018259e+03 9.975920027516023136e-01 1.791039202139338383e-03
4.125930096513244280e+03 9.939965986151908517e-01 1.542256891282012266e-03
4.130056026609759101e+03 9.919332654339586552e-01 1.796113910366887566e-03
4.134186082636369974e+03 9.903690793087115418e-01 1.474268490775345860e-03
4.138320268719007800e+03 9.876925016230326815e-01 1.542323206384516423e-03
4.142458588987728035e+03 9.850027134657948213e-01 1.737629562883600924e-03
4.146601047576717065e+03 9.827808070131037743e-01 1.704510942712903192e-03
4.150747648624294925e+03 9.811942001433818783e-01 1.679571675782404573e-03
4.154898396272920763e+03 9.802329324845906466e-01 1.738712035737754449e-03
4.159053294669195566e+03 9.800417576491476934e-01 1.923397965372341395e-03
4.163212347963865795e+03 9.788302446883335728e-01 1.922367341504314106e-03
4.167375560311830668e+03 9.781564432133973419e-01 1.881858437762954717e-03
4.171542935872143971e+03 9.778606226940145252e-01 1.706575543208097533e-03
4.175714478808017702e+03 9.774812876692114960e-01 1.812219931016801309e-03
4.179890193286827525e+03 9.764332025812132443e-01 1.897737736876482393e-03
4.184070083480115500e+03 9.767206981527091214e-01 1.807021814085254738e-03
4.188254153563597356e+03 9.783259830597417217e-01 1.810784598111457458e-03
4.192442407717161586e+03 9.808842719129216015e-01 1.907775100481983637e-03
4.196634850124880359e+03 9.835133276349418141e-01 1.912788175212058088e-03
4.200831484975006788e+03 9.863231621925696579e-01 1.863694166238466727e-03
4.205032316459983122e+03 9.905211336928120280e-01 1.837444820195244764e-03
4.209237348776444378e+03 9.959633995627192871e-01 1.426845096066509068e-03
4.213446586125221984e+03 1.000845213651294197e+00 1.491071567212303231e-03
4.217660032711349231e+03 1.005446355706037798e+00 1.583839719681529945e-03
4.221877692744061278e+03 1.010073004105125127e+00 1.450993849072824884e-03
4.226099570436806971e+03 1.015246266677458653e+00 1.593221918946556136e-03
4.230325670007245208e+03 1.019701498237642889e+00 1.673329808293029606e-03
4.234555995677254032e+03 1.024345116326994765e+00 1.943403151851303681e-03
4.238790551672932452e+03 1.028160909825161617e+00 1.761100961966488056e-03
4.243029342224606808e+03 1.030649917528767556e+00 1.618405927250532710e-03
4.247272371566832589e+03 1.032177174795134267e+00 1.631760421287459023e-03
4.251519643938400804e+03 1.032336027925001343e+00 2.067224308984774717e-03
4.255771163582340705e+03 1.032121964559287175e+00 2.093076054892588876e-03
4.260026934745924336e+03 1.031936080496911767e+00 1.729916239834855714e-03
4.264286961680671993e+03 1.032375331207293634e+00 1.560133800221283123e-03
4.268551248642354039e+03 1.033833695100566885e+00 1.645812919614855372e-03
4.272819799890998183e+03 1.035932002812423702e+00 1.643331229500797968e-03
4.277092619690890388e+03 1.038779202846943583e+00 1.645871715526429045e-03
4.281369712310583054e+03 1.043104509900009580e+00 1.616588945859368008e-03
4.285651082022895025e+03 1.048499651929689636e+00 1.469569293384493779e-03
4.289936733104918858e+03 1.054777851353871254e+00 1.353222657668639228e-03
4.294226669838025373e+03 1.060681737909309197e+00 1.312448339343300985e-03
4.298520896507864563e+03 1.067076013001456936e+00 1.235157420015728542e-03
4.302819417404373780e+03 1.074060505492662410e+00 1.360677362076322290e-03
4.307122236821779552e+03 1.081602695456645780e+00 1.518837483390623631e-03
4.311429359058603040e+03 1.088706017218695976e+00 1.517235205292291654e-03
4.315740788417662770e+03 1.096016369768328280e+00 1.272061366937782137e-03
4.320056529206081905e+03 1.102642739267359673e+00 1.493255463306618954e-03
4.324376585735290064e+03 1.109264675303513803e+00 1.758076373041173816e-03
4.328700962321026054e+03 1.116077056959306590e+00 1.783241254675640899e-03
4.333029663283348782e+03 1.123008207262848002e+00 1.369803960481978189e-03
4.337362692946633615e+03 1.131289970162729697e+00 1.402020647648292550e-03
4.341700055639581478e+03 1.140278723542640593e+00 1.491020703008183370e-03
4.346041755695222491e+03 1.149989942283470734e+00 1.565084717229203552e-03
4.350387797450919606e+03 1.160195932139456376e+00 1.406121389035088843e-03
4.354738185248371337e+03 1.169900570575688858e+00 1.350253632450876869e-03
4.359092923433621763e+03 1.179636492727148100e+00 1.304830331076702390e-03
4.363452016357056891e+03 1.189440122638119268e+00 1.173033188765128286e-03
4.367815468373414660e+03 1.197845481135474177e+00 1.352517975125365349e-03
4.372183283841789489e+03 1.206396741753891444e+00 1.333411589882968701e-03
4.376555467125633186e+03 1.214193907486439183e+00 1.221358878299184112e-03
4.380932022592760404e+03 1.221397113204657492e+00 1.121809307964737566e-03
4.385312954615354101e+03 1.229108937181616845e+00 1.119826288358799276e-03
4.389698267569970994e+03 1.236978955949438408e+00 1.213270984854859574e-03
4.394087965837542470e+03 1.245473969282630211e+00 1.233679437993458671e-03
4.398482053803381859e+03 1.254240726054117516e+00 1.294960079838098103e-03
4.402880535857186260e+03 1.263242447380184430e+00 1.218443919396351629e-03
4.407283416393044718e+03 1.272747270403073561e+00 1.257116370163962162e-03
4.411690699809440048e+03 1.282468593078762265e+00 1.512960837103593300e-03
4.416102390509250654e+03 1.291894647158003728e+00 1.653027362310592174e-03
4.420518492899761441e+03 1.300986094718377339e+00 1.465707981763671782e-03
4.424939011392662906e+03 1.308514274249901188e+00 1.417934872367350050e-03
4.429363950404056595e+03 1.315355285602413549e+00 1.316210241288886824e-03
4.433793314354462382e+03 1.320684220682254884e+00 1.375127107930433331e-03
4.438227107668818462e+03 1.324392655644755168e+00 1.442544481582610843e-03
4.442665334776488635e+03 1.327506202091587317e+00 1.406154386756813812e-03
4.447108000111265937e+03 1.329455345009671996e+00 1.318622145573663347e-03
4.451555108111379013e+03 1.330250309366905803e+00 8.455207258563588466e-04
4.456006663219492111e+03 1.331676872916446319e+00 1.065195326128880095e-03
4.460462669882713271e+03 1.332473414558013713e+00 1.010178850525806065e-03
4.464923132552597053e+03 1.332181335381048326e+00 9.624156525472880083e-04
4.469388055685150903e+03 1.331446064020749720e+00 8.240364735468066896e-04
4.473857443740837880e+03 1.329517905552859425e+00 9.061275917826450838e-04
4.478331301184580298e+03 1.327228259167308799e+00 9.034316337027733113e-04
4.482809632485766087e+03 1.323848760869339669e+00 8.726937628250156257e-04
4.487292442118253348e+03 1.319641873139594468e+00 8.528466993742931648e-04
4.491779734560373072e+03 1.314676548970803216e+00 9.120623738366790030e-04
4.496271514294934605e+03 1.309614373182819591e+00 9.979794587457596622e-04
4.500767785809231100e+03 1.304703575890946876e+00 9.983561812358884326e-04
4.505268553595042249e+03 1.299690521987709957e+00 1.002563186721972888e-03
4.509773822148638828e+03 1.294682656298722145e+00 9.766739950354741059e-04
4.514283595970789065e+03 1.289989553225730834e+00 9.765018100802792854e-04
4.518797879566761367e+03 1.285012554978629762e+00 9.718218739243757827e-04
4.523316677446328868e+03 1.279812693820834735e+00 9.600883110031663628e-04
4.527839994123776705e+03 1.274892585610972295e+00 9.536253118743253472e-04
4.532367834117902021e+03 1.269709469282996661e+00 9.432511186476192754e-04
4.536900201952022144e+03 1.264678529528808104e+00 1.017203768293728060e-03
4.541437102153975502e+03 1.259708441717084293e+00 1.057185598156364483e-03
4.545978539256130716e+03 1.253312843168726376e+00 1.004203306704958909e-03
4.550524517795388419e+03 1.245394112380457941e+00 9.928468258309202776e-04
4.555075042313184895e+03 1.235830634598255040e+00 1.023830645668508338e-03
4.559630117355500261e+03 1.224801983601938149e+00 1.150655261436688915e-03
4.564189747472856652e+03 1.213888346670838780e+00 1.145814934193298230e-03
4.568753937220330954e+03 1.202420048247351270e+00 1.258979623840146772e-03
4.573322691157552981e+03 1.190757771406631749e+00 1.410474399759951807e-03
4.577896013848711846e+03 1.179027486066237751e+00 1.344199784954838023e-03
4.582473909862562323e+03 1.168538527337895205e+00 1.038101086369839056e-03
4.587056383772426670e+03 1.160125643895258740e+00 1.148032411101228365e-03
4.591643440156200086e+03 1.152899166156375665e+00 1.207366620132124552e-03
4.596235083596357981e+03 1.147511344027415614e+00 1.204323822122749200e-03
4.600831318679955984e+03 1.143254186191260180e+00 1.071025463074383064e-03
4.605432149998637215e+03 1.140314274799096417e+00 9.347104663752372035e-04
4.610037582148637739e+03 1.138069743167266612e+00 9.138767198830390201e-04
4.614647619730787483e+03 1.135848474213843717e+00 9.102607717162238855e-04
4.619262267350520233e+03 1.133845896168055534e+00 8.998667611633381219e-04
4.623881529617872729e+03 1.132103422033563511e+00 9.119122008698156466e-04
4.628505411147491941e+03 1.130620703666634697e+00 9.128679489437182409e-04
4.633133916558640522e+03 1.128633213348271269e+00 9.134621049402355140e-04
4.637767050475200449e+03 1.126451772108100879e+00 9.717549576580013140e-04
4.642404817525677572e+03 1.124039163055708279e+00 9.647057931269906791e-04
4.647047222343205249e+03 1.121619483684593188e+00 9.332115834185077119e-04
4.651694269565549803e+03 1.120009573018992732e+00 8.917416017741553944e-04
4.656345963835116891e+03 1.117692097374194837e+00 8.890240604285807365e-04
4.661002309798953320e+03 1.115211972716695588e+00 8.637591372557382099e-04
4.665663312108753416e+03 1.112477684698690350e+00 7.639179094857762118e-04
4.670328975420864481e+03 1.110187810707645939e+00 8.596860322388346709e-04
4.674999304396286789e+03 1.108351895763376227e+00 7.373723238848172139e-04
4.679674303700684504e+03 1.105435504225906529e+00 8.023634544239281220e-04
4.684353978004386590e+03 1.102269812791560666e+00 1.021830997584643628e-03
4.689038331982392265e+03 1.098871104465740656e+00 1.070828299135406564e-03
4.693727370314376458e+03 1.096357125649386477e+00 1.062967495778969909e-03
4.698421097684692540e+03 1.093991513315422548e+00 1.072194970525534776e-03
4.703119518782378691e+03 1.091442200078884595e+00 1.049732930900407809e-03
4.707822638301162442e+03 1.089294176502845435e+00 1.162496083763872633e-03
4.712530460939465229e+03 1.087250543615539744e+00 1.210594252079176926e-03
4.717242991400406027e+03 1.084872235929960738e+00 1.051702111053238282e-03
4.721960234391808626e+03 1.081934367290387167e+00 1.018143044459155974e-03
4.726682194626201635e+03 1.078390580558388212e+00 1.155360515649964592e-03
4.731408876820829391e+03 1.074856072808500373e+00 1.245224576193433748e-03
4.736140285697651962e+03 1.071489806731233063e+00 1.227346838712844654e-03
4.740876425983350600e+03 1.068503297646021588e+00 1.226697285283258722e-03
4.745617302409335934e+03 1.065615300946481492e+00 1.044068567286532846e-03
4.750362919711747054e+03 1.063575800522088777e+00 8.403439355818186291e-04
4.755113282631459697e+03 1.062959505276001471e+00 1.108572956256548715e-03
4.759868395914093526e+03 1.063339877029460423e+00 1.152549640755528388e-03
4.764628264310008490e+03 1.064059187925589844e+00 7.592826613977520086e-04
4.769392892574320285e+03 1.064160940168960012e+00 7.038966289422953502e-04
4.774162285466896719e+03 1.063991736633401741e+00 6.903070917293835590e-04
4.778936447752364984e+03 1.063129554332344906e+00 7.216113924569051222e-04
4.783715384200118933e+03 1.062116884688833585e+00 7.076050456528446084e-04
4.788499099584319993e+03 1.060329536050473864e+00 7.579513802181452519e-04
4.793287598683906253e+03 1.057610757935002699e+00 8.065471750702294870e-04
4.798080886282591564e+03 1.054121238183935994e+00 8.509743837630568157e-04
