# starting wavelength: 3681.830
# ending wavelength: 7449.070
# wav flux eflux
3.685285263327964003e+03 8.712137842325107240e-01 1.319872018866061203e-02
3.688970548591293209e+03 8.454100195999678657e-01 9.991050626403060950e-03
3.692659519139885560e+03 8.256164344764743701e-01 7.326850518725707556e-03
3.696352178659026777e+03 8.127977947163987915e-01 6.508023117298898826e-03
3.700048530837686940e+03 8.040687841025971894e-01 5.859190878211879318e-03
3.703748579368525952e+03 7.975317052061619005e-01 5.163210191847951262e-03
3.707452327947895355e+03 7.920275370811596938e-01 4.362447091361216535e-03
3.711159780275844696e+03 7.871007199014110611e-01 3.497874662249893154e-03
3.714870940056121526e+03 7.832259909917574925e-01 3.121938507161495409e-03
3.718585810996179134e+03 7.796681863818478719e-01 2.759529843721225412e-03
3.722304396807176545e+03 7.763838788708989913e-01 2.517805239618341791e-03
3.726026701203984885e+03 7.738700293772301508e-01 2.235036880309038045e-03
3.729752727905190113e+03 7.716304672110588792e-01 2.051134684097796236e-03
3.733482480633096657e+03 7.699522819040439670e-01 1.897014887100127766e-03
3.737215963113731050e+03 7.687888977412711267e-01 1.774552065293158237e-03
3.740953179076846027e+03 7.676716064521525995e-01 1.718013947449460689e-03
3.744694132255923705e+03 7.666596121167597033e-01 1.741346427725199179e-03
3.748438826388181042e+03 7.665836543635505818e-01 1.684594906711076858e-03
3.752187265214570289e+03 7.667854058829165487e-01 1.666469144066675973e-03
3.755939452479786269e+03 7.672359227609664156e-01 1.554831186076534614e-03
3.759695391932267285e+03 7.682668572979965971e-01 1.560184693758475197e-03
3.763455087324201031e+03 7.695534444132174912e-01 1.654696301692226311e-03
3.767218542411526414e+03 7.711518829251232665e-01 1.760735443551528874e-03
3.770985760953939007e+03 7.722907485028724928e-01 1.749439845355766493e-03
3.774756746714894234e+03 7.738587810026026359e-01 1.731036459090800348e-03
3.778531503461610555e+03 7.757029733233967717e-01 1.717750609307456796e-03
3.782310034965073100e+03 7.781205274217634082e-01 1.754932747598044298e-03
3.786092345000039586e+03 7.806111583717634250e-01 1.561134621737237695e-03
3.789878437345040766e+03 7.826937752895642975e-01 1.538384784549854181e-03
3.793668315782387253e+03 7.843679360427869840e-01 1.544890443462694669e-03
3.797461984098170888e+03 7.855291096327212674e-01 1.738160821644262489e-03
3.801259446082270188e+03 7.866054124183833318e-01 2.011438087427824904e-03
3.805060705528353537e+03 7.864271329676705280e-01 2.125664290619211187e-03
3.808865766233883278e+03 7.878472538269384318e-01 1.983507752480256296e-03
3.812674632000118436e+03 7.898785053387695765e-01 1.823893840337693136e-03
3.816487306632119726e+03 7.935655720927309309e-01 1.823247055736905388e-03
3.820303793938753188e+03 7.977887201317950261e-01 1.804830921136399034e-03
3.824124097732693372e+03 8.026789383645912546e-01 1.785295970744320976e-03
3.827948221830427428e+03 8.079076804971188075e-01 1.760370542178952592e-03
3.831776170052258749e+03 8.141265503520204172e-01 1.734413596516140056e-03
3.835607946222312421e+03 8.213443663376982506e-01 1.789749249491851425e-03
3.839443554168536139e+03 8.292863399030243610e-01 1.859397457857492201e-03
3.843282997722705659e+03 8.378088733501485308e-01 1.951036050385364460e-03
3.847126280720429804e+03 8.470962024928868628e-01 2.089328256366995880e-03
3.850973407001151372e+03 8.568609041390155001e-01 2.044154102565533173e-03
3.854824380408153957e+03 8.655635948784551337e-01 1.923423278202343167e-03
3.858679204788563311e+03 8.738341393668453971e-01 1.709343982538681379e-03
3.862537883993353262e+03 8.810372681659438543e-01 1.580958941999462738e-03
3.866400421877347981e+03 8.867019454558160430e-01 1.637835133814362614e-03
3.870266822299226533e+03 8.908094792017291486e-01 1.656116601285577764e-03
3.874137089121526969e+03 8.941733577217964024e-01 1.634554370791860408e-03
3.878011226210649966e+03 8.967184413404535315e-01 1.625130340957896052e-03
3.881889237436861549e+03 8.974188939196178216e-01 1.629964072702611531e-03
3.885771126674299921e+03 8.960447572071945643e-01 1.563866825526436617e-03
3.889656897800975457e+03 8.932866941922639192e-01 1.416807620945144224e-03
3.893546554698777527e+03 8.899837163400814433e-01 1.642189731907527702e-03
3.897440101253477678e+03 8.846125441669084877e-01 1.658870240307819656e-03
3.901337541354732366e+03 8.782479463331129832e-01 1.848459735722798869e-03
3.905238878896088409e+03 8.719761371736377553e-01 1.914174555708455421e-03
3.909144117774985716e+03 8.640207696969898210e-01 2.229367230743190074e-03
3.913053261892762293e+03 8.557948839842189903e-01 2.430434654741271596e-03
3.916966315154656058e+03 8.472601429744451851e-01 2.212473140724329716e-03
3.920883281469812118e+03 8.409652497168691454e-01 2.206123016068330632e-03
3.924804164751283224e+03 8.357168918898130183e-01 2.126752440168462859e-03
3.928728968916035683e+03 8.323159126311596712e-01 2.098823459584426600e-03
3.932657697884953450e+03 8.304715472719689240e-01 2.043780769959841793e-03
3.936590355582839493e+03 8.301591494080899913e-01 1.974962173034638946e-03
3.940526945938423523e+03 8.319916765129007352e-01 2.008633818945560791e-03
3.944467472884363360e+03 8.366361177365444490e-01 2.128339633770050688e-03
3.948411940357249023e+03 8.428457511551188386e-01 2.146106411057701387e-03
3.952360352297607733e+03 8.524125533410977784e-01 2.087605561237439959e-03
3.956312712649906643e+03 8.635993663964315337e-01 1.981824576381182885e-03
3.960269025362557841e+03 8.749595508560288337e-01 1.899934308105680550e-03
3.964229294387921527e+03 8.869864441268204835e-01 1.727672561181482335e-03
3.968193523682310570e+03 8.986205464573230328e-01 1.657726102599681346e-03
3.972161717205994591e+03 9.088629305815495441e-01 1.822334198403842724e-03
3.976133878923201792e+03 9.193234606689468791e-01 1.799112821154293497e-03
3.980110012802126221e+03 9.293499990432273483e-01 1.853433794317512623e-03
3.984090122814929600e+03 9.389589440169673340e-01 1.833986700039903339e-03
3.988074212937745870e+03 9.480725987257820897e-01 1.831333174913884901e-03
3.992062287150684824e+03 9.584459969841609972e-01 1.504934604004768382e-03
3.996054349437837118e+03 9.650967785350197392e-01 1.728195705912186205e-03
4.000050403787276082e+03 9.720207389919286456e-01 1.588791141462076416e-03
4.004050454191064546e+03 9.788904118334683657e-01 1.719146489452670840e-03
4.008054504645257111e+03 9.845686983973074291e-01 1.725269640888715556e-03
4.012062559149903791e+03 9.902895858603243395e-01 1.752850380004589669e-03
4.016074621709055009e+03 9.943458894931126446e-01 1.853096455999270068e-03
4.020090696330765240e+03 9.987208043792092926e-01 1.926635191263731308e-03
4.024110787027097558e+03 1.002462953849491800e+00 1.953584306085237414e-03
4.028134897814125907e+03 1.005035865157769326e+00 2.038912842695495779e-03
4.032163032711941469e+03 1.008392881823042764e+00 2.040864410001379074e-03
4.036195195744654484e+03 1.010382594118454325e+00 1.819219015113482905e-03
4.040231390940400615e+03 1.013420868897910720e+00 1.798032605079147566e-03
4.044271622331342314e+03 1.017907038303349054e+00 1.819751829888935878e-03
4.048315893953675186e+03 1.023125716179143163e+00 1.924083899800868190e-03
4.052364209847629809e+03 1.028795438725063516e+00 1.896734897008413474e-03
4.056416574057479011e+03 1.034346635572349404e+00 2.007334945102565594e-03
4.060472990631537868e+03 1.039581091965191550e+00 2.045210294695550077e-03
4.064533463622170530e+03 1.045348118763030687e+00 1.926804773021686653e-03
4.068597997085794304e+03 1.050747228252669974e+00 1.976847690609832234e-03
4.072666595082881486e+03 1.054113791861240212e+00 1.772552109465817208e-03
4.076739261677965715e+03 1.055277804392518615e+00 1.867754844180861615e-03
4.080816000939644709e+03 1.053510690210880840e+00 1.788725858366273800e-03
4.084896816940585722e+03 1.052572736457952018e+00 1.825412218568117596e-03
4.088981713757527814e+03 1.051811165683695704e+00 1.866076819668238164e-03
4.093070695471286854e+03 1.049784842493737935e+00 1.818331880330475905e-03
4.097163766166759160e+03 1.047899102367894741e+00 1.829105252359209408e-03
4.101260929932927866e+03 1.045045623252157885e+00 1.608647717530143099e-03
4.105362190862862008e+03 1.044210182137744969e+00 1.623209438624995072e-03
4.109467553053726078e+03 1.044131555015998858e+00 1.616846851035120105e-03
4.113577020606780934e+03 1.045278384236905334e+00 1.565731970924761924e-03
4.117690597627389252e+03 1.046502468929661367e+00 1.654081589145282643e-03
4.121808288225018259e+03 1.049446460622883492e+00 1.635218357691105382e-03
4.125930096513244280e+03 1.053902430550084146e+00 1.905034523183742534e-03
4.130056026609759101e+03 1.058499811842907201e+00 2.109124402704215008e-03
4.134186082636369974e+03 1.061921719142679743e+00 2.169045361320879554e-03
4.138320268719007800e+03 1.065030791272659538e+00 2.229778005121931493e-03
4.142458588987728035e+03 1.066889283267884236e+00 2.150932465414486829e-03
4.146601047576717065e+03 1.067839293493525243e+00 1.671729566274571775e-03
4.150747648624294925e+03 1.066647955753088350e+00 1.738294680291093243e-03
4.154898396272920763e+03 1.063434751187032790e+00 1.930854463434605872e-03
4.159053294669195566e+03 1.058795854955002724e+00 1.706993603593649420e-03
4.163212347963865795e+03 1.055136517099205973e+00 1.656131135824764553e-03
4.167375560311830668e+03 1.051566795501992502e+00 1.649417061974399815e-03
4.171542935872143971e+03 1.048086712186696579e+00 1.594212453836280855e-03
4.175714478808017702e+03 1.045510897268140837e+00 1.690423131802044898e-03
4.179890193286827525e+03 1.045178915688017796e+00 1.641680086188462579e-03
4.184070083480115500e+03 1.047749828206870681e+00 1.569384922494943772e-03
4.188254153563597356e+03 1.051980557487186330e+00 1.787016285556796953e-03
4.192442407717161586e+03 1.058682392504873615e+00 1.720425799096244939e-03
4.196634850124880359e+03 1.068017128774946700e+00 1.858509393477647108e-03
4.200831484975006788e+03 1.079907828528927194e+00 2.427536902027491866e-03
4.205032316459983122e+03 1.093027972300593120e+00 2.491187819471759289e-03
4.209237348776444378e+03 1.106181516530144959e+00 2.367066059388034556e-03
4.213446586125221984e+03 1.119538786202532110e+00 2.344969351306127985e-03
4.217660032711349231e+03 1.133569187867123240e+00 2.225215148668558806e-03
4.221877692744061278e+03 1.147133644293089061e+00 2.198936875609482349e-03
4.226099570436806971e+03 1.159593381767292763e+00 2.185656116523201041e-03
4.230325670007245208e+03 1.171431201213798179e+00 2.273052916902813022e-03
4.234555995677254032e+03 1.181370619921092713e+00 2.306015078079349644e-03
4.238790551672932452e+03 1.189767363867454852e+00 2.341942515200256224e-03
4.243029342224606808e+03 1.197724350457417763e+00 2.118597820482511634e-03
4.247272371566832589e+03 1.203372508924794415e+00 2.272421406147672081e-03
4.251519643938400804e+03 1.208849653009063996e+00 2.255205284248925322e-03
4.255771163582340705e+03 1.213109355169979864e+00 2.404560914245719959e-03
4.260026934745924336e+03 1.217525922581624620e+00 2.731926902864513593e-03
4.264286961680671993e+03 1.222252802279457207e+00 2.698134215866813609e-03
4.268551248642354039e+03 1.227949894361872518e+00 1.893946539956829333e-03
4.272819799890998183e+03 1.236189434248349261e+00 1.572067371545457287e-03
4.277092619690890388e+03 1.247618140608419468e+00 1.741258397179267208e-03
4.281369712310583054e+03 1.261808635307390514e+00 1.592114904056773179e-03
4.285651082022895025e+03 1.277397878405891030e+00 1.311983542617091740e-03
4.289936733104918858e+03 1.294251572865299238e+00 1.275353927648989862e-03
4.294226669838025373e+03 1.312317459571388234e+00 1.286307312458007807e-03
4.298520896507864563e+03 1.331066648222088089e+00 1.357607055216540799e-03
4.302819417404373780e+03 1.350778967545077425e+00 1.523544740183782479e-03
4.307122236821779552e+03 1.370142695020844403e+00 1.760780393535439897e-03
4.311429359058603040e+03 1.389173682898088069e+00 1.919615358225474841e-03
4.315740788417662770e+03 1.406525698915694900e+00 1.928814220445542729e-03
4.320056529206081905e+03 1.421563909873387876e+00 1.791903634233947768e-03
4.324376585735290064e+03 1.433551932371095905e+00 1.686563290455343018e-03
4.328700962321026054e+03 1.442638073612827698e+00 1.667307154202186861e-03
4.333029663283348782e+03 1.449339566953565583e+00 1.376750408737081877e-03
4.337362692946633615e+03 1.451518330193950268e+00 1.786745207721190682e-03
4.341700055639581478e+03 1.450488459210690806e+00 1.965265060474704565e-03
4.346041755695222491e+03 1.448583256741658554e+00 1.580624215392905860e-03
4.350387797450919606e+03 1.445740795564513625e+00 1.387259534885240111e-03
4.354738185248371337e+03 1.442714234674984830e+00 1.476667229613217412e-03
4.359092923433621763e+03 1.440864119102329477e+00 1.455724085917885040e-03
4.363452016357056891e+03 1.440839193040691191e+00 1.446686441329446491e-03
4.367815468373414660e+03 1.442148771894277592e+00 1.518462649032270790e-03
4.372183283841789489e+03 1.445263992264753439e+00 1.919444663018110651e-03
4.376555467125633186e+03 1.448390150986399894e+00 1.974640118192025773e-03
4.380932022592760404e+03 1.451575844279247907e+00 1.997017748729829241e-03
4.385312954615354101e+03 1.455877802890322315e+00 1.769840608014451892e-03
4.389698267569970994e+03 1.458876796575813817e+00 1.811636142761090858e-03
4.394087965837542470e+03 1.461454104334870552e+00 2.002620989884647002e-03
4.398482053803381859e+03 1.463881841703613684e+00 2.003804294971772357e-03
4.402880535857186260e+03 1.465762623560647127e+00 1.968125944643006869e-03
4.407283416393044718e+03 1.466526259509051799e+00 1.911581679096314426e-03
4.411690699809440048e+03 1.467127939493588551e+00 2.039861927161006408e-03
4.416102390509250654e+03 1.466149338944604530e+00 1.988789322378692239e-03
4.420518492899761441e+03 1.463302505863791181e+00 1.976905406293743596e-03
4.424939011392662906e+03 1.459726800975670091e+00 1.968464701545644124e-03
4.429363950404056595e+03 1.455574987435387602e+00 1.733355839289075747e-03
4.433793314354462382e+03 1.449655781160760659e+00 1.800530473472403267e-03
4.438227107668818462e+03 1.441967255624968747e+00 1.733134896870415064e-03
4.442665334776488635e+03 1.433759465942222588e+00 1.781911362121013469e-03
4.447108000111265937e+03 1.424205950211804961e+00 1.836388466058581481e-03
4.451555108111379013e+03 1.413889395104163782e+00 1.959536364840486385e-03
4.456006663219492111e+03 1.403099197275432752e+00 1.830027407050797712e-03
4.460462669882713271e+03 1.390508314033449766e+00 2.103304084573069319e-03
4.464923132552597053e+03 1.378200631416877320e+00 2.415422226617576235e-03
4.469388055685150903e+03 1.366560682864754073e+00 2.815835699778800050e-03
4.473857443740837880e+03 1.355061160463989056e+00 2.686456093874919383e-03
4.478331301184580298e+03 1.345649105127375567e+00 2.194105716354583738e-03
4.482809632485766087e+03 1.338729912599540661e+00 2.207006588854848201e-03
4.487292442118253348e+03 1.334196528420965366e+00 2.734245037983132429e-03
4.491779734560373072e+03 1.330803024615724972e+00 2.892761017131529472e-03
4.496271514294934605e+03 1.328642492514462869e+00 2.712467362726103583e-03
4.500767785809231100e+03 1.325986151045209338e+00 2.446518934522405597e-03
4.505268553595042249e+03 1.322978381487108335e+00 2.042635621942860170e-03
4.509773822148638828e+03 1.318833965833160482e+00 1.854624191597137924e-03
4.514283595970789065e+03 1.312353159205947417e+00 2.334466443103944480e-03
4.518797879566761367e+03 1.305326602336915887e+00 2.147797136268721034e-03
4.523316677446328868e+03 1.297869700380863689e+00 1.608448492799712665e-03
4.527839994123776705e+03 1.291394288363877152e+00 1.795415591695244525e-03
4.532367834117902021e+03 1.284519746818630459e+00 1.779847462544653170e-03
4.536900201952022144e+03 1.278656187188206284e+00 1.712416539213912044e-03
4.541437102153975502e+03 1.273716534262712585e+00 1.706183164813579456e-03
4.545978539256130716e+03 1.268981136657828079e+00 2.268510244150521039e-03
4.550524517795388419e+03 1.266452230493887665e+00 2.420507853179177174e-03
4.555075042313184895e+03 1.266083667465518925e+00 2.316857770181313114e-03
4.559630117355500261e+03 1.267259277772470050e+00 2.345574782069913614e-03
4.564189747472856652e+03 1.270097592951333620e+00 2.542727567420236066e-03
4.568753937220330954e+03 1.273869828660540326e+00 2.599103866301350277e-03
4.573322691157552981e+03 1.278814586419582788e+00 2.576943132482904797e-03
4.577896013848711846e+03 1.283468134933230864e+00 2.497768557841329156e-03
4.582473909862562323e+03 1.288160170074033495e+00 2.241552203312830067e-03
4.587056383772426670e+03 1.291499593369385579e+00 2.099255319577801680e-03
4.591643440156200086e+03 1.293381943430387260e+00 2.335040239981379852e-03
4.596235083596357981e+03 1.293693207627519826e+00 2.532275628851594126e-03
4.600831318679955984e+03 1.292628087244821700e+00 1.996430650708062946e-03
4.605432149998637215e+03 1.292632174780052212e+00 1.553094284447778138e-03
4.610037582148637739e+03 1.293272217392021251e+00 1.625507229923967012e-03
4.614647619730787483e+03 1.295049282699198390e+00 1.937577814752757671e-03
4.619262267350520233e+03 1.296046703483829443e+00 1.860583178896839038e-03
4.623881529617872729e+03 1.296349768403305402e+00 1.510752218037766416e-03
4.628505411147491941e+03 1.295184130450727222e+00 1.535953818414950017e-03
4.633133916558640522e+03 1.292377024902845895e+00 1.588977728561774159e-03
4.637767050475200449e+03 1.289483531590778886e+00 1.596316381334137845e-03
4.642404817525677572e+03 1.286127022341065018e+00 1.602260105242035021e-03
4.647047222343205249e+03 1.281173484848709299e+00 1.606420483695126166e-03
4.651694269565549803e+03 1.275253981107928425e+00 1.585262980632022676e-03
4.656345963835116891e+03 1.268133578332756084e+00 1.502935765961187220e-03
4.661002309798953320e+03 1.261473616574598333e+00 1.500176951035363509e-03
4.665663312108753416e+03 1.254933917251220388e+00 1.515494111854041263e-03
4.670328975420864481e+03 1.248596884471588453e+00 1.451604696936481835e-03
4.674999304396286789e+03 1.242412239266351914e+00 1.522074826552201679e-03
4.679674303700684504e+03 1.236405671842210507e+00 1.592508304835249348e-03
4.684353978004386590e+03 1.231000986977801581e+00 1.523458826890061301e-03
4.689038331982392265e+03 1.226602197842067588e+00 1.108449674750355265e-03
4.693727370314376458e+03 1.224410706195215637e+00 1.036679217369519505e-03
4.698421097684692540e+03 1.224215385721668437e+00 1.341423520769747645e-03
4.703119518782378691e+03 1.225721531367917283e+00 1.563759955901228901e-03
4.707822638301162442e+03 1.227316441311838036e+00 1.697154977000731382e-03
4.712530460939465229e+03 1.227904504385816775e+00 1.580471810193547410e-03
4.717242991400406027e+03 1.226886284746957045e+00 1.516855432976801444e-03
4.721960234391808626e+03 1.224459664509995216e+00 1.504482958956607610e-03
4.726682194626201635e+03 1.221291599939576589e+00 1.441023105013237082e-03
4.731408876820829391e+03 1.216575601800970352e+00 1.716895679360332062e-03
4.736140285697651962e+03 1.210569063569286286e+00 1.884096225912529387e-03
4.740876425983350600e+03 1.204813361827386853e+00 1.682248392641523798e-03
4.745617302409335934e+03 1.198900011445866109e+00 1.129554032790570667e-03
4.750362919711747054e+03 1.195339219044732504e+00 1.153218118597152189e-03
4.755113282631459697e+03 1.193177138067669008e+00 1.343611482652826974e-03
4.759868395914093526e+03 1.191739149672501608e+00 1.349258325525355901e-03
4.764628264310008490e+03 1.191972323369878906e+00 1.214288926678844770e-03
4.769392892574320285e+03 1.193182199971527746e+00 1.010336998516279125e-03
4.774162285466896719e+03 1.195072890355301398e+00 9.175728109522955124e-04
4.778936447752364984e+03 1.197059311599288467e+00 9.185656210918863480e-04
4.783715384200118933e+03 1.198926777794162124e+00 9.286727476828125424e-04
4.788499099584319993e+03 1.200803008274410777e+00 9.720870716000179663e-04
4.793287598683906253e+03 1.202616395865051979e+00 1.092972504983036938e-03
4.798080886282591564e+03 1.204199067940133761e+00 1.242233355798958360e-03
