# starting wavelength: 3351.650
# ending wavelength: 8917.430
# wav flux eflux
3.354809216441465651e+03 2.942889524853229966e-01 1.624736270818033859e-02
3.358164025657908041e+03 3.289267113194311865e-01 1.303321097789051156e-02
3.361522189683567376e+03 3.532552342320441352e-01 1.072698614299775338e-02
3.364883711873251741e+03 3.717385527305120396e-01 8.253532159300230181e-03
3.368248595585126168e+03 3.865757584241545919e-01 6.313259999730168326e-03
3.371616844180712633e+03 3.974155838360037274e-01 4.934377829496038904e-03
3.374988461024894150e+03 4.050254993278297744e-01 4.001118978574956866e-03
3.378363449485920228e+03 4.109480387226087661e-01 3.347627013294139815e-03
3.381741812935407324e+03 4.145690120547332880e-01 2.843605522770318271e-03
3.385123554748343849e+03 4.165532949493423454e-01 2.410465798625723369e-03
3.388508678303093347e+03 4.181161395703011929e-01 2.422991351471065567e-03
3.391897186981397681e+03 4.200111268686917421e-01 2.649919772485871856e-03
3.395289084168380214e+03 4.210865594613555363e-01 2.381656359423171138e-03
3.398684373252549449e+03 4.238002602179308242e-01 2.744896757580671080e-03
3.402083057625803121e+03 4.262610115241683983e-01 2.793942666375471510e-03
3.405485140683430018e+03 4.282219302648556103e-01 2.710484035283144012e-03
3.408890625824114522e+03 4.295162179382580603e-01 2.586335001359210857e-03
3.412299516449939802e+03 4.307475432855318309e-01 2.488230255520790853e-03
3.415711815966390986e+03 4.315679066237530503e-01 2.465550561335158857e-03
3.419127527782358356e+03 4.328213498980105212e-01 2.517116745521734856e-03
3.422546655310141887e+03 4.349687465305510092e-01 2.648309709928533227e-03
3.425969201965453522e+03 4.371821407254519731e-01 2.930379900519794901e-03
3.429395171167419903e+03 4.406302961996432788e-01 2.993964061507871279e-03
3.432824566338588284e+03 4.454989961288892131e-01 2.947899244638083581e-03
3.436257390904928343e+03 4.514997138839407786e-01 2.931952174793943464e-03
3.439693648295834464e+03 4.581867375988176727e-01 2.945055762243313415e-03
3.443133341944131189e+03 4.656181063995084024e-01 3.035385110311867533e-03
3.446576475286076402e+03 4.739704994161074159e-01 3.256969831341791164e-03
3.450023051761363604e+03 4.830387259364792296e-01 3.527617802724506476e-03
3.453473074813126004e+03 4.910836579780924471e-01 3.599013204268215489e-03
3.456926547887940615e+03 5.004787511526295196e-01 3.735148230285238995e-03
3.460383474435829612e+03 5.094836557831378121e-01 3.780661623985426094e-03
3.463843857910266706e+03 5.174448080310118936e-01 3.771810321081280493e-03
3.467307701768178049e+03 5.245664398123868200e-01 3.756513764056824273e-03
3.470775009469947236e+03 5.313287140800275754e-01 3.732244141727256246e-03
3.474245784479418489e+03 5.372492150582394155e-01 3.637033041883851008e-03
3.477720030263898934e+03 5.429508734787540369e-01 3.383940295801776514e-03
3.481197750294164052e+03 5.462410742115897389e-01 3.200167145339696730e-03
3.484678948044459503e+03 5.479252088510495611e-01 3.169359026346944223e-03
3.488163626992504760e+03 5.477786964475106490e-01 3.368922124155189490e-03
3.491651790619498570e+03 5.459488237380784037e-01 3.619473798859688691e-03
3.495143442410119405e+03 5.429379559632688812e-01 3.773794837022351623e-03
3.498638585852530468e+03 5.385057617311687084e-01 3.775581573385745644e-03
3.502137224438384237e+03 5.327996561703153278e-01 3.163350293948214396e-03
3.505639361662823831e+03 5.271399105461435086e-01 2.324656665815444476e-03
3.509145001024487556e+03 5.215279072514547032e-01 1.687432006953438687e-03
3.512654146025513455e+03 5.171445822320794861e-01 1.574752803687599120e-03
3.516166800171540217e+03 5.134287191228549263e-01 1.637675839263053696e-03
3.519682966971712631e+03 5.106082947779255754e-01 1.650464596530650538e-03
3.523202649938685681e+03 5.083598324990438178e-01 1.633536069905997109e-03
3.526725852588625457e+03 5.069946509351368480e-01 1.550579164477869538e-03
3.530252578441215064e+03 5.062180122329044130e-01 1.413302266392662664e-03
3.533782831019657806e+03 5.063510057345836923e-01 1.273351148438721207e-03
3.537316613850678550e+03 5.063943847755513206e-01 1.303269118655180428e-03
3.540853930464530094e+03 5.069854064787009396e-01 1.277148397780203393e-03
3.544394784394995895e+03 5.082365828155162024e-01 1.176636584050960591e-03
3.547939179179392340e+03 5.108762705072408261e-01 1.217790169906147373e-03
3.551487118358572843e+03 5.144742698665162317e-01 1.273769497492914819e-03
3.555038605476932389e+03 5.184181065950110856e-01 1.295164978523166482e-03
3.558593644082410719e+03 5.226994955654937769e-01 1.310737841913128159e-03
3.562152237726494150e+03 5.276309463499926355e-01 1.350378961294902789e-03
3.565714389964221937e+03 5.326870809641754967e-01 1.372279776103347507e-03
3.569280104354187188e+03 5.383301261839034124e-01 1.377714807039898603e-03
3.572849384458542772e+03 5.437925823172783391e-01 1.381125002363267108e-03
3.576422233843002232e+03 5.490672950188222323e-01 1.378392070640970055e-03
3.579998656076846601e+03 5.541791071519520662e-01 1.370174429590000553e-03
3.583578654732924406e+03 5.596947198193265027e-01 1.363859295043330514e-03
3.587162233387658489e+03 5.660899357100452889e-01 1.207337265913471314e-03
3.590749395621047370e+03 5.716883497539165804e-01 1.225391974276458492e-03
3.594340145016669794e+03 5.771500260931410331e-01 1.246258266279209707e-03
3.597934485161687462e+03 5.822937251503460532e-01 1.248870873086297935e-03
3.601532419646850485e+03 5.871675540516971825e-01 1.210357878132337474e-03
3.605133952066498296e+03 5.918867997924290858e-01 1.109166585052472368e-03
3.608739086018566013e+03 5.965403529880662914e-01 1.009901647325658902e-03
3.612347825104585809e+03 6.009555933316328424e-01 8.857681026071377323e-04
3.615960172929691907e+03 6.056137100468287349e-01 9.667335119648731668e-04
3.619576133102622407e+03 6.103939865211115423e-01 9.634856188320371903e-04
3.623195709235726554e+03 6.149647072516601920e-01 8.333532299099792942e-04
3.626818904944963379e+03 6.191124566814583119e-01 7.892657072428168686e-04
3.630445723849909427e+03 6.229524954954295257e-01 7.391278211227509699e-04
3.634076169573760581e+03 6.266400412408694720e-01 6.433860734147996531e-04
3.637710245743335690e+03 6.299365213524530382e-01 5.697347760978458374e-04
3.641347955989080219e+03 6.322559195575331303e-01 6.173563235876684905e-04
3.644989303945070333e+03 6.342486907910902527e-01 6.150592753620580735e-04
3.648634293249016537e+03 6.358139226678370948e-01 5.627504220011509198e-04
3.652282927542266862e+03 6.372350020057759856e-01 5.096032446025272177e-04
3.655935210469810499e+03 6.386242244146808078e-01 5.263489585988070452e-04
3.659591145680281443e+03 6.396636384927401053e-01 5.268618328656471048e-04
3.663250736825963031e+03 6.402986652394213607e-01 4.835059095120231086e-04
3.666913987562790226e+03 6.409021802451454475e-01 5.001142673588468293e-04
3.670580901550354156e+03 6.415936905119703493e-01 4.689960402839583593e-04
3.674251482451905758e+03 6.419969557668274707e-01 4.078397965476669197e-04
3.677925733934358959e+03 6.422205322731769916e-01 3.995126454030212618e-04
3.681603659668294313e+03 6.422344525666735526e-01 3.919978417906118742e-04
3.685285263327964003e+03 6.420662634419902481e-01 3.941401085661786342e-04
3.688970548591293209e+03 6.417729299724389547e-01 4.363488773714501541e-04
3.692659519139885560e+03 6.413831307787266622e-01 4.919489250800298044e-04
3.696352178659026777e+03 6.408535169708676760e-01 5.067499764499363386e-04
3.700048530837686940e+03 6.405044577639787962e-01 4.432344336499247583e-04
3.703748579368525952e+03 6.401891241089564533e-01 3.420765371431623287e-04
3.707452327947895355e+03 6.402642501044638612e-01 2.975185361631607780e-04
3.711159780275844696e+03 6.409079695469326321e-01 3.948189483581573717e-04
3.714870940056121526e+03 6.417112193233931450e-01 3.995614975079854296e-04
3.718585810996179134e+03 6.429982359933165137e-01 4.123961791600750542e-04
3.722304396807176545e+03 6.444797903265497840e-01 4.225051769824927830e-04
3.726026701203984885e+03 6.460486208466998947e-01 4.314163761418110619e-04
3.729752727905190113e+03 6.478611169884040955e-01 4.173394527649676314e-04
3.733482480633096657e+03 6.499703800868188441e-01 3.402998769542366748e-04
3.737215963113731050e+03 6.521413606844189692e-01 3.101461009379545227e-04
3.740953179076846027e+03 6.543231755657638038e-01 3.358598239384407878e-04
3.744694132255923705e+03 6.566442870052670022e-01 3.972920047972393104e-04
3.748438826388181042e+03 6.591616791201315717e-01 4.230625923969719539e-04
3.752187265214570289e+03 6.620678936407775605e-01 4.295111432970557955e-04
3.755939452479786269e+03 6.654094034378597033e-01 4.038493589964368686e-04
3.759695391932267285e+03 6.691274289754540749e-01 4.287967380771477992e-04
3.763455087324201031e+03 6.732407587207509536e-01 4.612914255555265936e-04
3.767218542411526414e+03 6.776848493018700070e-01 4.628643933047739000e-04
3.770985760953939007e+03 6.823308139021879715e-01 4.654324001178023872e-04
3.774756746714894234e+03 6.873604409681870475e-01 5.042722941332718287e-04
3.778531503461610555e+03 6.927463181476299914e-01 5.960579223164634262e-04
3.782310034965073100e+03 6.986171715819584627e-01 6.288853969260502219e-04
3.786092345000039586e+03 7.050544568148191527e-01 6.418327917284632296e-04
3.789878437345040766e+03 7.121697743096968569e-01 6.604962029185851465e-04
3.793668315782387253e+03 7.197237473083176740e-01 6.412632769667730732e-04
3.797461984098170888e+03 7.276651698416565228e-01 5.762876554424893258e-04
3.801259446082270188e+03 7.362578050181165512e-01 6.637718968079272478e-04
3.805060705528353537e+03 7.452720120250806435e-01 8.358654712290637797e-04
3.808865766233883278e+03 7.544171591142367905e-01 8.407747612244595220e-04
3.812674632000118436e+03 7.637422289174983225e-01 8.952121660394133859e-04
3.816487306632119726e+03 7.726816934424333150e-01 8.095027461549342013e-04
3.820303793938753188e+03 7.808448300578328949e-01 6.142892762742829240e-04
3.824124097732693372e+03 7.879314263030307020e-01 7.008975368344093045e-04
3.827948221830427428e+03 7.943450043728811361e-01 7.946874874257182529e-04
3.831776170052258749e+03 7.998973139427796308e-01 8.176909358882549547e-04
3.835607946222312421e+03 8.047876140599059536e-01 7.292745753602389693e-04
3.839443554168536139e+03 8.092630060888202914e-01 6.043774673904369179e-04
3.843282997722705659e+03 8.138248109736666569e-01 5.598063253526731203e-04
3.847126280720429804e+03 8.181110717346092853e-01 5.598066426971588794e-04
3.850973407001151372e+03 8.227086118421411687e-01 6.221729589133043843e-04
3.854824380408153957e+03 8.274050575265191609e-01 6.128212772865828479e-04
3.858679204788563311e+03 8.320705559943794016e-01 7.081740761028508004e-04
3.862537883993353262e+03 8.371183654308408384e-01 8.558158259157418353e-04
3.866400421877347981e+03 8.429869357447682399e-01 8.666590602629624645e-04
3.870266822299226533e+03 8.494888529914276232e-01 8.544888730969768054e-04
3.874137089121526969e+03 8.565104070121556390e-01 8.360751005497285169e-04
3.878011226210649966e+03 8.642500034554516652e-01 7.868935021338835075e-04
3.881889237436861549e+03 8.729277860288592317e-01 7.750570516420827571e-04
3.885771126674299921e+03 8.824618940778938825e-01 8.145615739868751698e-04
3.889656897800975457e+03 8.927059188534288703e-01 9.570725114970992341e-04
3.893546554698777527e+03 9.036232117496210137e-01 8.764330804597028407e-04
3.897440101253477678e+03 9.145097714732849381e-01 6.809566789340656826e-04
3.901337541354732366e+03 9.248553664210418246e-01 5.692032194245525345e-04
3.905238878896088409e+03 9.344641824789331475e-01 5.957798246218301867e-04
3.909144117774985716e+03 9.432534403383696642e-01 6.097352813348912853e-04
3.913053261892762293e+03 9.510763321793407332e-01 6.099996713585266721e-04
3.916966315154656058e+03 9.578273976487240438e-01 5.707189458411552957e-04
3.920883281469812118e+03 9.635168899780527374e-01 5.339177071359994592e-04
3.924804164751283224e+03 9.685318653381758125e-01 5.244239436335436898e-04
3.928728968916035683e+03 9.724773492417417842e-01 4.753804824801492767e-04
3.932657697884953450e+03 9.751046623639797462e-01 6.341007371380671291e-04
3.936590355582839493e+03 9.767872592629489592e-01 5.596667783905012565e-04
3.940526945938423523e+03 9.781220094149026822e-01 5.201672251272619748e-04
3.944467472884363360e+03 9.789957102626778429e-01 5.689694630302662625e-04
3.948411940357249023e+03 9.794995998978753837e-01 7.161775846688127377e-04
3.952360352297607733e+03 9.798492328472483415e-01 7.086313928594861929e-04
3.956312712649906643e+03 9.804285979830631437e-01 6.284507699384400594e-04
3.960269025362557841e+03 9.812562944405841536e-01 7.520746205169134965e-04
3.964229294387921527e+03 9.822598398680539855e-01 1.046840491891250658e-03
3.968193523682310570e+03 9.831017642165719161e-01 1.170977609728347585e-03
3.972161717205994591e+03 9.831247222659498242e-01 1.100315827148509989e-03
3.976133878923201792e+03 9.818792653284272864e-01 9.342537522386344618e-04
3.980110012802126221e+03 9.794692627010582742e-01 1.036840224811761465e-03
3.984090122814929600e+03 9.761342628240938790e-01 1.255658614152755552e-03
3.988074212937745870e+03 9.725311454572755920e-01 1.353896273707412687e-03
3.992062287150684824e+03 9.690913998090679993e-01 1.297307658517788407e-03
3.996054349437837118e+03 9.661148377653182573e-01 1.167391498914785398e-03
4.000050403787276082e+03 9.640113027617100983e-01 1.055627277524886273e-03
4.004050454191064546e+03 9.629642235459068278e-01 9.430278258577676253e-04
4.008054504645257111e+03 9.632877176887630899e-01 8.988446638610039178e-04
4.012062559149903791e+03 9.656346912748156042e-01 1.111402747119648315e-03
4.016074621709055009e+03 9.690820423740267309e-01 8.177608158087548099e-04
4.020090696330765240e+03 9.726951030739345860e-01 6.891967911754109857e-04
4.024110787027097558e+03 9.765864612017903790e-01 7.515600589341258839e-04
4.028134897814125907e+03 9.809550588866284837e-01 7.640743300740210700e-04
4.032163032711941469e+03 9.851929848800636824e-01 7.713345011437159737e-04
4.036195195744654484e+03 9.892717591122369702e-01 8.449543531261622916e-04
4.040231390940400615e+03 9.930506195204737985e-01 9.591233824364072888e-04
4.044271622331342314e+03 9.962506852417745140e-01 9.524406245163634637e-04
4.048315893953675186e+03 9.983277700228356810e-01 8.073957510545640582e-04
4.052364209847629809e+03 9.989828110128758931e-01 8.809125437246187939e-04
4.056416574057479011e+03 9.986498805959772573e-01 9.611843055489448879e-04
4.060472990631537868e+03 9.975049051680322520e-01 9.847103037381860473e-04
4.064533463622170530e+03 9.957931901699117461e-01 9.914447859703575533e-04
4.068597997085794304e+03 9.939124910893488707e-01 9.803841624145531036e-04
4.072666595082881486e+03 9.920171835076081468e-01 9.175896752248765675e-04
4.076739261677965715e+03 9.902811035773771975e-01 7.896265080168971906e-04
4.080816000939644709e+03 9.890946365608112023e-01 6.511897486924174590e-04
4.084896816940585722e+03 9.891238969118971713e-01 7.209391856724375793e-04
4.088981713757527814e+03 9.903081628558871863e-01 5.341055370608402408e-04
4.093070695471286854e+03 9.916248000942416985e-01 3.912881993894677711e-04
4.097163766166759160e+03 9.929359588091002387e-01 3.890860907254151037e-04
4.101260929932927866e+03 9.944337503595901406e-01 3.895657937407362523e-04
4.105362190862862008e+03 9.962606418891855053e-01 3.484770102487027969e-04
4.109467553053726078e+03 9.978848940371589649e-01 3.398315709408272420e-04
4.113577020606780934e+03 9.996819813326450754e-01 3.511400967783110077e-04
4.117690597627389252e+03 1.001549765007258674e+00 3.403658008996577624e-04
4.121808288225018259e+03 1.003321839100070223e+00 2.861099271365672206e-04
4.125930096513244280e+03 1.004624529276339828e+00 2.934852897464641937e-04
4.130056026609759101e+03 1.005619772709515303e+00 2.622863757640367236e-04
4.134186082636369974e+03 1.006662147475097635e+00 2.666299352173412299e-04
4.138320268719007800e+03 1.007640416393371430e+00 2.626542380570351539e-04
4.142458588987728035e+03 1.008438320644658992e+00 2.741125450158580948e-04
4.146601047576717065e+03 1.009260812073119906e+00 2.969568424517887977e-04
4.150747648624294925e+03 1.009993939628065718e+00 4.799277254870167085e-04
4.154898396272920763e+03 1.010959855955034348e+00 4.976530071996009691e-04
4.159053294669195566e+03 1.012451495900937193e+00 3.691044301449854757e-04
4.163212347963865795e+03 1.014807182533556951e+00 3.885233527006502004e-04
4.167375560311830668e+03 1.017716838045642502e+00 4.571581885594034863e-04
4.171542935872143971e+03 1.020852604122792773e+00 4.744468419557236233e-04
4.175714478808017702e+03 1.024421940168940282e+00 5.495005147966787766e-04
4.179890193286827525e+03 1.027995905488677142e+00 5.373519866685708872e-04
4.184070083480115500e+03 1.031313999703209916e+00 5.074919344264131960e-04
4.188254153563597356e+03 1.034026455219333673e+00 4.678877973566093968e-04
4.192442407717161586e+03 1.036267282167004700e+00 4.064801457698084667e-04
4.196634850124880359e+03 1.037774630949879873e+00 3.977047901010814291e-04
4.200831484975006788e+03 1.038512269393528697e+00 4.023147307029715158e-04
4.205032316459983122e+03 1.038323092123150770e+00 3.697272014462822686e-04
4.209237348776444378e+03 1.037637988630115693e+00 2.959643426274466112e-04
4.213446586125221984e+03 1.036586615567271608e+00 3.124291316481800146e-04
4.217660032711349231e+03 1.035178335516612869e+00 3.144314434190983130e-04
4.221877692744061278e+03 1.033332773937265969e+00 3.895960224131626631e-04
4.226099570436806971e+03 1.031429848867380761e+00 5.331059140572998742e-04
4.230325670007245208e+03 1.029522388385096798e+00 5.713874228232197110e-04
4.234555995677254032e+03 1.028149585314258374e+00 5.113182012291944125e-04
4.238790551672932452e+03 1.027377146616587078e+00 4.605241021691713140e-04
4.243029342224606808e+03 1.027394752557947211e+00 4.472548828195808501e-04
4.247272371566832589e+03 1.028138687337735169e+00 4.332340708321735746e-04
4.251519643938400804e+03 1.029596885467432443e+00 4.097597201014764861e-04
4.255771163582340705e+03 1.032107936407864024e+00 4.624823686893984095e-04
4.260026934745924336e+03 1.035147832851135430e+00 4.682865785391136923e-04
4.264286961680671993e+03 1.038560852148498359e+00 3.870374828480406993e-04
4.268551248642354039e+03 1.041955504106676367e+00 3.521672096708251538e-04
4.272819799890998183e+03 1.045356758420440402e+00 3.242363189161673906e-04
4.277092619690890388e+03 1.048443325360669753e+00 3.762855482062725521e-04
4.281369712310583054e+03 1.050868545831611600e+00 3.974299440134570647e-04
4.285651082022895025e+03 1.052392182569281687e+00 3.937121180402927646e-04
4.289936733104918858e+03 1.053370750671622114e+00 3.791740608534239425e-04
4.294226669838025373e+03 1.053559072130992869e+00 3.264889286905018283e-04
4.298520896507864563e+03 1.052865266185426973e+00 3.472651010970410879e-04
4.302819417404373780e+03 1.051195026798682930e+00 4.589456053878590287e-04
4.307122236821779552e+03 1.049048279762960112e+00 4.240863786573879479e-04
4.311429359058603040e+03 1.046687268135696236e+00 3.483174164479797851e-04
4.315740788417662770e+03 1.044282440692594127e+00 3.504017777010458908e-04
4.320056529206081905e+03 1.042068101762770649e+00 3.172119890841252807e-04
4.324376585735290064e+03 1.040198838150420357e+00 2.914423791052751051e-04
4.328700962321026054e+03 1.038795061255699759e+00 2.714684079715892610e-04
4.333029663283348782e+03 1.038128506371278625e+00 2.858705008597669898e-04
4.337362692946633615e+03 1.038275622437378809e+00 2.419334438905263352e-04
4.341700055639581478e+03 1.039085884831255191e+00 2.143026101021945227e-04
4.346041755695222491e+03 1.040486088990355773e+00 2.421494549879178813e-04
4.350387797450919606e+03 1.042559118639818649e+00 2.634240785319195239e-04
4.354738185248371337e+03 1.045581935366118875e+00 2.558511814830915490e-04
4.359092923433621763e+03 1.049563634825925407e+00 2.555500977157233755e-04
4.363452016357056891e+03 1.054303684529205531e+00 2.830508087352396067e-04
4.367815468373414660e+03 1.059636874044192822e+00 3.160392716638203464e-04
