# starting wavelength: 3324.950
# ending wavelength: 8881.850
# wav flux eflux
3.328091114369046863e+03 2.483850160931672935e-01 6.574687424773767441e-03
3.331419205483417045e+03 2.685553851692158989e-01 4.705133275157807361e-03
3.334750624688901553e+03 2.817452294210229247e-01 3.932695642420346027e-03
3.338085375313591612e+03 2.894658644302940953e-01 3.754041146801016283e-03
3.341423460688906289e+03 2.935435014953002852e-01 3.799787374196760166e-03
3.344764884149596128e+03 2.954624555361033411e-01 4.090131422304214490e-03
3.348109649033746791e+03 2.964934848652523991e-01 4.745791176304733905e-03
3.351457758682781787e+03 2.985559114800584446e-01 4.247496494699042925e-03
3.354809216441465651e+03 3.012237955130162570e-01 3.527048644560547806e-03
3.358164025657908041e+03 3.037297561531356327e-01 2.993908044931095722e-03
3.361522189683567376e+03 3.060547157813061636e-01 2.590883185445819713e-03
3.364883711873251741e+03 3.085559119586432364e-01 2.286643780138469546e-03
3.368248595585126168e+03 3.112237771084991889e-01 2.058067174100958272e-03
3.371616844180712633e+03 3.142365794343088825e-01 1.891276847981595861e-03
3.374988461024894150e+03 3.177393209033994581e-01 1.766002002575228465e-03
3.378363449485920228e+03 3.216334431676627914e-01 1.667646006790372793e-03
3.381741812935407324e+03 3.259110209797242419e-01 1.597108647840709108e-03
3.385123554748343849e+03 3.307179068272952382e-01 1.552859550018314714e-03
3.388508678303093347e+03 3.363486466736578806e-01 1.510536691713566023e-03
3.391897186981397681e+03 3.431097747262855657e-01 1.440765486901602254e-03
3.395289084168380214e+03 3.508578997526522469e-01 1.405212743074656795e-03
3.398684373252549449e+03 3.591280652424981845e-01 1.397274670880254994e-03
3.402083057625803121e+03 3.681601515463401308e-01 1.415790372772416338e-03
3.405485140683430018e+03 3.776612636672120327e-01 1.435023367876057639e-03
3.408890625824114522e+03 3.874261537500973129e-01 1.437109368392911011e-03
3.412299516449939802e+03 3.973988637103433308e-01 1.415947739905583499e-03
3.415711815966390986e+03 4.079703726194935931e-01 1.485437002696621614e-03
3.419127527782358356e+03 4.190563082045242749e-01 1.625508698142038005e-03
3.422546655310141887e+03 4.303228479895634395e-01 1.719985043805846150e-03
3.425969201965453522e+03 4.409016616597591365e-01 1.741353197522654654e-03
3.429395171167419903e+03 4.517213963087453044e-01 1.748799764405345111e-03
3.432824566338588284e+03 4.624703924006255962e-01 1.713248916042376183e-03
3.436257390904928343e+03 4.729437890855602844e-01 1.575545396126615478e-03
3.439693648295834464e+03 4.827852634632109896e-01 1.338663774307262324e-03
3.443133341944131189e+03 4.916930330852595787e-01 1.109179619485804085e-03
3.446576475286076402e+03 4.995569569819361400e-01 1.021101269757781821e-03
3.450023051761363604e+03 5.061431592029649318e-01 1.111446426616232884e-03
3.453473074813126004e+03 5.115593639837666684e-01 1.084718132286611927e-03
3.456926547887940615e+03 5.159783090711514975e-01 1.024559173716584060e-03
3.460383474435829612e+03 5.197154271865899178e-01 9.003187963648489516e-04
3.463843857910266706e+03 5.228160904939056497e-01 8.383551838240544405e-04
3.467307701768178049e+03 5.254048721639899000e-01 8.608038454218227631e-04
3.470775009469947236e+03 5.275322641586124295e-01 9.134396083808175599e-04
3.474245784479418489e+03 5.287082389937206583e-01 9.783430234957595992e-04
3.477720030263898934e+03 5.292774406182098046e-01 8.662852377217725554e-04
3.481197750294164052e+03 5.300136001297269805e-01 7.137744927174092180e-04
3.484678948044459503e+03 5.305813717911634919e-01 6.792929541180202282e-04
3.488163626992504760e+03 5.315705003287838348e-01 6.723983687586490999e-04
3.491651790619498570e+03 5.327254778449697081e-01 6.956640416010763427e-04
3.495143442410119405e+03 5.340924914356128816e-01 7.352257686917767305e-04
3.498638585852530468e+03 5.354072193632579690e-01 7.505844680000321690e-04
3.502137224438384237e+03 5.367953606108003539e-01 7.671087978319927067e-04
3.505639361662823831e+03 5.384331668626132217e-01 8.043440676673957977e-04
3.509145001024487556e+03 5.403793478530738437e-01 7.970093602021836171e-04
3.512654146025513455e+03 5.425325543578405352e-01 7.751632620758454459e-04
3.516166800171540217e+03 5.447417777578537068e-01 7.396189504244943605e-04
3.519682966971712631e+03 5.470857258922056099e-01 7.280106395696037298e-04
3.523202649938685681e+03 5.495091101563598368e-01 7.526680799041884744e-04
3.526725852588625457e+03 5.520894100526706483e-01 7.611684503708482548e-04
3.530252578441215064e+03 5.549319084857390338e-01 7.774979634690472059e-04
3.533782831019657806e+03 5.584966978487102551e-01 7.814685734004409587e-04
3.537316613850678550e+03 5.623194335841584790e-01 8.059841842847023392e-04
3.540853930464530094e+03 5.663835258742034862e-01 8.067599347124349398e-04
3.544394784394995895e+03 5.705519661688467359e-01 7.872393708377952749e-04
3.547939179179392340e+03 5.752047841836308573e-01 7.852804299944501649e-04
3.551487118358572843e+03 5.801148964157128995e-01 7.845045895916822210e-04
3.555038605476932389e+03 5.851801677492803888e-01 7.684568491317618011e-04
3.558593644082410719e+03 5.903126730691211632e-01 7.261543870264125598e-04
3.562152237726494150e+03 5.961115927185282048e-01 7.313560516262491290e-04
3.565714389964221937e+03 6.024726087578339273e-01 7.505736345517273912e-04
3.569280104354187188e+03 6.090838672519004460e-01 7.394774230128251750e-04
3.572849384458542772e+03 6.159894479850249738e-01 5.886801030887888701e-04
3.576422233843002232e+03 6.227350127513617828e-01 5.593060707727869106e-04
3.579998656076846601e+03 6.295394150227203722e-01 5.693047956741027456e-04
3.583578654732924406e+03 6.364349179589159355e-01 5.695126719108421689e-04
3.587162233387658489e+03 6.430880301929049470e-01 5.387740262584628540e-04
3.590749395621047370e+03 6.497106770522410590e-01 5.165751449119944253e-04
3.594340145016669794e+03 6.561020026303910901e-01 5.202283044042505791e-04
3.597934485161687462e+03 6.627907080459982669e-01 6.262593563363696948e-04
3.601532419646850485e+03 6.692587882568441504e-01 6.849106458887794721e-04
3.605133952066498296e+03 6.752664139105519769e-01 6.911798294391284818e-04
3.608739086018566013e+03 6.808285742860220591e-01 6.835897291250989105e-04
3.612347825104585809e+03 6.861534534517113038e-01 6.501633926858463395e-04
3.615960172929691907e+03 6.913719530449007333e-01 5.617446147065444356e-04
3.619576133102622407e+03 6.957512594348383983e-01 5.949232222262167266e-04
3.623195709235726554e+03 6.995114361433144579e-01 7.172462006363402752e-04
3.626818904944963379e+03 7.029286000350073449e-01 8.030987030784876015e-04
3.630445723849909427e+03 7.061702972359623631e-01 8.488116401505747897e-04
3.634076169573760581e+03 7.093171633455690461e-01 8.385636158194382638e-04
3.637710245743335690e+03 7.127518678740435432e-01 7.482888847611819097e-04
3.641347955989080219e+03 7.165692037551442128e-01 7.491083607815548703e-04
3.644989303945070333e+03 7.205718860513830037e-01 7.015892439024076777e-04
3.648634293249016537e+03 7.249267151904594808e-01 6.182733185225372519e-04
3.652282927542266862e+03 7.296710953574434555e-01 5.782878671932231837e-04
3.655935210469810499e+03 7.350741514753639239e-01 6.164404427336362107e-04
3.659591145680281443e+03 7.409964558381576527e-01 7.414946575260727459e-04
3.663250736825963031e+03 7.472793638669100735e-01 7.934191867211664835e-04
3.666913987562790226e+03 7.538926116164962332e-01 7.944422994453492889e-04
3.670580901550354156e+03 7.611992795352239272e-01 5.232567979432204428e-04
3.674251482451905758e+03 7.676701388063693621e-01 4.464807082595619145e-04
3.677925733934358959e+03 7.736738982339411708e-01 4.389487077798854132e-04
3.681603659668294313e+03 7.795292695940951866e-01 4.011216663069729180e-04
3.685285263327964003e+03 7.849374955553718447e-01 3.631238320133297866e-04
3.688970548591293209e+03 7.893515813358821243e-01 3.652708602495209817e-04
3.692659519139885560e+03 7.931144037976861627e-01 4.004603717816762436e-04
3.696352178659026777e+03 7.962630392667844337e-01 4.909989534459760106e-04
3.700048530837686940e+03 7.988300953999246667e-01 5.331684777050677655e-04
3.703748579368525952e+03 8.008286279851183354e-01 5.292862045261326979e-04
3.707452327947895355e+03 8.026815427205957754e-01 5.003822076173537097e-04
3.711159780275844696e+03 8.042809307585823131e-01 5.087339896639381850e-04
3.714870940056121526e+03 8.056600948120156147e-01 5.775074253446580395e-04
3.718585810996179134e+03 8.069312946106360629e-01 5.762027126437998170e-04
3.722304396807176545e+03 8.085271888629478321e-01 5.072824000689956855e-04
3.726026701203984885e+03 8.102977428644547730e-01 4.288538589791803012e-04
3.729752727905190113e+03 8.127077679386550679e-01 4.268945500619302858e-04
3.733482480633096657e+03 8.157522799934531221e-01 4.905082431779320693e-04
3.737215963113731050e+03 8.191149007629772161e-01 6.488259705621145191e-04
3.740953179076846027e+03 8.226175892550831037e-01 7.331606805470335022e-04
3.744694132255923705e+03 8.261701854464086336e-01 7.352816912681796975e-04
3.748438826388181042e+03 8.298144382560634913e-01 6.147846439694907433e-04
3.752187265214570289e+03 8.331741934562041374e-01 5.012164456005240021e-04
3.755939452479786269e+03 8.360978963788816554e-01 5.508784085778158741e-04
3.759695391932267285e+03 8.388549049526937695e-01 6.068696399907115829e-04
3.763455087324201031e+03 8.416118794647152734e-01 6.361819737050818276e-04
3.767218542411526414e+03 8.438070500855233691e-01 6.214558104722887064e-04
3.770985760953939007e+03 8.460714093938517255e-01 5.655395028892883655e-04
3.774756746714894234e+03 8.486098624163336268e-01 6.619251103288233910e-04
3.778531503461610555e+03 8.508061232410957242e-01 6.943703588600445798e-04
3.782310034965073100e+03 8.527403351587431457e-01 6.903398933863681306e-04
3.786092345000039586e+03 8.546640371403987357e-01 7.096943853657521929e-04
3.789878437345040766e+03 8.569986839887488994e-01 7.086414402295457228e-04
3.793668315782387253e+03 8.596567054603951874e-01 6.998247494907453318e-04
3.797461984098170888e+03 8.626170923566451876e-01 6.892957396295633582e-04
3.801259446082270188e+03 8.658724439643871174e-01 6.954752971001621582e-04
3.805060705528353537e+03 8.693021926762510843e-01 6.957788219557021559e-04
3.808865766233883278e+03 8.728245514051918841e-01 7.101594266639103944e-04
3.812674632000118436e+03 8.765565729339590550e-01 7.007059138233012437e-04
3.816487306632119726e+03 8.809211464984468831e-01 6.681135500869784822e-04
3.820303793938753188e+03 8.857396979217700972e-01 7.017120290241333092e-04
3.824124097732693372e+03 8.913476934030108989e-01 7.059791198073089554e-04
3.827948221830427428e+03 8.973021078921024074e-01 6.877510752734411351e-04
3.831776170052258749e+03 9.036998124919293218e-01 6.610523063116839973e-04
3.835607946222312421e+03 9.104627594389249623e-01 6.635718317446250578e-04
3.839443554168536139e+03 9.170761747610630676e-01 6.433021443725298830e-04
3.843282997722705659e+03 9.238420870799022300e-01 5.915289765633795519e-04
3.847126280720429804e+03 9.309480226975603845e-01 5.712458116793239695e-04
3.850973407001151372e+03 9.386383323495108844e-01 6.806522671620054239e-04
3.854824380408153957e+03 9.464483590427533732e-01 5.075951562627034142e-04
3.858679204788563311e+03 9.537675678315342687e-01 4.783244742042291301e-04
3.862537883993353262e+03 9.607139806386630898e-01 5.462831406931224635e-04
3.866400421877347981e+03 9.674488567674959238e-01 5.561102419451224247e-04
3.870266822299226533e+03 9.740235629397800965e-01 5.616944542681550539e-04
3.874137089121526969e+03 9.805516124174162851e-01 5.249332905872340681e-04
3.878011226210649966e+03 9.869382754421281989e-01 5.258867678293613302e-04
3.881889237436861549e+03 9.934896858165136457e-01 5.142496335123908097e-04
3.885771126674299921e+03 9.998243450466386406e-01 5.217666488072913175e-04
3.889656897800975457e+03 1.005624098821215506e+00 4.829461681433350239e-04
3.893546554698777527e+03 1.011321257508112526e+00 5.773226196916990101e-04
3.897440101253477678e+03 1.016875928579981103e+00 6.184338014190066167e-04
3.901337541354732366e+03 1.021688618603159737e+00 5.667063518699249529e-04
3.905238878896088409e+03 1.025383618605190339e+00 5.042905812128733057e-04
3.909144117774985716e+03 1.028131137613761403e+00 5.837790776768271919e-04
3.913053261892762293e+03 1.030038901663424156e+00 7.412527110023200321e-04
3.916966315154656058e+03 1.031263460978785185e+00 7.466402559160388152e-04
3.920883281469812118e+03 1.032165371207142801e+00 5.857740271737562525e-04
3.924804164751283224e+03 1.033227719172721715e+00 5.349125966221327921e-04
3.928728968916035683e+03 1.034442332515199681e+00 5.572374644552779803e-04
3.932657697884953450e+03 1.035545090083698883e+00 5.577035701456573534e-04
3.936590355582839493e+03 1.036711851353062208e+00 5.612936873357480313e-04
3.940526945938423523e+03 1.038085334252285108e+00 5.711365725151662173e-04
3.944467472884363360e+03 1.039556363364368297e+00 5.231815217185364865e-04
3.948411940357249023e+03 1.040879819140657858e+00 5.928351742073539443e-04
3.952360352297607733e+03 1.042512838941406894e+00 5.937157722762517135e-04
3.956312712649906643e+03 1.044182134809045648e+00 5.893777585015854120e-04
3.960269025362557841e+03 1.045777873136298108e+00 5.743661657051029419e-04
3.964229294387921527e+03 1.047232948149011689e+00 5.336688826938081835e-04
3.968193523682310570e+03 1.048973294927772582e+00 6.447457026224517104e-04
3.972161717205994591e+03 1.050650019393770229e+00 6.202805980028317867e-04
3.976133878923201792e+03 1.052016668346527295e+00 5.516477434151526244e-04
3.980110012802126221e+03 1.053117717434456591e+00 6.279033688038164474e-04
3.984090122814929600e+03 1.054024858995677105e+00 7.099068978616521631e-04
3.988074212937745870e+03 1.055024852630095378e+00 6.699250566485785490e-04
3.992062287150684824e+03 1.056046298388782612e+00 6.259330884467067310e-04
3.996054349437837118e+03 1.057187287323551272e+00 6.344907081986231497e-04
4.000050403787276082e+03 1.058404895593937578e+00 6.325558214315342605e-04
4.004050454191064546e+03 1.059634050441416342e+00 6.369110069440051458e-04
4.008054504645257111e+03 1.061047778229083471e+00 6.423305279561370177e-04
4.012062559149903791e+03 1.062872795254119040e+00 6.309319574461430330e-04
4.016074621709055009e+03 1.065084469958458957e+00 6.244963275663029589e-04
4.020090696330765240e+03 1.066912369226850288e+00 6.055186328250100440e-04
4.024110787027097558e+03 1.068226944413799506e+00 5.914570601515454053e-04
4.028134897814125907e+03 1.069580972781431161e+00 5.904997224031540868e-04
4.032163032711941469e+03 1.070748111537752179e+00 6.050685405463091578e-04
4.036195195744654484e+03 1.071455187926670716e+00 5.988742217233642773e-04
4.040231390940400615e+03 1.072121329873198858e+00 6.068267847781826313e-04
4.044271622331342314e+03 1.072631898328741062e+00 5.193633185412131629e-04
4.048315893953675186e+03 1.072508043197605287e+00 5.709372998413334965e-04
4.052364209847629809e+03 1.071839220274137361e+00 6.035827935177579808e-04
4.056416574057479011e+03 1.070980579778612052e+00 5.359736441002857206e-04
4.060472990631537868e+03 1.069980347831364087e+00 4.696241453725499100e-04
4.064533463622170530e+03 1.069080854906301559e+00 5.254940482977704533e-04
4.068597997085794304e+03 1.068072304512752480e+00 5.322212718959014495e-04
4.072666595082881486e+03 1.066891486109940557e+00 4.601050429293378056e-04
4.076739261677965715e+03 1.065324317012277699e+00 5.122911264887994743e-04
4.080816000939644709e+03 1.063655290386448460e+00 5.242061777081290707e-04
4.084896816940585722e+03 1.061994071864124534e+00 4.996562973981450795e-04
4.088981713757527814e+03 1.060565343425443618e+00 5.071403317123239496e-04
4.093070695471286854e+03 1.059374914548737223e+00 4.914043485635489822e-04
4.097163766166759160e+03 1.057930404458615747e+00 4.843219405776534830e-04
4.101260929932927866e+03 1.056575481603580613e+00 4.592003368375049315e-04
4.105362190862862008e+03 1.055652890953534540e+00 4.633321081874048372e-04
4.109467553053726078e+03 1.055022924510157001e+00 4.595291311949903888e-04
4.113577020606780934e+03 1.054485923868308195e+00 4.772154462851896481e-04
4.117690597627389252e+03 1.054511450395956507e+00 4.905447300125089774e-04
4.121808288225018259e+03 1.054980848609193389e+00 4.946043600244173387e-04
4.125930096513244280e+03 1.055586871313871855e+00 4.177178345733041404e-04
4.130056026609759101e+03 1.056666956154817427e+00 3.467312206533162272e-04
4.134186082636369974e+03 1.058310687633157610e+00 3.592349844428931399e-04
4.138320268719007800e+03 1.060540046711977435e+00 4.663520708821106294e-04
4.142458588987728035e+03 1.063135293877699228e+00 4.988762948330862073e-04
4.146601047576717065e+03 1.065663146756513635e+00 3.720783195142558439e-04
4.150747648624294925e+03 1.067864218223834927e+00 4.608604108317747978e-04
4.154898396272920763e+03 1.069889072235069793e+00 5.802591073561318667e-04
4.159053294669195566e+03 1.072148345319301255e+00 5.680263165732953685e-04
4.163212347963865795e+03 1.074474466190377342e+00 5.506692457922210448e-04
4.167375560311830668e+03 1.076896328436019568e+00 6.006203875041068790e-04
4.171542935872143971e+03 1.079080105303668491e+00 6.215729739270215272e-04
4.175714478808017702e+03 1.080974265077505825e+00 6.431365018554716659e-04
4.179890193286827525e+03 1.082638743833385098e+00 6.407043108048258561e-04
4.184070083480115500e+03 1.084162937406946803e+00 5.856955910802565807e-04
4.188254153563597356e+03 1.085363835438214464e+00 5.443953935284002229e-04
4.192442407717161586e+03 1.086117917324200821e+00 5.832510683808434307e-04
4.196634850124880359e+03 1.086587674848191520e+00 6.373402454822233278e-04
4.200831484975006788e+03 1.087104462954039619e+00 6.374683594745600120e-04
4.205032316459983122e+03 1.087596573554531876e+00 5.663575766751942223e-04
4.209237348776444378e+03 1.088320025307327743e+00 4.325595765770234879e-04
4.213446586125221984e+03 1.089584817294932506e+00 4.539865424871651341e-04
4.217660032711349231e+03 1.091493950151559700e+00 5.360681193398275212e-04
4.221877692744061278e+03 1.093689406943989306e+00 3.790672252493077258e-04
4.226099570436806971e+03 1.095943943303411272e+00 3.969750208384648918e-04
4.230325670007245208e+03 1.098246546032842330e+00 4.914358090444632867e-04
4.234555995677254032e+03 1.100912534751871563e+00 4.516260678277041218e-04
4.238790551672932452e+03 1.103978220204272054e+00 4.653094930559346898e-04
4.243029342224606808e+03 1.107236506261690900e+00 5.645754993734098054e-04
4.247272371566832589e+03 1.110457274367161240e+00 6.181456885038568577e-04
4.251519643938400804e+03 1.113298881917041516e+00 6.189572899529461507e-04
4.255771163582340705e+03 1.115893491767010914e+00 5.942243571287794245e-04
4.260026934745924336e+03 1.117973532879727339e+00 5.752368571289763217e-04
4.264286961680671993e+03 1.119591511959956875e+00 5.794672302944472086e-04
4.268551248642354039e+03 1.120759215431240907e+00 5.819514410277676223e-04
4.272819799890998183e+03 1.121381963724876973e+00 5.841269877493081514e-04
4.277092619690890388e+03 1.121378552887820623e+00 5.623621308676263674e-04
4.281369712310583054e+03 1.121057479743420515e+00 5.328885032263745497e-04
4.285651082022895025e+03 1.120255839094346895e+00 4.746452286935416904e-04
4.289936733104918858e+03 1.119262996685145062e+00 4.584743270723776469e-04
4.294226669838025373e+03 1.118380000808894659e+00 4.305282846161280377e-04
4.298520896507864563e+03 1.117500820378379389e+00 3.144760599016812740e-04
4.302819417404373780e+03 1.116309037256585146e+00 3.186865433452762604e-04
4.307122236821779552e+03 1.114886062716685444e+00 3.188155332364797818e-04
4.311429359058603040e+03 1.113355341124906417e+00 2.419235069986012856e-04
4.315740788417662770e+03 1.111882020872022370e+00 2.027771742965787298e-04
4.320056529206081905e+03 1.110604232326172003e+00 2.094409164089464223e-04
4.324376585735290064e+03 1.109697989662059570e+00 3.526937453902930604e-04
4.328700962321026054e+03 1.108695780131072617e+00 3.251357866916788648e-04
4.333029663283348782e+03 1.107629514550401595e+00 3.075364477089809635e-04
