# starting wavelength: 4117.960
# ending wavelength: 8917.430
# wav flux eflux
4.121808288225018259e+03 7.339242051845874526e-01 6.761828410540563460e-03
4.125930096513244280e+03 7.398700648491854936e-01 4.976660948746857924e-03
4.130056026609759101e+03 7.425307543958237222e-01 4.408120382747205204e-03
4.134186082636369974e+03 7.426076805014352189e-01 4.273150810652034080e-03
4.138320268719007800e+03 7.421264481748572894e-01 3.484803764252000953e-03
4.142458588987728035e+03 7.411101901598158292e-01 2.973463035537110121e-03
4.146601047576717065e+03 7.403794545787775183e-01 2.379237027287635017e-03
4.150747648624294925e+03 7.395412528175476785e-01 1.939626619105285551e-03
4.154898396272920763e+03 7.384722011203251890e-01 1.585092117825905251e-03
4.159053294669195566e+03 7.372371591535065161e-01 1.378764591964311758e-03
4.163212347963865795e+03 7.358781410184960237e-01 1.224497531569285723e-03
4.167375560311830668e+03 7.346263671403855389e-01 1.093525579315547712e-03
4.171542935872143971e+03 7.334994113671307048e-01 1.008684474227479260e-03
4.175714478808017702e+03 7.326069412064155628e-01 9.593771165010046712e-04
4.179890193286827525e+03 7.322874267664172265e-01 9.009141344051152392e-04
4.184070083480115500e+03 7.327822410520669072e-01 8.674464216085237163e-04
4.188254153563597356e+03 7.340812580297992884e-01 9.053195323656244809e-04
4.192442407717161586e+03 7.357350166917462353e-01 8.990303793035334503e-04
4.196634850124880359e+03 7.379295414755310256e-01 9.204495004952759161e-04
4.200831484975006788e+03 7.405923224381953940e-01 9.295372333284728904e-04
4.205032316459983122e+03 7.436604711199275020e-01 9.364625901455738951e-04
4.209237348776444378e+03 7.474112234154021150e-01 9.016886856507962209e-04
4.213446586125221984e+03 7.513664038774476861e-01 8.859101823230200240e-04
4.217660032711349231e+03 7.555851753698207274e-01 8.920353445150181913e-04
4.221877692744061278e+03 7.604440415224389405e-01 9.278069610185123682e-04
4.226099570436806971e+03 7.657026778338481554e-01 1.102139469725310324e-03
4.230325670007245208e+03 7.711013435570501784e-01 1.197469446734183984e-03
4.234555995677254032e+03 7.767767944844188310e-01 1.288008310743952046e-03
4.238790551672932452e+03 7.823173943941550412e-01 1.295046875316377107e-03
4.243029342224606808e+03 7.876179071733936388e-01 1.234114081766182931e-03
4.247272371566832589e+03 7.926514798865696987e-01 1.084698537799769821e-03
4.251519643938400804e+03 7.970545299715467991e-01 1.008943116488086097e-03
4.255771163582340705e+03 8.011788304048407250e-01 9.992694868575745498e-04
4.260026934745924336e+03 8.044983201285971219e-01 1.058706551008710200e-03
4.264286961680671993e+03 8.073933735672256251e-01 1.090796916650875210e-03
4.268551248642354039e+03 8.099326717852719515e-01 1.096768574019633827e-03
4.272819799890998183e+03 8.113060200142191425e-01 9.722902620831018602e-04
4.277092619690890388e+03 8.132460079199038683e-01 9.781736756573366533e-04
4.281369712310583054e+03 8.146830649623471032e-01 1.007948586723956576e-03
4.285651082022895025e+03 8.156788557001007911e-01 1.124481024347050726e-03
4.289936733104918858e+03 8.167695566745176716e-01 1.256048925938515592e-03
4.294226669838025373e+03 8.178552575518286405e-01 1.313241298493789296e-03
4.298520896507864563e+03 8.191897664357800091e-01 1.329888151039874391e-03
4.302819417404373780e+03 8.211017669130395991e-01 1.301321958421862738e-03
4.307122236821779552e+03 8.232474283831610062e-01 1.249246505950035854e-03
4.311429359058603040e+03 8.259903903393689406e-01 1.180440338202258131e-03
4.315740788417662770e+03 8.293802002977893606e-01 1.086945954838870699e-03
4.320056529206081905e+03 8.335062045383632157e-01 1.151658078866606453e-03
4.324376585735290064e+03 8.390065492591343155e-01 1.252822720665790939e-03
4.328700962321026054e+03 8.451102771538285818e-01 1.226838405504381653e-03
4.333029663283348782e+03 8.512789617665127428e-01 1.175774346100222139e-03
4.337362692946633615e+03 8.578393793155945080e-01 1.088146300460157310e-03
4.341700055639581478e+03 8.646512581127189234e-01 1.059777261780430043e-03
4.346041755695222491e+03 8.715294221360923022e-01 1.098276852062428236e-03
4.350387797450919606e+03 8.778263762925886393e-01 1.136786799080273394e-03
4.354738185248371337e+03 8.844364370611463855e-01 1.186996752883451170e-03
4.359092923433621763e+03 8.912199062022949647e-01 1.127006397397092288e-03
4.363452016357056891e+03 8.974842965123235317e-01 1.028082578022850762e-03
4.367815468373414660e+03 9.034217798136225941e-01 1.082304909809068006e-03
4.372183283841789489e+03 9.087500662634514503e-01 1.150398674261360896e-03
4.376555467125633186e+03 9.136126376978492836e-01 1.230739700524368990e-03
4.380932022592760404e+03 9.181799983424225875e-01 1.207556352345532128e-03
4.385312954615354101e+03 9.224479575459590963e-01 1.042704224263238388e-03
4.389698267569970994e+03 9.270539970247204664e-01 8.153893545301642547e-04
4.394087965837542470e+03 9.321524412434909479e-01 7.831125307778250997e-04
4.398482053803381859e+03 9.375134870187329383e-01 8.149525614015219223e-04
4.402880535857186260e+03 9.432591428746781581e-01 8.171265602701664656e-04
4.407283416393044718e+03 9.494424412446313966e-01 8.410079339330521573e-04
4.411690699809440048e+03 9.557017243640837378e-01 8.711743588262048105e-04
4.416102390509250654e+03 9.625950659155116940e-01 9.344118946778743294e-04
4.420518492899761441e+03 9.701797572764421229e-01 1.074978477312318881e-03
4.424939011392662906e+03 9.776396338004661457e-01 1.107340617243922050e-03
4.429363950404056595e+03 9.852154751247070852e-01 1.131548943841807677e-03
4.433793314354462382e+03 9.928565936640797451e-01 1.164106044658723806e-03
4.438227107668818462e+03 1.000666117791738641e+00 1.164735148884715396e-03
4.442665334776488635e+03 1.008023588949043869e+00 1.044590375676829894e-03
4.447108000111265937e+03 1.014674381592753027e+00 9.685344988187856007e-04
4.451555108111379013e+03 1.020398451754256808e+00 9.556513115739814204e-04
4.456006663219492111e+03 1.024782785519705364e+00 1.099464966841142820e-03
4.460462669882713271e+03 1.028748582290711422e+00 1.171036721528037053e-03
4.464923132552597053e+03 1.032730874412605804e+00 1.223891498635577878e-03
4.469388055685150903e+03 1.036182192057132356e+00 1.293697382420231669e-03
4.473857443740837880e+03 1.039543632220349512e+00 1.301512776122103546e-03
4.478331301184580298e+03 1.042429266243017461e+00 1.200450154287022002e-03
4.482809632485766087e+03 1.045311436049113807e+00 1.132772555921321336e-03
4.487292442118253348e+03 1.048180494759110459e+00 1.126432594899864307e-03
4.491779734560373072e+03 1.050890393386085808e+00 1.106361135985917121e-03
4.496271514294934605e+03 1.053760734427643619e+00 1.163292792228226178e-03
4.500767785809231100e+03 1.056818468840763581e+00 1.160148422684063266e-03
4.505268553595042249e+03 1.060589922880116776e+00 1.033908613355498819e-03
4.509773822148638828e+03 1.064103325563600100e+00 9.498620864869507328e-04
4.514283595970789065e+03 1.066353464280883845e+00 9.258361448707687867e-04
4.518797879566761367e+03 1.068502000061456902e+00 9.535637274406952909e-04
4.523316677446328868e+03 1.070590091762707363e+00 9.189498918259647077e-04
4.527839994123776705e+03 1.071507093657568133e+00 9.195694817113037305e-04
4.532367834117902021e+03 1.071644272024198319e+00 9.047748774519559370e-04
4.536900201952022144e+03 1.071184044555305803e+00 9.453395783013114704e-04
4.541437102153975502e+03 1.069875771636930262e+00 9.453121249026203831e-04
4.545978539256130716e+03 1.068455850574902666e+00 8.851798185770531902e-04
4.550524517795388419e+03 1.066128717399049908e+00 9.574353219252220186e-04
4.555075042313184895e+03 1.063124972985040051e+00 1.120174748443420343e-03
4.559630117355500261e+03 1.059192710695409101e+00 9.802510363611572665e-04
4.564189747472856652e+03 1.056334075198832156e+00 9.786340477005205443e-04
4.568753937220330954e+03 1.053150925594536824e+00 7.978306563015194475e-04
4.573322691157552981e+03 1.050556808877543213e+00 7.920275512790901380e-04
4.577896013848711846e+03 1.048930794725906335e+00 8.929614183905778841e-04
4.582473909862562323e+03 1.047573720124322927e+00 8.249314384861928780e-04
4.587056383772426670e+03 1.046287070098297800e+00 9.263577327246958534e-04
4.591643440156200086e+03 1.045737705231394976e+00 9.268093965354803508e-04
4.596235083596357981e+03 1.045551813537275221e+00 9.740600208758783997e-04
4.600831318679955984e+03 1.046453940706582264e+00 1.158203170326192830e-03
4.605432149998637215e+03 1.046907935129154144e+00 1.266277566966207170e-03
4.610037582148637739e+03 1.045862660429775604e+00 1.668616325905319595e-03
4.614647619730787483e+03 1.045334649009401762e+00 1.883976809114487746e-03
4.619262267350520233e+03 1.045240812158723553e+00 1.856104393696415226e-03
4.623881529617872729e+03 1.045465390976139552e+00 2.081929355087405384e-03
4.628505411147491941e+03 1.045811859868992277e+00 2.521231130838545807e-03
4.633133916558640522e+03 1.044390309195740940e+00 2.507341112810659856e-03
4.637767050475200449e+03 1.040194152396033411e+00 2.446753984052457438e-03
4.642404817525677572e+03 1.034058088004702558e+00 2.402288468840052104e-03
4.647047222343205249e+03 1.025516614241946955e+00 2.390114018058886024e-03
4.651694269565549803e+03 1.014615853765434172e+00 2.361716477883002950e-03
4.656345963835116891e+03 1.000846414431067810e+00 2.458050113012706216e-03
4.661002309798953320e+03 9.849419988185105224e-01 2.602234804732113122e-03
4.665663312108753416e+03 9.678300960290134869e-01 2.635280986213045518e-03
4.670328975420864481e+03 9.504937836964517661e-01 2.728268596078824593e-03
4.674999304396286789e+03 9.332886260826452896e-01 2.427127636563977588e-03
4.679674303700684504e+03 9.178609046531460702e-01 1.935956634602630823e-03
4.684353978004386590e+03 9.061608023504167386e-01 2.075369604714302155e-03
4.689038331982392265e+03 8.981216035895176475e-01 1.876497589578935126e-03
4.693727370314376458e+03 8.922191187785640798e-01 1.908268690025768368e-03
4.698421097684692540e+03 8.878890487938237985e-01 2.272943723073316859e-03
4.703119518782378691e+03 8.881805064583045972e-01 2.068415636543749665e-03
4.707822638301162442e+03 8.928371710300362363e-01 2.385535994326017616e-03
4.712530460939465229e+03 9.014959246319016462e-01 2.954848364194510423e-03
4.717242991400406027e+03 9.117190514269863932e-01 2.900441963141959546e-03
4.721960234391808626e+03 9.218899866533665222e-01 2.796299329882694865e-03
4.726682194626201635e+03 9.317186701181990882e-01 2.784718885049513107e-03
4.731408876820829391e+03 9.415640804335331238e-01 2.791080456376061978e-03
4.736140285697651962e+03 9.515246742253148371e-01 2.756545233076952706e-03
4.740876425983350600e+03 9.610211574000327994e-01 2.731887902399477309e-03
4.745617302409335934e+03 9.685471025629863728e-01 2.782047873339364534e-03
4.750362919711747054e+03 9.758759730140064148e-01 2.725589857105879810e-03
4.755113282631459697e+03 9.822074545179040328e-01 2.662642162528848673e-03
4.759868395914093526e+03 9.871859004660751280e-01 2.504129814793209369e-03
4.764628264310008490e+03 9.918136857652346539e-01 2.458739607007233256e-03
4.769392892574320285e+03 9.967331793751446067e-01 2.480044354689024070e-03
4.774162285466896719e+03 1.002259874990837130e+00 2.005035450719988739e-03
4.778936447752364984e+03 1.005889422070940675e+00 1.522735771434798957e-03
4.783715384200118933e+03 1.006735069513835512e+00 1.749037083069507814e-03
4.788499099584319993e+03 1.005700627348421472e+00 1.437345875672896853e-03
4.793287598683906253e+03 1.005415531295362985e+00 1.172117574814037595e-03
4.798080886282591564e+03 1.005718778107774769e+00 1.259781357458622996e-03
4.802878967168876443e+03 1.006409303539020472e+00 1.234415533874859893e-03
4.807681846136046261e+03 1.006949227521582335e+00 1.232945558843570859e-03
4.812489527982183972e+03 1.007699889638765445e+00 1.330503101829781610e-03
4.817302017510168298e+03 1.009451095859775993e+00 1.399030028019329587e-03
4.822119319527679181e+03 1.011681547900033173e+00 1.493566414531838967e-03
4.826941438847208701e+03 1.016258729630991731e+00 1.499602059767463167e-03
4.831768380286057436e+03 1.022046959468351446e+00 1.532862824799736826e-03
4.836600148666345376e+03 1.028453011889888469e+00 1.560365345818252045e-03
4.841436748815013743e+03 1.036447612105040772e+00 1.677662305447296699e-03
4.846278185563829538e+03 1.044384952447628301e+00 1.776218155226322228e-03
4.851124463749395545e+03 1.051340580535699676e+00 1.762676805988204042e-03
4.855975588213146693e+03 1.057566182824505319e+00 1.729078251828258979e-03
4.860831563801360971e+03 1.063310615024567696e+00 1.630219235208775876e-03
4.865692395365163975e+03 1.068550029582407301e+00 1.364481194158928589e-03
4.870558087760530725e+03 1.071450273883653104e+00 1.420721586850142489e-03
4.875428645848292945e+03 1.072618864783404069e+00 1.325352843456212553e-03
4.880304074494142696e+03 1.072582157354676102e+00 8.727406164299938507e-04
4.885184378568638749e+03 1.072484545107960985e+00 8.673401737424726388e-04
4.890069562947209306e+03 1.072147263438762987e+00 8.915345329441563956e-04
4.894959632510157462e+03 1.071314826573641188e+00 8.709718225939170342e-04
4.899854592142669389e+03 1.070354240973327098e+00 9.341070751173650120e-04
4.904754446734813428e+03 1.069296019484995641e+00 1.201381150667203820e-03
4.909659201181550088e+03 1.068866309431902417e+00 1.317609366933311611e-03
4.914568860382732964e+03 1.068784275507602022e+00 1.093856619650266032e-03
4.919483429243117826e+03 1.070829952017196440e+00 1.023850604102075849e-03
4.924402912672362618e+03 1.074236866165980464e+00 1.116223878828477610e-03
4.929327315585036558e+03 1.079081376236678214e+00 1.682197911914552193e-03
4.934256642900622865e+03 1.084897448146210586e+00 1.975555712705019933e-03
4.939190899543525120e+03 1.090950856628239318e+00 2.010787998883891391e-03
4.944130090443070912e+03 1.095237332481552528e+00 1.719903327156452376e-03
4.949074220533515472e+03 1.098082229025306278e+00 1.782857689199835978e-03
4.954023294754050767e+03 1.099990984585027309e+00 2.199752047871018478e-03
4.958977318048806410e+03 1.101526926195262712e+00 2.650613641038100654e-03
4.963936295366856939e+03 1.102910620347215431e+00 2.674291661523352671e-03
4.968900231662225451e+03 1.105425928795636725e+00 2.209211622627053201e-03
4.973869131893889062e+03 1.109621745541639060e+00 1.822129347657585685e-03
4.978843001025784361e+03 1.115941538578823167e+00 1.896507607890638835e-03
4.983821844026811959e+03 1.124300289589030388e+00 2.205877709200512737e-03
4.988805665870840130e+03 1.133948296955968660e+00 2.292049048028255414e-03
4.993794471536712990e+03 1.144016632486379192e+00 1.936463481426837878e-03
4.998788266008251412e+03 1.153979326105611714e+00 1.569732670782207021e-03
5.003787054274261209e+03 1.163458602459749969e+00 1.270337807364644613e-03
5.008790841328536771e+03 1.171071576245971801e+00 1.271455199825583492e-03
5.013799632169867436e+03 1.176994481927864378e+00 1.230661877632586694e-03
5.018813431802038394e+03 1.181289760849666415e+00 1.197572584114632143e-03
5.023832245233842514e+03 1.183991620381559917e+00 1.231942111222027875e-03
5.028856077479077612e+03 1.185380866843049441e+00 1.284760306879504906e-03
5.033884933556558281e+03 1.185803667411249984e+00 1.030328770517407750e-03
5.038918818490116792e+03 1.184408398063023116e+00 1.378485715536835335e-03
5.043957737308608557e+03 1.182350210022679038e+00 1.953770384579038392e-03
5.049001695045918495e+03 1.180754201971398354e+00 2.116295145529553060e-03
5.054050696740966487e+03 1.179939521832991112e+00 2.017969176463751263e-03
5.059104747437709193e+03 1.181231915201311100e+00 1.608325206881623236e-03
5.064163852185148244e+03 1.185018709477240417e+00 1.434080224755241665e-03
5.069228016037335692e+03 1.191355704058244758e+00 1.497107017006413547e-03
5.074297244053374015e+03 1.200784895881733538e+00 1.823826790276105586e-03
5.079371541297429758e+03 1.212367925491366627e+00 1.797386137993374966e-03
5.084450912838728073e+03 1.225292843618275729e+00 1.412145012573074159e-03
5.089535363751569093e+03 1.237945480008616927e+00 1.126761514988179483e-03
5.094624899115322478e+03 1.250671804639878149e+00 9.352982942306971954e-04
5.099719524014439230e+03 1.262822078405382964e+00 1.145808918569974971e-03
5.104819243538455339e+03 1.274260076974666367e+00 1.390133087608168977e-03
5.109924062781995417e+03 1.285748404617264695e+00 1.240453137340694024e-03
5.115033986844779065e+03 1.298004713422227896e+00 9.682808969633814643e-04
5.120149020831625421e+03 1.310800769949475697e+00 8.971479578785275218e-04
5.125269169852458617e+03 1.324510991838540264e+00 1.170841772127751649e-03
5.130394439022313236e+03 1.338084048024710704e+00 1.141980432400179369e-03
5.135524833461337039e+03 1.351354588463019590e+00 1.096690233738553677e-03
5.140660358294800062e+03 1.363973029554995664e+00 1.055144837452474818e-03
5.145801018653096435e+03 1.376090398742155552e+00 1.071134016640341293e-03
5.150946819671751655e+03 1.387528011931540517e+00 1.096406901013429304e-03
5.156097766491425318e+03 1.398680034761772273e+00 1.088515841462013318e-03
5.161253864257918394e+03 1.408600011705527733e+00 1.044856844847001642e-03
5.166415118122177773e+03 1.418067755236181782e+00 9.729277133239130166e-04
5.171581533240301724e+03 1.427082189327311568e+00 9.875212110166569409e-04
5.176753114773543530e+03 1.435433493022238771e+00 9.920265103888653048e-04
5.181929867888318768e+03 1.443969366370266627e+00 9.694513725930167412e-04
5.187111797756208944e+03 1.451873431527203495e+00 9.935595276263540446e-04
5.192298909553966951e+03 1.459952874826016656e+00 9.297962797477784223e-04
5.197491208463522526e+03 1.467299797741138612e+00 1.008660714607406868e-03
5.202688699671987706e+03 1.474555562110683837e+00 8.995781642619638929e-04
5.207891388371661378e+03 1.481989028642406447e+00 9.533924586874973359e-04
5.213099279760034733e+03 1.489391400483566663e+00 1.004470440022255107e-03
5.218312379039796724e+03 1.496634514176102826e+00 1.009802365828697812e-03
5.223530691418837705e+03 1.504365267437920872e+00 9.415203122688210963e-04
5.228754222110258524e+03 1.511533857326105901e+00 8.875773403903371899e-04
5.233982976332370527e+03 1.518541506104964078e+00 8.962707530880264107e-04
5.239216959308704645e+03 1.525179757664980817e+00 1.090473804404560763e-03
5.244456176268015042e+03 1.531894574576365686e+00 1.004888218789915877e-03
5.249700632444284565e+03 1.539334527114035289e+00 9.845287561173860728e-04
5.254950333076731113e+03 1.546791682888683850e+00 9.696089169906331158e-04
5.260205283409809454e+03 1.554859253539668584e+00 8.497975178112137295e-04
5.265465488693221232e+03 1.564066164845739237e+00 8.440091206598269134e-04
5.270730954181915877e+03 1.573997194639592090e+00 8.518471222745598124e-04
5.276001685136099695e+03 1.584604768504104033e+00 1.019247633564289391e-03
5.281277686821237694e+03 1.595917137639478067e+00 1.064412390476988240e-03
5.286558964508059944e+03 1.606101385740702936e+00 1.009393535004779333e-03
5.291845523472569766e+03 1.615876856448945187e+00 9.990153118799485320e-04
5.297137368996044643e+03 1.624950117527039994e+00 1.009330749999390190e-03
5.302434506365042580e+03 1.633589528938598434e+00 1.155773383431024258e-03
5.307736940871409388e+03 1.642547302845530188e+00 1.155848308666161542e-03
5.313044677812282316e+03 1.651036224228358051e+00 1.106323082881248508e-03
5.318357722490096421e+03 1.659274483181266024e+00 1.065861117301318377e-03
5.323676080212588204e+03 1.667881679327435140e+00 1.090512211187668994e-03
5.328999756292802886e+03 1.675961857943905731e+00 1.091704513536282490e-03
5.334328756049097137e+03 1.683637150774248248e+00 1.084406582652382286e-03
5.339663084805148173e+03 1.691008141317858149e+00 1.096699775236291202e-03
5.345002747889954662e+03 1.698860389494779355e+00 1.068007773185300664e-03
5.350347750637846730e+03 1.706905874822771452e+00 9.617051076744849783e-04
5.355698098388485960e+03 1.713783562400225557e+00 1.141433090807351079e-03
5.361053796486876308e+03 1.721139572155451880e+00 1.114000682444401960e-03
5.366414850283365013e+03 1.727933048688333750e+00 9.887631101304418003e-04
