# starting wavelength: 3681.830
# ending wavelength: 7449.070
# wav flux eflux
3.685285263327964003e+03 6.433308455887779553e-01 1.269303215124096933e-02
3.688970548591293209e+03 6.245094432293482045e-01 9.074445696802355826e-03
3.692659519139885560e+03 6.111347075157113062e-01 6.711218917774687542e-03
3.696352178659026777e+03 6.029116800870293336e-01 5.057132781676390056e-03
3.700048530837686940e+03 5.989004787329134105e-01 4.031997501208750556e-03
3.703748579368525952e+03 5.977903631645394844e-01 3.388034400881581674e-03
3.707452327947895355e+03 5.985944983528203034e-01 3.040452791410474392e-03
3.711159780275844696e+03 6.000697192256700951e-01 2.437980163112917018e-03
3.714870940056121526e+03 6.026275848236949395e-01 2.044218572423074209e-03
3.718585810996179134e+03 6.056986237971637710e-01 1.883754157481232769e-03
3.722304396807176545e+03 6.086152278470557953e-01 1.823368020934408628e-03
3.726026701203984885e+03 6.115272773053990196e-01 1.657135922035661048e-03
3.729752727905190113e+03 6.142526866513916550e-01 1.525865378495823823e-03
3.733482480633096657e+03 6.161619358779658606e-01 1.572516613962685527e-03
3.737215963113731050e+03 6.177178450335130133e-01 1.577717293658287973e-03
3.740953179076846027e+03 6.186426617723769228e-01 1.660147334344054667e-03
3.744694132255923705e+03 6.198786030807178493e-01 1.592108069859592785e-03
3.748438826388181042e+03 6.210783783576065975e-01 1.544540954016370956e-03
3.752187265214570289e+03 6.214240328362485855e-01 1.569262666381254301e-03
3.755939452479786269e+03 6.214090904384979019e-01 1.551269201630405816e-03
3.759695391932267285e+03 6.205947276021409609e-01 1.516140118068046464e-03
3.763455087324201031e+03 6.190232344115071950e-01 1.492148786845741556e-03
3.767218542411526414e+03 6.169533595876588450e-01 1.526136474932983551e-03
3.770985760953939007e+03 6.144461946751818004e-01 1.538347073842490087e-03
3.774756746714894234e+03 6.116090022533900994e-01 1.494231164087679586e-03
3.778531503461610555e+03 6.076652572962979448e-01 1.663474389410074137e-03
3.782310034965073100e+03 6.033114704905266912e-01 1.986826012955431129e-03
3.786092345000039586e+03 5.987391390354355192e-01 2.324818909108959750e-03
3.789878437345040766e+03 5.956133032560175788e-01 2.384204066213002973e-03
3.793668315782387253e+03 5.921301665599099096e-01 2.618909069163542509e-03
3.797461984098170888e+03 5.891867233297238826e-01 2.912439810192235523e-03
3.801259446082270188e+03 5.870121180253088378e-01 3.058308979492067783e-03
3.805060705528353537e+03 5.846013672176529896e-01 2.783775462560158197e-03
3.808865766233883278e+03 5.855603764366674735e-01 2.530384407062931211e-03
3.812674632000118436e+03 5.887018032144504254e-01 2.535274719275733713e-03
3.816487306632119726e+03 5.935801026986190498e-01 2.711913489989509728e-03
3.820303793938753188e+03 5.995524160239295020e-01 2.796792931334010548e-03
3.824124097732693372e+03 6.074005985544623787e-01 2.954132621140324443e-03
3.827948221830427428e+03 6.156705170251061121e-01 3.054601481099658480e-03
3.831776170052258749e+03 6.259020092387029832e-01 3.111253300424675610e-03
3.835607946222312421e+03 6.371599632762052767e-01 3.085950164652528655e-03
3.839443554168536139e+03 6.495383756491753813e-01 2.990750408644092008e-03
3.843282997722705659e+03 6.633074971798263997e-01 2.511501842677538177e-03
3.847126280720429804e+03 6.759414436216356625e-01 2.314526545717284639e-03
3.850973407001151372e+03 6.895362903605023464e-01 2.178649807871907776e-03
3.854824380408153957e+03 7.017789122879287689e-01 2.105598033472192224e-03
3.858679204788563311e+03 7.127319976031720739e-01 2.271245377017412810e-03
3.862537883993353262e+03 7.215392352626561756e-01 2.284339894554226081e-03
3.866400421877347981e+03 7.282019552034024734e-01 2.336754611862358871e-03
3.870266822299226533e+03 7.338548431446384468e-01 2.341755224735043127e-03
3.874137089121526969e+03 7.372412210071312977e-01 2.447246052942022437e-03
3.878011226210649966e+03 7.389940743330459805e-01 2.649063434156829957e-03
3.881889237436861549e+03 7.401338764384660651e-01 2.683714384089432806e-03
3.885771126674299921e+03 7.404924337480182084e-01 2.740319877309320418e-03
3.889656897800975457e+03 7.401292015774666444e-01 2.812713825879877179e-03
3.893546554698777527e+03 7.389484382642088622e-01 2.947297737275605348e-03
3.897440101253477678e+03 7.368389849894828592e-01 2.949240260282294090e-03
3.901337541354732366e+03 7.352020032943112904e-01 2.895298775225554466e-03
3.905238878896088409e+03 7.335813655312829473e-01 2.939124005821642637e-03
3.909144117774985716e+03 7.322417869917398070e-01 2.875601270895520624e-03
3.913053261892762293e+03 7.305785163244713498e-01 2.663995218878537422e-03
3.916966315154656058e+03 7.296251252867160808e-01 2.845248159732693960e-03
3.920883281469812118e+03 7.308090382205878477e-01 2.913538811932578701e-03
3.924804164751283224e+03 7.322653243509102960e-01 2.699327193290764967e-03
3.928728968916035683e+03 7.344076541656940904e-01 2.407953906788315879e-03
3.932657697884953450e+03 7.365561726046040425e-01 2.346705676026232101e-03
3.936590355582839493e+03 7.393260126450016401e-01 2.304755774170272505e-03
3.940526945938423523e+03 7.427794916187681062e-01 2.400632387412611306e-03
3.944467472884363360e+03 7.458449424085794588e-01 2.437780010859637910e-03
3.948411940357249023e+03 7.488701210758815785e-01 2.408911086746643414e-03
3.952360352297607733e+03 7.502914647089974354e-01 1.430083425661711786e-03
3.956312712649906643e+03 7.559269804365549295e-01 1.634143452295678785e-03
3.960269025362557841e+03 7.620352835570500805e-01 1.796994739214351731e-03
3.964229294387921527e+03 7.690868828721075801e-01 1.665225756380395161e-03
3.968193523682310570e+03 7.765473197859347199e-01 1.666586665789348415e-03
3.972161717205994591e+03 7.848835283640274163e-01 1.648976501784496897e-03
3.976133878923201792e+03 7.923104063433645816e-01 1.657460475743133830e-03
3.980110012802126221e+03 8.004465757993834973e-01 1.680538662069732021e-03
3.984090122814929600e+03 8.090574545266676632e-01 1.465592845471257394e-03
3.988074212937745870e+03 8.169681617553217201e-01 1.397381190675275322e-03
3.992062287150684824e+03 8.233721839094995110e-01 1.419548944695908817e-03
3.996054349437837118e+03 8.289551734952974593e-01 1.351369771591152567e-03
4.000050403787276082e+03 8.339846532652878119e-01 1.348397767488758621e-03
4.004050454191064546e+03 8.385467685441074792e-01 1.378421979017179942e-03
4.008054504645257111e+03 8.417478631165726810e-01 1.441125505065157363e-03
4.012062559149903791e+03 8.452895453809032844e-01 1.501193556583727950e-03
4.016074621709055009e+03 8.479132766538425292e-01 1.956436929389949314e-03
4.020090696330765240e+03 8.513972559000659857e-01 1.941247822767419844e-03
4.024110787027097558e+03 8.549170411846022111e-01 1.940728325254678730e-03
4.028134897814125907e+03 8.588067757625081899e-01 1.823470621490528090e-03
4.032163032711941469e+03 8.648408754430182421e-01 2.178293464067775943e-03
4.036195195744654484e+03 8.703593281263058978e-01 2.251302558933809123e-03
4.040231390940400615e+03 8.759242889394828202e-01 2.289185295829287720e-03
4.044271622331342314e+03 8.830807655346329943e-01 2.174136076672597648e-03
4.048315893953675186e+03 8.891680208611171254e-01 1.948676253906266986e-03
4.052364209847629809e+03 8.936261342052661538e-01 1.875687092050773918e-03
4.056416574057479011e+03 8.971851215852703065e-01 1.778150374501407142e-03
4.060472990631537868e+03 8.996582271151569721e-01 1.672623401669885322e-03
4.064533463622170530e+03 8.987197775096426033e-01 1.712202342554847677e-03
4.068597997085794304e+03 8.966276019834006350e-01 1.988271795421663220e-03
4.072666595082881486e+03 8.936080944773238111e-01 2.330145431445655724e-03
4.076739261677965715e+03 8.906393093033445618e-01 2.420768914168835474e-03
4.080816000939644709e+03 8.899260263974506646e-01 2.610995320789566854e-03
4.084896816940585722e+03 8.932146622593382101e-01 2.374945108693975529e-03
4.088981713757527814e+03 9.013359319910243528e-01 2.499208983593457709e-03
4.093070695471286854e+03 9.119477983136073940e-01 2.496115305097780512e-03
4.097163766166759160e+03 9.257522022512908455e-01 2.626276057075735068e-03
4.101260929932927866e+03 9.417724791311349319e-01 2.918088279436537816e-03
4.105362190862862008e+03 9.599143688221026816e-01 3.130183879774403859e-03
4.109467553053726078e+03 9.792771172277595637e-01 3.323394144170514417e-03
4.113577020606780934e+03 9.964740751419787212e-01 2.326075411838172003e-03
4.117690597627389252e+03 1.009021215285104800e+00 2.030297342857145370e-03
4.121808288225018259e+03 1.017230927331399082e+00 2.477787093103288058e-03
4.125930096513244280e+03 1.022519467328566689e+00 2.648465754410967744e-03
4.130056026609759101e+03 1.023606341751220450e+00 2.518920808901861739e-03
4.134186082636369974e+03 1.022714716316315720e+00 2.059995192267891941e-03
4.138320268719007800e+03 1.021127475682904517e+00 2.276915583946537407e-03
4.142458588987728035e+03 1.016890147274257972e+00 2.284454920557474865e-03
4.146601047576717065e+03 1.010768614342205884e+00 2.498682859109462289e-03
4.150747648624294925e+03 1.004164771880098561e+00 2.934824404496075897e-03
4.154898396272920763e+03 9.984158801758576951e-01 2.970276934686968441e-03
4.159053294669195566e+03 9.937801785752736761e-01 2.819277241198351030e-03
4.163212347963865795e+03 9.918951984578758818e-01 2.875209747084007603e-03
4.167375560311830668e+03 9.919333549929563176e-01 2.855728066760336494e-03
4.171542935872143971e+03 9.927109438412073938e-01 2.845309901110642126e-03
4.175714478808017702e+03 9.950119375792748633e-01 2.848776715494616592e-03
4.179890193286827525e+03 9.989810493699434746e-01 2.882497608016350299e-03
4.184070083480115500e+03 1.004641516038352167e+00 2.848688261484144495e-03
4.188254153563597356e+03 1.013157414412894530e+00 2.307281315144201535e-03
4.192442407717161586e+03 1.021747453747204659e+00 2.154731269596015224e-03
4.196634850124880359e+03 1.030212491740116310e+00 2.295672532811981505e-03
4.200831484975006788e+03 1.038607383007346563e+00 2.307401388687242705e-03
4.205032316459983122e+03 1.048294843109623731e+00 2.046087837709408171e-03
4.209237348776444378e+03 1.059110417932682457e+00 1.857588162681432205e-03
4.213446586125221984e+03 1.072031568774368226e+00 2.722420143516918536e-03
4.217660032711349231e+03 1.085197165686711207e+00 2.370234770633366291e-03
4.221877692744061278e+03 1.096949984761416363e+00 1.778729280450219415e-03
4.226099570436806971e+03 1.106180721347336693e+00 2.037970631725463232e-03
4.230325670007245208e+03 1.114558504786803406e+00 2.041560064614685120e-03
4.234555995677254032e+03 1.121758422058368287e+00 2.134353752537838760e-03
4.238790551672932452e+03 1.128213065110439395e+00 2.096003453725314627e-03
4.243029342224606808e+03 1.134017307025696253e+00 2.167212246067531326e-03
4.247272371566832589e+03 1.139433358380643524e+00 2.036125123613379256e-03
4.251519643938400804e+03 1.145415445390767895e+00 1.862192163261931028e-03
4.255771163582340705e+03 1.152379184880130358e+00 1.821732932311102837e-03
4.260026934745924336e+03 1.160081620535769131e+00 1.810640576335342377e-03
4.264286961680671993e+03 1.169060613674427485e+00 1.862736161208463932e-03
4.268551248642354039e+03 1.179708423626907976e+00 1.832985151870120078e-03
4.272819799890998183e+03 1.189488310082043032e+00 1.597514334472769325e-03
4.277092619690890388e+03 1.198631809643667667e+00 1.558297337873462652e-03
4.281369712310583054e+03 1.206724471856380321e+00 1.482794532004657294e-03
4.285651082022895025e+03 1.214221244305303316e+00 1.421078936091133092e-03
4.289936733104918858e+03 1.222327872281238736e+00 1.414135549701260814e-03
4.294226669838025373e+03 1.230605223749864363e+00 1.483859249475517417e-03
4.298520896507864563e+03 1.238624429184368436e+00 1.561065288025376054e-03
4.302819417404373780e+03 1.246998098938012944e+00 1.448881990913119307e-03
4.307122236821779552e+03 1.255227743070765234e+00 1.262903973663483288e-03
4.311429359058603040e+03 1.264336689910723344e+00 1.264731118471789945e-03
4.315740788417662770e+03 1.273051166086875741e+00 1.266066501992538619e-03
4.320056529206081905e+03 1.282851713703834884e+00 1.302982865294346213e-03
4.324376585735290064e+03 1.291571888438380666e+00 1.299731036383957846e-03
4.328700962321026054e+03 1.299587322453017002e+00 1.229914091460610056e-03
4.333029663283348782e+03 1.306696145331212255e+00 1.162394469564745130e-03
4.337362692946633615e+03 1.312598419276384432e+00 1.143587456936096761e-03
4.341700055639581478e+03 1.316343442108556028e+00 1.148514440883208632e-03
4.346041755695222491e+03 1.319909007807670731e+00 1.129855766901492536e-03
4.350387797450919606e+03 1.323101114848649562e+00 1.169289492562879378e-03
4.354738185248371337e+03 1.324146029110201850e+00 1.105592394712302199e-03
4.359092923433621763e+03 1.325059945870669997e+00 1.134118969220320036e-03
4.363452016357056891e+03 1.325146573875949363e+00 1.102514855420499160e-03
4.367815468373414660e+03 1.324201990933386863e+00 1.257807310175694483e-03
4.372183283841789489e+03 1.323310866164597366e+00 1.306114526956504620e-03
4.376555467125633186e+03 1.321863445689821948e+00 1.165446368423225408e-03
4.380932022592760404e+03 1.320912427677204182e+00 1.082646927556239541e-03
4.385312954615354101e+03 1.320791290252371297e+00 1.073210374055048226e-03
4.389698267569970994e+03 1.320637231960287261e+00 1.200461741039236590e-03
4.394087965837542470e+03 1.321035136115389808e+00 1.113650783090898867e-03
4.398482053803381859e+03 1.322589090163942105e+00 1.616248994383258711e-03
4.402880535857186260e+03 1.324828432827379165e+00 1.903180438651594624e-03
4.407283416393044718e+03 1.325657415339973388e+00 1.830877167619947505e-03
4.411690699809440048e+03 1.325572907138150569e+00 1.705734055006840645e-03
4.416102390509250654e+03 1.323906378141318285e+00 1.489845978609889146e-03
4.420518492899761441e+03 1.319761260674272352e+00 1.782184771434271522e-03
4.424939011392662906e+03 1.313598912050607970e+00 2.082363926401644902e-03
4.429363950404056595e+03 1.307681071425601305e+00 2.043645734149145739e-03
4.433793314354462382e+03 1.301069894897753487e+00 2.001716850712337552e-03
4.438227107668818462e+03 1.293420384290270730e+00 1.825424900746408421e-03
4.442665334776488635e+03 1.286443206468415701e+00 1.807360607705932711e-03
4.447108000111265937e+03 1.279919728574913096e+00 1.779316713626795214e-03
4.451555108111379013e+03 1.274092191413853437e+00 1.908193390284874599e-03
4.456006663219492111e+03 1.268846842977737310e+00 1.856713999754548532e-03
4.460462669882713271e+03 1.264229795090968667e+00 1.769657757577927475e-03
4.464923132552597053e+03 1.260192397221604255e+00 1.835644509835629651e-03
4.469388055685150903e+03 1.256753261909658637e+00 1.890721354323056077e-03
4.473857443740837880e+03 1.253313943476464853e+00 1.620789695586851223e-03
4.478331301184580298e+03 1.251151029478717147e+00 1.876819301932970870e-03
4.482809632485766087e+03 1.250115092138303741e+00 2.281611019251966570e-03
4.487292442118253348e+03 1.248090284303822406e+00 2.216441210252989482e-03
4.491779734560373072e+03 1.245364141250918211e+00 2.196968492139126424e-03
4.496271514294934605e+03 1.243074946900344813e+00 2.046459300118481754e-03
4.500767785809231100e+03 1.240283802238262290e+00 2.126610463093696335e-03
4.505268553595042249e+03 1.236054683499060447e+00 2.514463896516509669e-03
4.509773822148638828e+03 1.233042239544564600e+00 2.287369070348324422e-03
4.514283595970789065e+03 1.231853100425620129e+00 2.406264772661562742e-03
4.518797879566761367e+03 1.230591394375310399e+00 2.463360029931237552e-03
4.523316677446328868e+03 1.229027024873274199e+00 2.410323525311443456e-03
4.527839994123776705e+03 1.228359615983096065e+00 2.483466948485438339e-03
4.532367834117902021e+03 1.228744800479672383e+00 2.459977571640186052e-03
4.536900201952022144e+03 1.229199737014487814e+00 2.017497249863387833e-03
4.541437102153975502e+03 1.228400740095455523e+00 2.288404364464286835e-03
4.545978539256130716e+03 1.227648815300935059e+00 2.398316944456336218e-03
4.550524517795388419e+03 1.226505144615684495e+00 2.237998446784645028e-03
4.555075042313184895e+03 1.225314773963197101e+00 2.031314132562124248e-03
4.559630117355500261e+03 1.224259190052245483e+00 1.955634981166307421e-03
4.564189747472856652e+03 1.224062854503640052e+00 1.961757292765216754e-03
4.568753937220330954e+03 1.224202256601104377e+00 1.873281889305393943e-03
4.573322691157552981e+03 1.224280746739433212e+00 1.931519245256856088e-03
4.577896013848711846e+03 1.225032321054796647e+00 2.004691832212597731e-03
4.582473909862562323e+03 1.226931196541338753e+00 1.971279751228181918e-03
4.587056383772426670e+03 1.228241970356640289e+00 2.011032707697404855e-03
4.591643440156200086e+03 1.229671605624218511e+00 1.756680293964521609e-03
4.596235083596357981e+03 1.232977168513508692e+00 2.910423270787558699e-03
4.600831318679955984e+03 1.235370184438705721e+00 3.074663477179971800e-03
4.605432149998637215e+03 1.235481582927764332e+00 2.945748694742002412e-03
4.610037582148637739e+03 1.233781495510402282e+00 3.261540126045997696e-03
4.614647619730787483e+03 1.232262923857276427e+00 3.721923605185035143e-03
4.619262267350520233e+03 1.231222771779069358e+00 4.220207761424366391e-03
4.623881529617872729e+03 1.231029245668753935e+00 4.162956694774152915e-03
4.628505411147491941e+03 1.231826231402449290e+00 3.535475006816372282e-03
4.633133916558640522e+03 1.234982985699655478e+00 3.463237574150263010e-03
4.637767050475200449e+03 1.240295019989402725e+00 3.921261440395475834e-03
4.642404817525677572e+03 1.246713322521945999e+00 4.063370419208759896e-03
4.647047222343205249e+03 1.253748148456748313e+00 3.800100071776444863e-03
4.651694269565549803e+03 1.260693821703867679e+00 3.547345547992544930e-03
4.656345963835116891e+03 1.267451126439412601e+00 3.412954373154688734e-03
4.661002309798953320e+03 1.273340260731348428e+00 3.361152184589270148e-03
4.665663312108753416e+03 1.277338188935889463e+00 3.341385474375352903e-03
4.670328975420864481e+03 1.279178797041510274e+00 3.292203640661441055e-03
4.674999304396286789e+03 1.277691324765058312e+00 2.852424683323233172e-03
4.679674303700684504e+03 1.275479709343244838e+00 3.194600978321205428e-03
4.684353978004386590e+03 1.272430745584913758e+00 2.900351152057059016e-03
4.689038331982392265e+03 1.266028607559835484e+00 2.712987386887500806e-03
4.693727370314376458e+03 1.257092984383438194e+00 3.423167522138136510e-03
4.698421097684692540e+03 1.246922965947982798e+00 3.816034604500560552e-03
4.703119518782378691e+03 1.236272188847913789e+00 3.722991064951693910e-03
4.707822638301162442e+03 1.225451651825656185e+00 3.119141387073458543e-03
4.712530460939465229e+03 1.216316061446343966e+00 2.908623769967074845e-03
4.717242991400406027e+03 1.208565719142162820e+00 3.072985302413429667e-03
4.721960234391808626e+03 1.202696602532459247e+00 3.285540636333839776e-03
4.726682194626201635e+03 1.198694106428125128e+00 2.947434004794077973e-03
4.731408876820829391e+03 1.194663501482915891e+00 2.454939640923760845e-03
4.736140285697651962e+03 1.190257384185556822e+00 2.639663416454305495e-03
4.740876425983350600e+03 1.186302777561725197e+00 2.718429833201949346e-03
4.745617302409335934e+03 1.183177676486146357e+00 2.680421879731381598e-03
4.750362919711747054e+03 1.180160057379843641e+00 2.574887040940872316e-03
4.755113282631459697e+03 1.177662813522257990e+00 2.367689336630125763e-03
4.759868395914093526e+03 1.176330880328333883e+00 2.286704797724002387e-03
4.764628264310008490e+03 1.176275009617141487e+00 2.283642217330652830e-03
4.769392892574320285e+03 1.178517336197946408e+00 1.999130931729893763e-03
4.774162285466896719e+03 1.182136346532861815e+00 1.699111350169013905e-03
4.778936447752364984e+03 1.185923844295982965e+00 1.765253754665161790e-03
4.783715384200118933e+03 1.190237438365674638e+00 1.692826947734830207e-03
4.788499099584319993e+03 1.195921602054466071e+00 1.750694405113477174e-03
4.793287598683906253e+03 1.201917708918453398e+00 1.886587772289980997e-03
4.798080886282591564e+03 1.207640365054353238e+00 1.905359043067333252e-03
