# starting wavelength: 3681.830
# ending wavelength: 7449.070
# wav flux eflux
3.685285263327964003e+03 7.880156103932763889e-01 1.233124988203773351e-02
3.688970548591293209e+03 7.844338547308111753e-01 1.019567845282115699e-02
3.692659519139885560e+03 7.815425196537920671e-01 7.972996531109938570e-03
3.696352178659026777e+03 7.804807644135567379e-01 6.430249828329244466e-03
3.700048530837686940e+03 7.817043075661920248e-01 5.244577580519844268e-03
3.703748579368525952e+03 7.857817907467963270e-01 4.100920302728699833e-03
3.707452327947895355e+03 7.916079154559246822e-01 3.463968527032221679e-03
3.711159780275844696e+03 7.974642423606179698e-01 2.777542747454953866e-03
3.714870940056121526e+03 8.035853018602304720e-01 2.372232725407512864e-03
3.718585810996179134e+03 8.093254672911864844e-01 2.094777825489967105e-03
3.722304396807176545e+03 8.139340287738620061e-01 2.352587769825987846e-03
3.726026701203984885e+03 8.174444995860260521e-01 2.494138474213891156e-03
3.729752727905190113e+03 8.199539238926134566e-01 2.642643300278381228e-03
3.733482480633096657e+03 8.223993860202984951e-01 2.542361001275274951e-03
3.737215963113731050e+03 8.249926908930539371e-01 2.394083199386057553e-03
3.740953179076846027e+03 8.273348153858753884e-01 2.292827899479763128e-03
3.744694132255923705e+03 8.299300182181705843e-01 2.191221501820935207e-03
3.748438826388181042e+03 8.328517698980304473e-01 2.131635904971758335e-03
3.752187265214570289e+03 8.351360030539458634e-01 2.172300342105207716e-03
3.755939452479786269e+03 8.371048068337159087e-01 2.134858381928003875e-03
3.759695391932267285e+03 8.392056857782468349e-01 2.099360686308789081e-03
3.763455087324201031e+03 8.410203272451416412e-01 2.062901200883512746e-03
3.767218542411526414e+03 8.423316117121835145e-01 2.046991682140856129e-03
3.770985760953939007e+03 8.438546847831849274e-01 2.025878446308601241e-03
3.774756746714894234e+03 8.456026355590618993e-01 2.059896755045542444e-03
3.778531503461610555e+03 8.475146345364690248e-01 2.056171767614401596e-03
3.782310034965073100e+03 8.496137296074044443e-01 1.980472832549432221e-03
3.786092345000039586e+03 8.516193932602189598e-01 1.824139699777797786e-03
3.789878437345040766e+03 8.539205583401734412e-01 1.763027586554139154e-03
3.793668315782387253e+03 8.554532295308308054e-01 1.860445818192503833e-03
3.797461984098170888e+03 8.573780474945245089e-01 1.883327539910787697e-03
3.801259446082270188e+03 8.590836354808658593e-01 1.965720306017008836e-03
3.805060705528353537e+03 8.601330879685996633e-01 2.062718076673113448e-03
3.808865766233883278e+03 8.613163803365205817e-01 1.916792934656044896e-03
3.812674632000118436e+03 8.632348535899714292e-01 1.768018443501453551e-03
3.816487306632119726e+03 8.651959364979053824e-01 1.620791278907465381e-03
3.820303793938753188e+03 8.676192824312199958e-01 1.630602636841692538e-03
3.824124097732693372e+03 8.702772836326202466e-01 1.687534758540998976e-03
3.827948221830427428e+03 8.729959629891325124e-01 1.742360020918651015e-03
3.831776170052258749e+03 8.768539525539867929e-01 1.830728863818460337e-03
3.835607946222312421e+03 8.806652327209252284e-01 1.838323419070942225e-03
3.839443554168536139e+03 8.843889925983670075e-01 1.707175065152481295e-03
3.843282997722705659e+03 8.889084514222296285e-01 1.031530225120616063e-03
3.847126280720429804e+03 8.911187852575582768e-01 1.170891792352755315e-03
3.850973407001151372e+03 8.932533973548770767e-01 1.193983130697087941e-03
3.854824380408153957e+03 8.949446964441003516e-01 1.179683104815387436e-03
3.858679204788563311e+03 8.961749830375048687e-01 1.227168082440693213e-03
3.862537883993353262e+03 8.969037741382761553e-01 1.289165812541297586e-03
3.866400421877347981e+03 8.973955167104000763e-01 1.265953052350353653e-03
3.870266822299226533e+03 8.978149949400853203e-01 1.252751416238415128e-03
3.874137089121526969e+03 8.979776858575443388e-01 1.241383210270954277e-03
3.878011226210649966e+03 8.971982838914208669e-01 1.081476412296814363e-03
3.881889237436861549e+03 8.970793801812106949e-01 9.887606400879268755e-04
3.885771126674299921e+03 8.970826349544653855e-01 9.490788208464109258e-04
3.889656897800975457e+03 8.975512815204929051e-01 9.567759206026745910e-04
3.893546554698777527e+03 8.986957005278649602e-01 9.404768219994935228e-04
3.897440101253477678e+03 9.003657388363734970e-01 9.173268364582329651e-04
3.901337541354732366e+03 9.027799983534643413e-01 9.611386092286292948e-04
3.905238878896088409e+03 9.048061561357541027e-01 1.001436302604574290e-03
3.909144117774985716e+03 9.071578721576206705e-01 1.034150700355042146e-03
3.913053261892762293e+03 9.098179160627145601e-01 1.042503402118515532e-03
3.916966315154656058e+03 9.119627099044869123e-01 1.079569401702079210e-03
3.920883281469812118e+03 9.142505957413636919e-01 1.082552126764738760e-03
3.924804164751283224e+03 9.170818690185870148e-01 1.031820224491308922e-03
3.928728968916035683e+03 9.190158200843033809e-01 1.032768559438528152e-03
3.932657697884953450e+03 9.207340281230862455e-01 1.059765818283707342e-03
3.936590355582839493e+03 9.223208003125691334e-01 1.078992585936270178e-03
3.940526945938423523e+03 9.242160138569542882e-01 1.081739579733203898e-03
3.944467472884363360e+03 9.259661335526924164e-01 1.117388659010300515e-03
3.948411940357249023e+03 9.269026696722455494e-01 1.120464487875776072e-03
3.952360352297607733e+03 9.266221259348984551e-01 1.071575234327576615e-03
3.956312712649906643e+03 9.271972263280748860e-01 1.078792002446976074e-03
3.960269025362557841e+03 9.275589310052687608e-01 1.161780183948991517e-03
3.964229294387921527e+03 9.282025081980432857e-01 1.036416311632897078e-03
3.968193523682310570e+03 9.298020254141200480e-01 1.113640201816424626e-03
3.972161717205994591e+03 9.320285103507972568e-01 1.098734483702861050e-03
3.976133878923201792e+03 9.339017130263267408e-01 1.148524500650815452e-03
3.980110012802126221e+03 9.364224913342407142e-01 1.207276498069365664e-03
3.984090122814929600e+03 9.390277515437783773e-01 1.412334547633480345e-03
3.988074212937745870e+03 9.421641648615152187e-01 1.387800316338249447e-03
3.992062287150684824e+03 9.456038890371426531e-01 1.419054956201192983e-03
3.996054349437837118e+03 9.500579323672950771e-01 1.624819298400587662e-03
4.000050403787276082e+03 9.550676454892513823e-01 1.855961143152969018e-03
4.004050454191064546e+03 9.589868647337542740e-01 1.852909277228266842e-03
4.008054504645257111e+03 9.619466546451016509e-01 1.804968714342873592e-03
4.012062559149903791e+03 9.643613922899879620e-01 1.773943628769671793e-03
4.016074621709055009e+03 9.660181659989727221e-01 1.753615661238092094e-03
4.020090696330765240e+03 9.671494026913105557e-01 1.792368222886501702e-03
4.024110787027097558e+03 9.666797228263934727e-01 1.774132518940747241e-03
4.028134897814125907e+03 9.650740957725749691e-01 1.829158839511288394e-03
4.032163032711941469e+03 9.634874569062824579e-01 1.747048049559676419e-03
4.036195195744654484e+03 9.604737754250135540e-01 1.795395621844484953e-03
4.040231390940400615e+03 9.563536618684869151e-01 2.037354644162209152e-03
4.044271622331342314e+03 9.532464908368987189e-01 2.008900354715021340e-03
4.048315893953675186e+03 9.512237624733234087e-01 1.756664463507124187e-03
4.052364209847629809e+03 9.512347171402750767e-01 1.799547318807543815e-03
4.056416574057479011e+03 9.529525311515729680e-01 1.803553720241890274e-03
4.060472990631537868e+03 9.558622441343045395e-01 1.768747464654143054e-03
4.064533463622170530e+03 9.591183158753520122e-01 1.780218774138821050e-03
4.068597997085794304e+03 9.638768212142151404e-01 1.621262479989605621e-03
4.072666595082881486e+03 9.708482143122570962e-01 2.150184969118195712e-03
4.076739261677965715e+03 9.784541159722119907e-01 2.452412073109356411e-03
4.080816000939644709e+03 9.857924263354621575e-01 2.167697303487849114e-03
4.084896816940585722e+03 9.923719323348039190e-01 1.790201656992762872e-03
4.088981713757527814e+03 9.972325068039056273e-01 2.092050215916840643e-03
4.093070695471286854e+03 1.001226002691791850e+00 2.039324665048184836e-03
4.097163766166759160e+03 1.004551460748495550e+00 1.956786347351190201e-03
4.101260929932927866e+03 1.007548025940819603e+00 1.838333169465877466e-03
4.105362190862862008e+03 1.010036662018751086e+00 1.820715893955777119e-03
4.109467553053726078e+03 1.012666303312289573e+00 1.822808993974054737e-03
4.113577020606780934e+03 1.015126482156310628e+00 1.813454976923044347e-03
4.117690597627389252e+03 1.017163516921859578e+00 1.833539889147582083e-03
4.121808288225018259e+03 1.017928345265607382e+00 1.799447546663546921e-03
4.125930096513244280e+03 1.018770423374015577e+00 1.754013509398424930e-03
4.130056026609759101e+03 1.019367261442129413e+00 1.556415583058357900e-03
4.134186082636369974e+03 1.018368845316987015e+00 1.509736577617341782e-03
4.138320268719007800e+03 1.015830212164597235e+00 1.481582502665844013e-03
4.142458588987728035e+03 1.011704857740238772e+00 1.124888371613961494e-03
4.146601047576717065e+03 1.007779057736955419e+00 1.370442332092922317e-03
4.150747648624294925e+03 1.003384167043530173e+00 1.239004166672401505e-03
4.154898396272920763e+03 9.984404831245842216e-01 1.129733188502415235e-03
4.159053294669195566e+03 9.926624109943532615e-01 1.435636637213130035e-03
4.163212347963865795e+03 9.868080169448961714e-01 1.548137499564659599e-03
4.167375560311830668e+03 9.816731369440369059e-01 1.378781593742144356e-03
4.171542935872143971e+03 9.787295973319900533e-01 1.366690526606711845e-03
4.175714478808017702e+03 9.768190381471776318e-01 1.313908530927454911e-03
4.179890193286827525e+03 9.767451959390516247e-01 1.317007239570471781e-03
4.184070083480115500e+03 9.776261527601954882e-01 1.266652501692833816e-03
4.188254153563597356e+03 9.807519814257489310e-01 1.478765847760026833e-03
4.192442407717161586e+03 9.848169922589962155e-01 1.675310097546668826e-03
4.196634850124880359e+03 9.889067862577454182e-01 1.472983557495312259e-03
4.200831484975006788e+03 9.928327976417874456e-01 1.471276225071485848e-03
4.205032316459983122e+03 9.970532144654492557e-01 1.430090962193988945e-03
4.209237348776444378e+03 1.001266900601056609e+00 1.443750804190271388e-03
4.213446586125221984e+03 1.003985753344067477e+00 1.375622363878628790e-03
4.217660032711349231e+03 1.006149985716688455e+00 1.365646430339786466e-03
4.221877692744061278e+03 1.007134704251480883e+00 1.548488492976559305e-03
4.226099570436806971e+03 1.009285469471699725e+00 1.489487722009238914e-03
4.230325670007245208e+03 1.010441608511375433e+00 1.688085137482368782e-03
4.234555995677254032e+03 1.012391086222542480e+00 1.674270901570852534e-03
4.238790551672932452e+03 1.014659087141922988e+00 1.668813605288931501e-03
4.243029342224606808e+03 1.017035578763041848e+00 1.655943663147675009e-03
4.247272371566832589e+03 1.019848038469800988e+00 1.666855886550425376e-03
4.251519643938400804e+03 1.023573156346583080e+00 1.633651933230469318e-03
4.255771163582340705e+03 1.027110951142718998e+00 1.661512086286352817e-03
4.260026934745924336e+03 1.030216795085688197e+00 1.697471073571743625e-03
4.264286961680671993e+03 1.034004678408959155e+00 1.696314881171421835e-03
4.268551248642354039e+03 1.038381499513742368e+00 1.639096254137758189e-03
4.272819799890998183e+03 1.043132353905239951e+00 1.740854578836063945e-03
4.277092619690890388e+03 1.047571181369298721e+00 1.724456342969737542e-03
4.281369712310583054e+03 1.053212422157589145e+00 1.298653676434251801e-03
4.285651082022895025e+03 1.060941804445762360e+00 1.250779253984792873e-03
4.289936733104918858e+03 1.070656603499102077e+00 1.458364378215060587e-03
4.294226669838025373e+03 1.081510213350953542e+00 1.426133188391040182e-03
4.298520896507864563e+03 1.092961361034642476e+00 1.342178245519675414e-03
4.302819417404373780e+03 1.104788728073466508e+00 1.366673099358691303e-03
4.307122236821779552e+03 1.118497303142081734e+00 1.387359393818991642e-03
4.311429359058603040e+03 1.130772829766084842e+00 1.397313634727613421e-03
4.315740788417662770e+03 1.144209824555080246e+00 1.474907437277354428e-03
4.320056529206081905e+03 1.157456779675341885e+00 1.592276648352068755e-03
4.324376585735290064e+03 1.168956925899405697e+00 1.596972064359069611e-03
4.328700962321026054e+03 1.180130132535707643e+00 1.632573352464465393e-03
4.333029663283348782e+03 1.190280848278089776e+00 1.633444137842541589e-03
4.337362692946633615e+03 1.199881642909791379e+00 1.638908069407711034e-03
4.341700055639581478e+03 1.207997762206546533e+00 2.008020896171252775e-03
4.346041755695222491e+03 1.217317814206138271e+00 2.068778819409220013e-03
4.350387797450919606e+03 1.226434614602593731e+00 2.025798531805086608e-03
4.354738185248371337e+03 1.236008052386134093e+00 1.855554292210730800e-03
4.359092923433621763e+03 1.246127634737471013e+00 1.532981051869693970e-03
4.363452016357056891e+03 1.257664530779513790e+00 1.473152883146535861e-03
4.367815468373414660e+03 1.271136769161922864e+00 1.849692180257443089e-03
4.372183283841789489e+03 1.284994998180981840e+00 1.909158698627097138e-03
4.376555467125633186e+03 1.297959778278478638e+00 1.729534938206417306e-03
4.380932022592760404e+03 1.308640639012992102e+00 1.658453212003228611e-03
4.385312954615354101e+03 1.318086462312051843e+00 1.554430465426548738e-03
4.389698267569970994e+03 1.325887126735130650e+00 1.321246531151101279e-03
4.394087965837542470e+03 1.330187276191965084e+00 1.215411567018307316e-03
4.398482053803381859e+03 1.333273445628317289e+00 1.204242057389576064e-03
4.402880535857186260e+03 1.334121617522492365e+00 1.288527359914996059e-03
4.407283416393044718e+03 1.332837267187501729e+00 1.225978893540019066e-03
4.411690699809440048e+03 1.331791440132318982e+00 1.328897483006810437e-03
4.416102390509250654e+03 1.330160296184780933e+00 1.498043216580421466e-03
4.420518492899761441e+03 1.329940831680434865e+00 1.452840720762368573e-03
4.424939011392662906e+03 1.330383300246909428e+00 1.097585964620526782e-03
4.429363950404056595e+03 1.332990690186290683e+00 1.123285243261162641e-03
4.433793314354462382e+03 1.337093531600954677e+00 1.257892273693291376e-03
4.438227107668818462e+03 1.341843068449945164e+00 1.248961513502680953e-03
4.442665334776488635e+03 1.347559774610306516e+00 1.265022178553845298e-03
4.447108000111265937e+03 1.354092012172500636e+00 1.364283402694500130e-03
4.451555108111379013e+03 1.361525099192775645e+00 1.331629289384171980e-03
4.456006663219492111e+03 1.367729115092975567e+00 1.059435260027803390e-03
4.460462669882713271e+03 1.372862011007496275e+00 1.004361656085181248e-03
4.464923132552597053e+03 1.375592337197565129e+00 1.120822309013806131e-03
4.469388055685150903e+03 1.376284964613543549e+00 1.184928023712572944e-03
4.473857443740837880e+03 1.373928844790224923e+00 1.170066566511526697e-03
4.478331301184580298e+03 1.368990318237299997e+00 1.205492542642762170e-03
4.482809632485766087e+03 1.361795286699830188e+00 1.414055143987449567e-03
4.487292442118253348e+03 1.352571706831039666e+00 1.538765061949599628e-03
4.491779734560373072e+03 1.341748320927450333e+00 1.566117369881114569e-03
4.496271514294934605e+03 1.329985526737406776e+00 1.556854093789691168e-03
4.500767785809231100e+03 1.317758038162250234e+00 1.084990311482314203e-03
4.505268553595042249e+03 1.306393980277787081e+00 1.029688330923251649e-03
4.509773822148638828e+03 1.295746630818617184e+00 1.095221809980669297e-03
4.514283595970789065e+03 1.285856404492902838e+00 1.077777721046482970e-03
4.518797879566761367e+03 1.277208574440534816e+00 9.090127274645060096e-04
4.523316677446328868e+03 1.268717830914234845e+00 9.086659470597761032e-04
4.527839994123776705e+03 1.261316292995470878e+00 8.758327114030783726e-04
4.532367834117902021e+03 1.254568222735411576e+00 9.563758923701110503e-04
4.536900201952022144e+03 1.248800672893232155e+00 9.690067478238716331e-04
4.541437102153975502e+03 1.243106072791350103e+00 5.637732891338507026e-04
4.545978539256130716e+03 1.239132473930081746e+00 1.165690310106865576e-03
4.550524517795388419e+03 1.235365025087076685e+00 1.397386210025614982e-03
4.555075042313184895e+03 1.231073904587862478e+00 1.262814350538655735e-03
4.559630117355500261e+03 1.226507245936980350e+00 1.207888068500086523e-03
4.564189747472856652e+03 1.221577725315293961e+00 1.113163467495666440e-03
4.568753937220330954e+03 1.215667486672931785e+00 1.098101270796068927e-03
4.573322691157552981e+03 1.209036460441532457e+00 1.083760450951717393e-03
4.577896013848711846e+03 1.201267622459337492e+00 1.151592984714888733e-03
4.582473909862562323e+03 1.192759205231441966e+00 1.073692605393510718e-03
4.587056383772426670e+03 1.184371724119030800e+00 1.015096408123241202e-03
4.591643440156200086e+03 1.176316909330391347e+00 9.785031892180179151e-04
4.596235083596357981e+03 1.168534072507035892e+00 9.755198714595906834e-04
4.600831318679955984e+03 1.161214233057089595e+00 1.034187914392000482e-03
4.605432149998637215e+03 1.155591172098224151e+00 1.035501191745931068e-03
4.610037582148637739e+03 1.151350629858337360e+00 1.229211423072736585e-03
4.614647619730787483e+03 1.147412768262228155e+00 1.201218029005915282e-03
4.619262267350520233e+03 1.143739643011589147e+00 1.261856374357122343e-03
4.623881529617872729e+03 1.141466535879791744e+00 1.236805608060930059e-03
4.628505411147491941e+03 1.140268835618471144e+00 1.239058406203289884e-03
4.633133916558640522e+03 1.141198481193649084e+00 1.163955665664982275e-03
4.637767050475200449e+03 1.142910167934065635e+00 1.182113523969243471e-03
4.642404817525677572e+03 1.145184978327968617e+00 1.014690664337239683e-03
4.647047222343205249e+03 1.148839697778010871e+00 1.145237830490268473e-03
4.651694269565549803e+03 1.152961735897858775e+00 1.283088005152959593e-03
4.656345963835116891e+03 1.157268132072043043e+00 1.476645732425824371e-03
4.661002309798953320e+03 1.160467342768223276e+00 1.365202303002728199e-03
4.665663312108753416e+03 1.162377487797811026e+00 1.309971360500226511e-03
4.670328975420864481e+03 1.163276278627694671e+00 1.247768824520194752e-03
4.674999304396286789e+03 1.162480466746218077e+00 1.162109646771632273e-03
4.679674303700684504e+03 1.159677479974731584e+00 1.144475803895426188e-03
4.684353978004386590e+03 1.154182094649097490e+00 1.303509248045343384e-03
4.689038331982392265e+03 1.147240182178556944e+00 9.355486827748256320e-04
4.693727370314376458e+03 1.139962255549176628e+00 9.741205841404309900e-04
4.698421097684692540e+03 1.132142593488251636e+00 9.288401599560387615e-04
4.703119518782378691e+03 1.122810439719512665e+00 1.007821807559773500e-03
4.707822638301162442e+03 1.113034839157699185e+00 1.267294461822125002e-03
4.712530460939465229e+03 1.104379987230845961e+00 1.303225106014935849e-03
4.717242991400406027e+03 1.096155769836951288e+00 1.293083277003841515e-03
4.721960234391808626e+03 1.089189290278306022e+00 1.263042304410471467e-03
4.726682194626201635e+03 1.083262327448692997e+00 1.184133938819885738e-03
4.731408876820829391e+03 1.078872700023306930e+00 1.253539913022855366e-03
4.736140285697651962e+03 1.075783221752857566e+00 1.287692029284062374e-03
4.740876425983350600e+03 1.074001198009358449e+00 1.307608035797420401e-03
4.745617302409335934e+03 1.073245208177403986e+00 1.109163178165745211e-03
4.750362919711747054e+03 1.072332208165606593e+00 1.131797417142495817e-03
4.755113282631459697e+03 1.072159967179195927e+00 1.131375257690708401e-03
4.759868395914093526e+03 1.072694247973597914e+00 1.084139039671923755e-03
4.764628264310008490e+03 1.072801919161600726e+00 1.051071541298529647e-03
4.769392892574320285e+03 1.071964484094908965e+00 1.149873155463292671e-03
4.774162285466896719e+03 1.070539859491046908e+00 9.412947164169156635e-04
4.778936447752364984e+03 1.070025482216216739e+00 9.188903122718918362e-04
4.783715384200118933e+03 1.069925907048373759e+00 8.863827680080426990e-04
4.788499099584319993e+03 1.069820055886692822e+00 8.610402380563623656e-04
4.793287598683906253e+03 1.069468078082656870e+00 8.606669726101345234e-04
4.798080886282591564e+03 1.068674291061223691e+00 8.299220438516190321e-04
