# starting wavelength: 3433.020
# ending wavelength: 9993.720
# wav flux eflux
3.436257390904928343e+03 7.968017821815822632e-01 7.493435667922361196e-03
3.439693648295834464e+03 8.022634386487361713e-01 5.367555065961970677e-03
3.443133341944131189e+03 8.056564186050760856e-01 4.002155564872053074e-03
3.446576475286076402e+03 8.075083017715355416e-01 3.093967414213818611e-03
3.450023051761363604e+03 8.083127329033122921e-01 2.563351593947736651e-03
3.453473074813126004e+03 8.090327529929034478e-01 2.026881627884815663e-03
3.456926547887940615e+03 8.096831471867682595e-01 1.618537427360612797e-03
3.460383474435829612e+03 8.103196547497886204e-01 1.318226836365691797e-03
3.463843857910266706e+03 8.111000326974091568e-01 1.099522534316099741e-03
3.467307701768178049e+03 8.121992040088055198e-01 9.483258354384647981e-04
3.470775009469947236e+03 8.137945255958448643e-01 8.712791824496455379e-04
3.474245784479418489e+03 8.160506112427408087e-01 8.815125889851997904e-04
3.477720030263898934e+03 8.190160585327119769e-01 9.372024631692286003e-04
3.481197750294164052e+03 8.226475456483508530e-01 1.013689435043320722e-03
3.484678948044459503e+03 8.262273296838564818e-01 9.542840112614246403e-04
3.488163626992504760e+03 8.307100176427262284e-01 1.002486284141565443e-03
3.491651790619498570e+03 8.352706710957802372e-01 9.845236512009540066e-04
3.495143442410119405e+03 8.398024638551702115e-01 9.473180112978692689e-04
3.498638585852530468e+03 8.444529191849716732e-01 9.262794939279498773e-04
3.502137224438384237e+03 8.496471383908559272e-01 8.756393189944302593e-04
3.505639361662823831e+03 8.551947874412711981e-01 8.157032447721708273e-04
3.509145001024487556e+03 8.610408555407564890e-01 7.624381777049889014e-04
3.512654146025513455e+03 8.668605817284409376e-01 7.359390116082173330e-04
3.516166800171540217e+03 8.727065837776655233e-01 7.533942399320588167e-04
3.519682966971712631e+03 8.785754694114060737e-01 7.522674137275331754e-04
3.523202649938685681e+03 8.846996357130064714e-01 7.615026809363547753e-04
3.526725852588625457e+03 8.909582430643377959e-01 7.807931795702477808e-04
3.530252578441215064e+03 8.971934150364495597e-01 7.814807896192095147e-04
3.533782831019657806e+03 9.029842352937210714e-01 7.778882170807279763e-04
3.537316613850678550e+03 9.084054440090723048e-01 7.203510227322026645e-04
3.540853930464530094e+03 9.139749106052750260e-01 7.127686666138308841e-04
3.544394784394995895e+03 9.195541387261435551e-01 7.158263305883967456e-04
3.547939179179392340e+03 9.250329437844504454e-01 7.094263977440416757e-04
3.551487118358572843e+03 9.304336877219675506e-01 7.243195384253385636e-04
3.555038605476932389e+03 9.357047602295001099e-01 7.184322663095201941e-04
3.558593644082410719e+03 9.407742628213610070e-01 7.225219906871691846e-04
3.562152237726494150e+03 9.459377086572682281e-01 7.301231593996827460e-04
3.565714389964221937e+03 9.509664051444720601e-01 7.288635405229211854e-04
3.569280104354187188e+03 9.557368402102274230e-01 7.443483457608155232e-04
3.572849384458542772e+03 9.604505705676067429e-01 7.915730491644294231e-04
3.576422233843002232e+03 9.650938575841920830e-01 8.751428623909859655e-04
3.579998656076846601e+03 9.695974436292142951e-01 9.490788583048286953e-04
3.583578654732924406e+03 9.740842906622638742e-01 9.513052698119550590e-04
3.587162233387658489e+03 9.786695874053286115e-01 8.950222633274945586e-04
3.590749395621047370e+03 9.835647697832733405e-01 7.694953971858678856e-04
3.594340145016669794e+03 9.888777103223107545e-01 6.737372241774974109e-04
3.597934485161687462e+03 9.946557250712770859e-01 7.133348329482564138e-04
3.601532419646850485e+03 1.000909455521873825e+00 8.476497312887934250e-04
3.605133952066498296e+03 1.007454372512761820e+00 9.261641975894466944e-04
3.608739086018566013e+03 1.014232944563590255e+00 9.348391405553645736e-04
3.612347825104585809e+03 1.021044040251569252e+00 9.308233992311731875e-04
3.615960172929691907e+03 1.027777495220859372e+00 9.731379418862948737e-04
3.619576133102622407e+03 1.033960803217387703e+00 9.865843927083961691e-04
3.623195709235726554e+03 1.040321365835820799e+00 9.994041353854096581e-04
3.626818904944963379e+03 1.046519406282798270e+00 9.295203867475240658e-04
3.630445723849909427e+03 1.052434151298024645e+00 8.414746170004333168e-04
3.634076169573760581e+03 1.057735820553111106e+00 7.992036914623381911e-04
3.637710245743335690e+03 1.062415521014366426e+00 8.976838945254731481e-04
3.641347955989080219e+03 1.066686149032725961e+00 1.112002954081308705e-03
3.644989303945070333e+03 1.070799565553768762e+00 1.367310874672420917e-03
3.648634293249016537e+03 1.074797939680284697e+00 1.535294036633748967e-03
3.652282927542266862e+03 1.078800516209270421e+00 1.582628973554015602e-03
3.655935210469810499e+03 1.082879515675571502e+00 1.469385276296483441e-03
3.659591145680281443e+03 1.087406485599894612e+00 1.288688317414918858e-03
3.663250736825963031e+03 1.092581770069377400e+00 1.150030786782467104e-03
3.666913987562790226e+03 1.098330383101920438e+00 1.085772820156746810e-03
3.670580901550354156e+03 1.104506007703268455e+00 1.089944794947280554e-03
3.674251482451905758e+03 1.111404408519399034e+00 1.287062022309281000e-03
3.677925733934358959e+03 1.118925850244581577e+00 1.509794314170541645e-03
3.681603659668294313e+03 1.126710420373928212e+00 1.479872870399097980e-03
3.685285263327964003e+03 1.134177718580120953e+00 1.411058676947741543e-03
3.688970548591293209e+03 1.141905694328626986e+00 1.327873936903458708e-03
3.692659519139885560e+03 1.149388890763670901e+00 1.189932868566850269e-03
3.696352178659026777e+03 1.156494996684051202e+00 1.053394639247122065e-03
3.700048530837686940e+03 1.163114315788590813e+00 9.515511789997163324e-04
3.703748579368525952e+03 1.168932219929643024e+00 9.865752884689220955e-04
3.707452327947895355e+03 1.174319153865828635e+00 9.842710728565438189e-04
3.711159780275844696e+03 1.179133468529353967e+00 1.012402701725449369e-03
3.714870940056121526e+03 1.183052729646896895e+00 1.002503988849989380e-03
3.718585810996179134e+03 1.186238439949705459e+00 9.883570240846620367e-04
3.722304396807176545e+03 1.188589480356827988e+00 9.685337594000183918e-04
3.726026701203984885e+03 1.190080323161008202e+00 9.545622483662113316e-04
3.729752727905190113e+03 1.190793868507623143e+00 9.514704480195239822e-04
3.733482480633096657e+03 1.190878042197254461e+00 9.499380310777290381e-04
3.737215963113731050e+03 1.190359552073451566e+00 9.402508541012621597e-04
3.740953179076846027e+03 1.189372289682692152e+00 9.134466442095374355e-04
3.744694132255923705e+03 1.187899697878962657e+00 9.263333329390500233e-04
3.748438826388181042e+03 1.185753878364669500e+00 1.113325431355285337e-03
3.752187265214570289e+03 1.183984480318544863e+00 1.155157834420817787e-03
3.755939452479786269e+03 1.181362064279082080e+00 1.329196073070802384e-03
3.759695391932267285e+03 1.178810446039869841e+00 1.434886729710962462e-03
3.763455087324201031e+03 1.176684980014440329e+00 1.384353556725063678e-03
3.767218542411526414e+03 1.175124868134136413e+00 1.245766217730598022e-03
3.770985760953939007e+03 1.174182243037275475e+00 1.088040219044505378e-03
3.774756746714894234e+03 1.173794246586888912e+00 1.040486116067375301e-03
3.778531503461610555e+03 1.174719575012613149e+00 1.166963249607807108e-03
3.782310034965073100e+03 1.176418024745216284e+00 1.274755994066209151e-03
3.786092345000039586e+03 1.179118139387798747e+00 1.259788385441737739e-03
3.789878437345040766e+03 1.182509241773997299e+00 1.134562143552485637e-03
3.793668315782387253e+03 1.186105656017387044e+00 1.008477833531322117e-03
3.797461984098170888e+03 1.189950700073577172e+00 8.359613911623624575e-04
3.801259446082270188e+03 1.193833540729120957e+00 8.252875664328222652e-04
3.805060705528353537e+03 1.197808175494833760e+00 9.495302407779470299e-04
3.808865766233883278e+03 1.201922958963778543e+00 1.049408152538053741e-03
3.812674632000118436e+03 1.206245492711784939e+00 1.000389044935772517e-03
3.816487306632119726e+03 1.211087790688487376e+00 9.751632335525929835e-04
3.820303793938753188e+03 1.216115516209645753e+00 9.325071315937047455e-04
3.824124097732693372e+03 1.221402016063920959e+00 8.280835297599863868e-04
3.827948221830427428e+03 1.227212219959577633e+00 8.920102923326091214e-04
3.831776170052258749e+03 1.233229734794240029e+00 9.564418110175559960e-04
3.835607946222312421e+03 1.239303798736468121e+00 9.823961079703990781e-04
3.839443554168536139e+03 1.245913840035413944e+00 1.007163671743518171e-03
3.843282997722705659e+03 1.252543182415345902e+00 8.988864172632952043e-04
3.847126280720429804e+03 1.259006188184452757e+00 7.070356077943991836e-04
3.850973407001151372e+03 1.265067366205948840e+00 5.938330461240644113e-04
3.854824380408153957e+03 1.270521316143181867e+00 6.420594127717446815e-04
3.858679204788563311e+03 1.275536970424645089e+00 6.943122098589784913e-04
3.862537883993353262e+03 1.280091938232699178e+00 6.959739777035487763e-04
3.866400421877347981e+03 1.284399715661355357e+00 6.804527150048715091e-04
3.870266822299226533e+03 1.288409996583940842e+00 6.361628230333124133e-04
3.874137089121526969e+03 1.292226313931990500e+00 5.490706010181749253e-04
3.878011226210649966e+03 1.295969134552165114e+00 4.898278131660752446e-04
3.881889237436861549e+03 1.299615498113270595e+00 4.171100078637339113e-04
3.885771126674299921e+03 1.303348938421453607e+00 4.062986370353515310e-04
3.889656897800975457e+03 1.307387764194278823e+00 4.133950052175331064e-04
3.893546554698777527e+03 1.311611279678750686e+00 3.518915036668831121e-04
3.897440101253477678e+03 1.315659088490424455e+00 4.050249738298608028e-04
3.901337541354732366e+03 1.319787768894599145e+00 4.203120918307058510e-04
3.905238878896088409e+03 1.323831607710315161e+00 4.279093134369301907e-04
3.909144117774985716e+03 1.327893545870437508e+00 4.640101949646264720e-04
3.913053261892762293e+03 1.331966373998995978e+00 6.040154179883297763e-04
3.916966315154656058e+03 1.335726860467705501e+00 7.057816482601150191e-04
3.920883281469812118e+03 1.339178876552439945e+00 7.324837120510561657e-04
3.924804164751283224e+03 1.342014158085814923e+00 6.445901991747083086e-04
3.928728968916035683e+03 1.343810593221743899e+00 6.234811429988878530e-04
3.932657697884953450e+03 1.344865368270966144e+00 6.314848025296562013e-04
3.936590355582839493e+03 1.345455896344043278e+00 5.987254525283755959e-04
3.940526945938423523e+03 1.345123221316869344e+00 6.479636362259401936e-04
3.944467472884363360e+03 1.344025056514724703e+00 7.363317982958239843e-04
3.948411940357249023e+03 1.342316853366011919e+00 8.091132871023176991e-04
3.952360352297607733e+03 1.340454751237831310e+00 7.601450535672374994e-04
3.956312712649906643e+03 1.338206567423255056e+00 7.018815932954535755e-04
3.960269025362557841e+03 1.336072534606220774e+00 5.989029035291627357e-04
3.964229294387921527e+03 1.334071179745530689e+00 5.247781623754330278e-04
3.968193523682310570e+03 1.332380859535096107e+00 4.663577262283530962e-04
3.972161717205994591e+03 1.331664020751307076e+00 5.040875423798753469e-04
3.976133878923201792e+03 1.331541017606878041e+00 5.289676678796636621e-04
3.980110012802126221e+03 1.332196136726257585e+00 5.793681465625799163e-04
3.984090122814929600e+03 1.332835702845343473e+00 5.381825541880173132e-04
3.988074212937745870e+03 1.333139493427049294e+00 5.436314215261588536e-04
3.992062287150684824e+03 1.333637989581982541e+00 5.503957168394701255e-04
3.996054349437837118e+03 1.334381058702679645e+00 5.397744534462463979e-04
4.000050403787276082e+03 1.334969762822065142e+00 5.580724101436841580e-04
4.004050454191064546e+03 1.335672740495328581e+00 5.812031964526564141e-04
4.008054504645257111e+03 1.336594048126821477e+00 5.840404994643845363e-04
4.012062559149903791e+03 1.337574986344840289e+00 6.063376168995281840e-04
4.016074621709055009e+03 1.338202758782686352e+00 6.327420286527852709e-04
4.020090696330765240e+03 1.338621756380554917e+00 5.985703245078463587e-04
4.024110787027097558e+03 1.339008934905457915e+00 5.986650100766048761e-04
4.028134897814125907e+03 1.339493038897659583e+00 5.781265388114936732e-04
4.032163032711941469e+03 1.339691116348432853e+00 6.186750336018467366e-04
4.036195195744654484e+03 1.339694874502310062e+00 6.508641545381290599e-04
4.040231390940400615e+03 1.339861365075979194e+00 6.466200014524760373e-04
4.044271622331342314e+03 1.339801894462856025e+00 6.461211959832410725e-04
4.048315893953675186e+03 1.339172744293918527e+00 6.338785430573789506e-04
4.052364209847629809e+03 1.338146913505191771e+00 6.962710738321662264e-04
4.056416574057479011e+03 1.336756503383116579e+00 8.369738390890284815e-04
4.060472990631537868e+03 1.334625126327028122e+00 8.787799517360731947e-04
4.064533463622170530e+03 1.331724242841250572e+00 6.454318503516299523e-04
4.068597997085794304e+03 1.327617247332431472e+00 5.661152009497790166e-04
4.072666595082881486e+03 1.322253537865537787e+00 7.538163718075228470e-04
4.076739261677965715e+03 1.316077614585764666e+00 9.703252549865764133e-04
4.080816000939644709e+03 1.309554034143157075e+00 1.071809296814355602e-03
4.084896816940585722e+03 1.303071824921524291e+00 9.271562710404092442e-04
4.088981713757527814e+03 1.296531339190436727e+00 6.228886190986537884e-04
4.093070695471286854e+03 1.291184440071954764e+00 5.474518697256329980e-04
4.097163766166759160e+03 1.286969381202640594e+00 7.065657620425881387e-04
4.101260929932927866e+03 1.283522731194641331e+00 7.206008144552328082e-04
4.105362190862862008e+03 1.281001046250152209e+00 7.085594004504673724e-04
4.109467553053726078e+03 1.279623213268394011e+00 6.894004775566454392e-04
4.113577020606780934e+03 1.279239694498613744e+00 7.144869599022141008e-04
4.117690597627389252e+03 1.279952309708812574e+00 7.286837437469508971e-04
4.121808288225018259e+03 1.281592579734014636e+00 8.033545710451512082e-04
4.125930096513244280e+03 1.283354967255770251e+00 8.289502498202444168e-04
4.130056026609759101e+03 1.285338968506799961e+00 9.026052953525102529e-04
4.134186082636369974e+03 1.287387898362994276e+00 9.682261769722904287e-04
4.138320268719007800e+03 1.289326682691795289e+00 9.495761906934313589e-04
4.142458588987728035e+03 1.290703647554239941e+00 8.520734108046841733e-04
4.146601047576717065e+03 1.291381519090011309e+00 9.427274726096074569e-04
4.150747648624294925e+03 1.291681987070697257e+00 1.085117410023868833e-03
4.154898396272920763e+03 1.291562528476686067e+00 1.165019979078914074e-03
4.159053294669195566e+03 1.291274198295413900e+00 1.081920289962982331e-03
4.163212347963865795e+03 1.291410904148503791e+00 8.205793868189344056e-04
4.167375560311830668e+03 1.292187498432297410e+00 7.929994608319253149e-04
4.171542935872143971e+03 1.293660090686202357e+00 9.211639104818318720e-04
4.175714478808017702e+03 1.295706551335923384e+00 8.612951451986898630e-04
4.179890193286827525e+03 1.297708656465758725e+00 7.351330629371704596e-04
4.184070083480115500e+03 1.299454890273742835e+00 6.170671113905586754e-04
4.188254153563597356e+03 1.300753962661205465e+00 6.828683649057312776e-04
4.192442407717161586e+03 1.301826300726326435e+00 6.918536997090439381e-04
4.196634850124880359e+03 1.302985533877599522e+00 7.102433400587812064e-04
4.200831484975006788e+03 1.303636319618582950e+00 7.065875701325282678e-04
4.205032316459983122e+03 1.303615374413420458e+00 6.252859806378038713e-04
4.209237348776444378e+03 1.303645674929097442e+00 6.041589523856113857e-04
4.213446586125221984e+03 1.303779697192976039e+00 6.166524967503785471e-04
4.217660032711349231e+03 1.304135897003151134e+00 5.819282861537518467e-04
4.221877692744061278e+03 1.303934697897646933e+00 7.417631498517790901e-04
4.226099570436806971e+03 1.303707874624359775e+00 9.803975005554623531e-04
4.230325670007245208e+03 1.304175164273106979e+00 9.845542152751478662e-04
4.234555995677254032e+03 1.305020882961569928e+00 9.113823819117410248e-04
4.238790551672932452e+03 1.306282243640328744e+00 8.165383443886249388e-04
4.243029342224606808e+03 1.308258891229858056e+00 9.047983961808725656e-04
4.247272371566832589e+03 1.310783239469592187e+00 1.010396677111700470e-03
4.251519643938400804e+03 1.313281264526529712e+00 9.963844114106322394e-04
4.255771163582340705e+03 1.315632774452381692e+00 8.635782348248871197e-04
4.260026934745924336e+03 1.317503593882392687e+00 7.599629551002907253e-04
4.264286961680671993e+03 1.318673571673625311e+00 7.844731166138787593e-04
4.268551248642354039e+03 1.319114811811537669e+00 7.764727205319937181e-04
4.272819799890998183e+03 1.319134319838822345e+00 7.599832602817748568e-04
4.277092619690890388e+03 1.318754259234965032e+00 7.633443543434600661e-04
4.281369712310583054e+03 1.317493612179959417e+00 7.281233722047306947e-04
4.285651082022895025e+03 1.315717181803735203e+00 6.585102927780287722e-04
4.289936733104918858e+03 1.313731671503926002e+00 6.585901735687091233e-04
4.294226669838025373e+03 1.311799532661355183e+00 6.513919509606497151e-04
4.298520896507864563e+03 1.309980003678839822e+00 6.182362293956611930e-04
4.302819417404373780e+03 1.307598904157281083e+00 6.466189167120260130e-04
4.307122236821779552e+03 1.305541790702340110e+00 5.660609975696589968e-04
4.311429359058603040e+03 1.303819505003975587e+00 6.853934923466654602e-04
4.315740788417662770e+03 1.301889955646673203e+00 7.261771675255377636e-04
4.320056529206081905e+03 1.299831372187713274e+00 7.235596049509381142e-04
4.324376585735290064e+03 1.297871232925472462e+00 7.090326834486668662e-04
4.328700962321026054e+03 1.295878690737985783e+00 6.128472876252788687e-04
4.333029663283348782e+03 1.293546343934125264e+00 5.297983343318661727e-04
4.337362692946633615e+03 1.290678036316213140e+00 5.203543942482715063e-04
4.341700055639581478e+03 1.287350309056920494e+00 5.422907704226984701e-04
4.346041755695222491e+03 1.283789926417956861e+00 4.990443797092013927e-04
4.350387797450919606e+03 1.280064930170411008e+00 4.797130575361000090e-04
4.354738185248371337e+03 1.276672555927714781e+00 4.607402884397834614e-04
4.359092923433621763e+03 1.273916381883980486e+00 4.497910744689726046e-04
4.363452016357056891e+03 1.271853350546723771e+00 4.309328927447671361e-04
4.367815468373414660e+03 1.270652970617884847e+00 4.641888888906839134e-04
4.372183283841789489e+03 1.270286267827041682e+00 5.328787117148591152e-04
4.376555467125633186e+03 1.271124526678715894e+00 5.124784752604304248e-04
4.380932022592760404e+03 1.273044366106073078e+00 5.289434850522722539e-04
4.385312954615354101e+03 1.275904078911908046e+00 6.440596006352599474e-04
4.389698267569970994e+03 1.279888285792044833e+00 6.878709527156040386e-04
4.394087965837542470e+03 1.284372041724922253e+00 5.537548181335167144e-04
4.398482053803381859e+03 1.288909658440319017e+00 4.955373837496148716e-04
4.402880535857186260e+03 1.293477035921314133e+00 5.222074845619338818e-04
4.407283416393044718e+03 1.298313381910227049e+00 5.168886745542325281e-04
4.411690699809440048e+03 1.303205704728473080e+00 5.216421837771000958e-04
4.416102390509250654e+03 1.307962130826406444e+00 5.325961184454039649e-04
4.420518492899761441e+03 1.312309719738399938e+00 5.172430569619552478e-04
4.424939011392662906e+03 1.316460877102219929e+00 5.181965692648719595e-04
4.429363950404056595e+03 1.320515494340480434e+00 5.575395072805953674e-04
4.433793314354462382e+03 1.324403535422046918e+00 5.761595485840483293e-04
4.438227107668818462e+03 1.328612117902230549e+00 5.679617937695071199e-04
4.442665334776488635e+03 1.333225343171857924e+00 5.834667474283788870e-04
4.447108000111265937e+03 1.337901737682897663e+00 5.710525150124066973e-04
4.451555108111379013e+03 1.342262441370728476e+00 5.675704046652238445e-04
4.456006663219492111e+03 1.346578733659775651e+00 5.202074233984264147e-04
4.460462669882713271e+03 1.351078726289696164e+00 5.370112584263448839e-04
4.464923132552597053e+03 1.355583227478623032e+00 5.326025715554026912e-04
4.469388055685150903e+03 1.360122240424415097e+00 4.855013691048398988e-04
4.473857443740837880e+03 1.364487871494293181e+00 4.154052469997838917e-04
