# starting wavelength: 3217.070
# ending wavelength: 8917.430
# wav flux eflux
3.220109578953289656e+03 1.574559895191075531e-01 2.475582253280628545e-02
3.223329688532243836e+03 1.654143228996561854e-01 1.849712570383292565e-02
3.226553018220777176e+03 1.803370548486391278e-01 1.645757556608170788e-02
3.229779571238999324e+03 1.968449932570270622e-01 1.325385817031147356e-02
3.233009350810239084e+03 2.104637855151980652e-01 1.021483060478934647e-02
3.236242360161050783e+03 2.250515005658113021e-01 8.051481591779310540e-03
3.239478602521212906e+03 2.381980932065459744e-01 6.436856641577400062e-03
3.242718081123734919e+03 2.510849559075866155e-01 5.246238670701546675e-03
3.245960799204859995e+03 2.635564727219165682e-01 4.544022340090767172e-03
3.249206760004065927e+03 2.759763734578909444e-01 3.883678306524679120e-03
3.252455966764071036e+03 2.875496224268123679e-01 3.370672650711413910e-03
3.255708422730835991e+03 2.980774499347186857e-01 2.973803371712706745e-03
3.258964131153567905e+03 3.073384379709314107e-01 2.700109354973260871e-03
3.262223095284722604e+03 3.158400781338673302e-01 2.483966700134842241e-03
3.265485318380008266e+03 3.226971098489882506e-01 2.378902812472084415e-03
3.268750803698389518e+03 3.281962208511683410e-01 2.392329865811023033e-03
3.272019554502088795e+03 3.323010986678133771e-01 2.613401786978753437e-03
3.275291574056592253e+03 3.356351353850032249e-01 2.910991182618554753e-03
3.278566865630649772e+03 3.395704687169997515e-01 2.918542784226145492e-03
3.281845432496281319e+03 3.439270997888921322e-01 2.818711000339752318e-03
3.285127277928778767e+03 3.482226442924422072e-01 2.736301405066700679e-03
3.288412405206708627e+03 3.521718018682067908e-01 2.795854553604007215e-03
3.291700817611916591e+03 3.567456775522730439e-01 2.979074009480161839e-03
3.294992518429529355e+03 3.611635556015332371e-01 3.044815357176732396e-03
3.298287510947960072e+03 3.643630904824169403e-01 2.995113726436381737e-03
3.301585798458909267e+03 3.667322748271722443e-01 3.058692810449974934e-03
3.304887384257369376e+03 3.684431164282465643e-01 3.180787410787331258e-03
3.308192271641627485e+03 3.706645218759719862e-01 3.166685888162250589e-03
3.311500463913270323e+03 3.739568712035578057e-01 3.167777860354504312e-03
3.314811964377184722e+03 3.776139679719162645e-01 3.162447144417486738e-03
3.318126776341563072e+03 3.811687677926077766e-01 3.152201744507628599e-03
3.321444903117905596e+03 3.846319542405279290e-01 3.246342825148031651e-03
3.324766348021024896e+03 3.886404793629220644e-01 3.228272968930410644e-03
3.328091114369046863e+03 3.925931083700719970e-01 3.222907786544280777e-03
3.331419205483417045e+03 3.960839546936623101e-01 3.222450254005705325e-03
3.334750624688901553e+03 4.001262441390974200e-01 3.219956250457575199e-03
3.338085375313591612e+03 4.050723684499950572e-01 3.190868338203930489e-03
3.341423460688906289e+03 4.100213552669938477e-01 3.140978953645659402e-03
3.344764884149596128e+03 4.127192295892119778e-01 3.155492538839497086e-03
3.348109649033746791e+03 4.158277721592195664e-01 3.200064267600474192e-03
3.351457758682781787e+03 4.187354344652045590e-01 3.211133700415755472e-03
3.354809216441465651e+03 4.203631121382441216e-01 3.188984489922313832e-03
3.358164025657908041e+03 4.221735378595831145e-01 3.167076747157512515e-03
3.361522189683567376e+03 4.236110640917362113e-01 3.156533402417647377e-03
3.364883711873251741e+03 4.250615854001058569e-01 3.118974625522962472e-03
3.368248595585126168e+03 4.262602283989067598e-01 3.147706845823978247e-03
3.371616844180712633e+03 4.274509399308129010e-01 3.162844071742333153e-03
3.374988461024894150e+03 4.287541364865831151e-01 3.161696840052387759e-03
3.378363449485920228e+03 4.300917435020337742e-01 3.264784265777722488e-03
3.381741812935407324e+03 4.307552404629957921e-01 3.236072647114703830e-03
3.385123554748343849e+03 4.304799940855005835e-01 3.061004587031404371e-03
3.388508678303093347e+03 4.296221925596721558e-01 2.569223748243713770e-03
3.391897186981397681e+03 4.291827934898544972e-01 2.034697098550235488e-03
3.395289084168380214e+03 4.301962937329391057e-01 2.004645230683984713e-03
3.398684373252549449e+03 4.323305476375137180e-01 2.069964483026373765e-03
3.402083057625803121e+03 4.359069188367101222e-01 1.963000932647615722e-03
3.405485140683430018e+03 4.396702752818113513e-01 1.696578902314245692e-03
3.408890625824114522e+03 4.432172898646027370e-01 1.556492798425898128e-03
3.412299516449939802e+03 4.461176205225539371e-01 1.561712914416167608e-03
3.415711815966390986e+03 4.491558380683248752e-01 1.550033351432758468e-03
3.419127527782358356e+03 4.527205738239749033e-01 1.541555158822631054e-03
3.422546655310141887e+03 4.571531473564903192e-01 1.476631787456801756e-03
3.425969201965453522e+03 4.618131530327135859e-01 1.292008194969875186e-03
3.429395171167419903e+03 4.658447673226699393e-01 1.290214614236874068e-03
3.432824566338588284e+03 4.694707914592859965e-01 1.299595003129979309e-03
3.436257390904928343e+03 4.731497797438807829e-01 1.321602122108214445e-03
3.439693648295834464e+03 4.762896948918745599e-01 1.228020761101566993e-03
3.443133341944131189e+03 4.792632876384596563e-01 9.710624219174328157e-04
3.446576475286076402e+03 4.827986123852307521e-01 9.842191247552121731e-04
3.450023051761363604e+03 4.866269116627386371e-01 9.964559010039561633e-04
3.453473074813126004e+03 4.903436885559575020e-01 9.908955073745675905e-04
3.456926547887940615e+03 4.942849030836842239e-01 8.318259757206803709e-04
3.460383474435829612e+03 4.976915664391669547e-01 7.873142581496085732e-04
3.463843857910266706e+03 5.005369378751807208e-01 7.899339654810852039e-04
3.467307701768178049e+03 5.028844872772078034e-01 7.767949356071494026e-04
3.470775009469947236e+03 5.042800482274745200e-01 8.042727041483720704e-04
3.474245784479418489e+03 5.051527484761360043e-01 8.183784857150941524e-04
3.477720030263898934e+03 5.059301378574690977e-01 8.499535894081537658e-04
3.481197750294164052e+03 5.066685046599530562e-01 8.541563095041146240e-04
3.484678948044459503e+03 5.070991659673911300e-01 8.599983830463480599e-04
3.488163626992504760e+03 5.074211616187154217e-01 8.587891145357007955e-04
3.491651790619498570e+03 5.071882779096649196e-01 7.666382368531345862e-04
3.495143442410119405e+03 5.066815989002918519e-01 7.199667133573813558e-04
3.498638585852530468e+03 5.063825346668486826e-01 7.508805780913179731e-04
3.502137224438384237e+03 5.062420616214345914e-01 8.466524213976799182e-04
3.505639361662823831e+03 5.056293690676230135e-01 8.321748282233574958e-04
3.509145001024487556e+03 5.048413482491151960e-01 8.216693395573927521e-04
3.512654146025513455e+03 5.037539572285690825e-01 8.414415571143911421e-04
3.516166800171540217e+03 5.023726073156492555e-01 8.662953333976339352e-04
3.519682966971712631e+03 5.012922939716439874e-01 8.731561962072424427e-04
3.523202649938685681e+03 5.007508673016188849e-01 8.479227729803610111e-04
3.526725852588625457e+03 5.004502272363178239e-01 8.099367288367209346e-04
3.530252578441215064e+03 5.000913345528517073e-01 8.059726353980748272e-04
3.533782831019657806e+03 4.996781536600667928e-01 7.974641393104938119e-04
3.537316613850678550e+03 4.993043558544020821e-01 7.669313433281705738e-04
3.540853930464530094e+03 4.991635874574505971e-01 7.434440067751869712e-04
3.544394784394995895e+03 4.994454125707543657e-01 7.625828712826983715e-04
3.547939179179392340e+03 4.999088186137188861e-01 7.789218408224953070e-04
3.551487118358572843e+03 5.004917606257051066e-01 8.110320393870045592e-04
3.555038605476932389e+03 5.015288299182184550e-01 8.300540343472115898e-04
3.558593644082410719e+03 5.028007465741110016e-01 8.170704629148255399e-04
3.562152237726494150e+03 5.045505869231324825e-01 7.221017376593418706e-04
3.565714389964221937e+03 5.064961392626105008e-01 7.135311205169110084e-04
3.569280104354187188e+03 5.083486568444331999e-01 8.396483806239770200e-04
3.572849384458542772e+03 5.105151293088459052e-01 8.575719346160481883e-04
3.576422233843002232e+03 5.132315415108664736e-01 8.069258337110460583e-04
3.579998656076846601e+03 5.165592828466678554e-01 7.326551305537561988e-04
3.583578654732924406e+03 5.204478494100766017e-01 6.303182389643810979e-04
3.587162233387658489e+03 5.251508676245407736e-01 7.156035999725603343e-04
3.590749395621047370e+03 5.305241311106152491e-01 8.631069433591131426e-04
3.594340145016669794e+03 5.363083852535843743e-01 8.359770768757874291e-04
3.597934485161687462e+03 5.424309701832825681e-01 6.770514325339075821e-04
3.601532419646850485e+03 5.485291646912486829e-01 6.587761620269266209e-04
3.605133952066498296e+03 5.548858138288513819e-01 6.211706770571352818e-04
3.608739086018566013e+03 5.610903531205899686e-01 6.204592132207738990e-04
3.612347825104585809e+03 5.669744254139984507e-01 6.196796670539649488e-04
3.615960172929691907e+03 5.727601723821769131e-01 6.019553617901517032e-04
3.619576133102622407e+03 5.784256830180017905e-01 5.908287595037328569e-04
3.623195709235726554e+03 5.834873534599871459e-01 5.797407023952096247e-04
3.626818904944963379e+03 5.876747135783729759e-01 5.891180273369057627e-04
3.630445723849909427e+03 5.913419213786162976e-01 5.545046617130903977e-04
3.634076169573760581e+03 5.945718068107846976e-01 5.412892055992915260e-04
3.637710245743335690e+03 5.974465868384246647e-01 5.398918055213110289e-04
3.641347955989080219e+03 5.999247888988317179e-01 5.327580276790753241e-04
3.644989303945070333e+03 6.020050346914912476e-01 5.296272075912057979e-04
3.648634293249016537e+03 6.036211470089001274e-01 6.071085776232780680e-04
3.652282927542266862e+03 6.050343920154873656e-01 6.646193527554304170e-04
3.655935210469810499e+03 6.061776545951836903e-01 7.114590105650623946e-04
3.659591145680281443e+03 6.072597040443344918e-01 6.487355688519659677e-04
3.663250736825963031e+03 6.085861966682049040e-01 5.559331510643553522e-04
3.666913987562790226e+03 6.100891143402038530e-01 4.738454856499489404e-04
3.670580901550354156e+03 6.119969299180818556e-01 4.349466593121129000e-04
3.674251482451905758e+03 6.144436836526921963e-01 5.460228919797878401e-04
3.677925733934358959e+03 6.174990491488662192e-01 6.334257628112025104e-04
3.681603659668294313e+03 6.206005528909041002e-01 5.280841836749164842e-04
3.685285263327964003e+03 6.232114101289960573e-01 5.430926219154601133e-04
3.688970548591293209e+03 6.260760527767603723e-01 5.175393644665289171e-04
3.692659519139885560e+03 6.288780031026778294e-01 4.883625704270625704e-04
3.696352178659026777e+03 6.312899087921794994e-01 4.881165957047826215e-04
3.700048530837686940e+03 6.334149669470561239e-01 4.953113075780952784e-04
3.703748579368525952e+03 6.355600488939385784e-01 4.860490230915957008e-04
3.707452327947895355e+03 6.370074761869728430e-01 5.034278584217658295e-04
3.711159780275844696e+03 6.383768642241934854e-01 4.999318231932918608e-04
3.714870940056121526e+03 6.397193535681761078e-01 6.760683902020179874e-04
3.718585810996179134e+03 6.406455944706064276e-01 7.487829052051818901e-04
3.722304396807176545e+03 6.411073839978999045e-01 7.230443728579907369e-04
3.726026701203984885e+03 6.411953966906556168e-01 6.731288738689153233e-04
3.729752727905190113e+03 6.408965838789385527e-01 6.238863217148780818e-04
3.733482480633096657e+03 6.400313422784940087e-01 8.679642365608114529e-04
3.737215963113731050e+03 6.392303437510159503e-01 1.115388563887198580e-03
3.740953179076846027e+03 6.381642645142358017e-01 1.183054441472067243e-03
3.744694132255923705e+03 6.384126462195910401e-01 1.057533973946528285e-03
3.748438826388181042e+03 6.401129776482864520e-01 9.028561039680514568e-04
3.752187265214570289e+03 6.434495329466934921e-01 8.633084505101002760e-04
3.755939452479786269e+03 6.485568653307355325e-01 9.039696199880766295e-04
3.759695391932267285e+03 6.548961057588265078e-01 9.125389168634519786e-04
3.763455087324201031e+03 6.629436277868445693e-01 1.064588900168933093e-03
3.767218542411526414e+03 6.725325883993424902e-01 1.136745941553590940e-03
3.770985760953939007e+03 6.825928438307687918e-01 9.540603226274641966e-04
3.774756746714894234e+03 6.927615893527052648e-01 7.242728054747723642e-04
3.778531503461610555e+03 7.024454606919494637e-01 5.521188734334151003e-04
3.782310034965073100e+03 7.114052831800589116e-01 4.809658979997842067e-04
3.786092345000039586e+03 7.188536400330304277e-01 4.162780048730317347e-04
3.789878437345040766e+03 7.255485188318880896e-01 4.090170660148937645e-04
3.793668315782387253e+03 7.313876062881635720e-01 4.073202776168610012e-04
3.797461984098170888e+03 7.360852794318665238e-01 4.835590458442690239e-04
3.801259446082270188e+03 7.401572613355090757e-01 5.807259223300627283e-04
3.805060705528353537e+03 7.438456058288736017e-01 6.457747753026386048e-04
3.808865766233883278e+03 7.470217048155075590e-01 6.056616073386322536e-04
3.812674632000118436e+03 7.504378544258805128e-01 5.213406918035473018e-04
3.816487306632119726e+03 7.543617454824581570e-01 3.839076092525307046e-04
3.820303793938753188e+03 7.589918683611643901e-01 3.659498574564880443e-04
3.824124097732693372e+03 7.644957695378383766e-01 4.041795268617396275e-04
3.827948221830427428e+03 7.706443402569204126e-01 4.515959159466514266e-04
3.831776170052258749e+03 7.771751956815953211e-01 4.348104140075711110e-04
3.835607946222312421e+03 7.840272164355748252e-01 4.333528219892509377e-04
3.839443554168536139e+03 7.917118729074877903e-01 4.571448169608936687e-04
3.843282997722705659e+03 7.996037391995953758e-01 3.683052856149029628e-04
3.847126280720429804e+03 8.071510121958832551e-01 3.550979420289158842e-04
3.850973407001151372e+03 8.146357674753604838e-01 3.626372259527299059e-04
3.854824380408153957e+03 8.220053569710638053e-01 3.816685372833274669e-04
3.858679204788563311e+03 8.293393478591659651e-01 3.753388283088013940e-04
3.862537883993353262e+03 8.368534423086596563e-01 3.908245270588510552e-04
3.866400421877347981e+03 8.445896256084514109e-01 4.330687485381092038e-04
3.870266822299226533e+03 8.525628411695029829e-01 3.841224551011970497e-04
3.874137089121526969e+03 8.608625152652857881e-01 3.669201656040153815e-04
3.878011226210649966e+03 8.695803946981894850e-01 3.803839738788766648e-04
3.881889237436861549e+03 8.784351287916228879e-01 3.761263500520246493e-04
3.885771126674299921e+03 8.875671757387576521e-01 3.828746076201520088e-04
3.889656897800975457e+03 8.969746593475989016e-01 3.727410871737927081e-04
3.893546554698777527e+03 9.062415048264855777e-01 3.629423615078826524e-04
3.897440101253477678e+03 9.154969734575315599e-01 3.500208515625580848e-04
3.901337541354732366e+03 9.245426806823076049e-01 3.837598314647711214e-04
3.905238878896088409e+03 9.332490694210523463e-01 3.313997686840372829e-04
3.909144117774985716e+03 9.416593340172004778e-01 4.213671295853437773e-04
3.913053261892762293e+03 9.497691461541392099e-01 5.319180660108007060e-04
3.916966315154656058e+03 9.569507323563649637e-01 5.045423896784367304e-04
3.920883281469812118e+03 9.631364431365380119e-01 4.789244527663131406e-04
3.924804164751283224e+03 9.682995658294439867e-01 4.519293004775091962e-04
3.928728968916035683e+03 9.725302911190568667e-01 4.214236317555685742e-04
3.932657697884953450e+03 9.756369789989250974e-01 4.564395409750065971e-04
3.936590355582839493e+03 9.777479385996115102e-01 5.114315943179552175e-04
3.940526945938423523e+03 9.790900882424821150e-01 4.776724557349780248e-04
3.944467472884363360e+03 9.800642321232315712e-01 4.459490175176695614e-04
3.948411940357249023e+03 9.806123875298424775e-01 3.907232342461403811e-04
3.952360352297607733e+03 9.812919882953111683e-01 3.715664239606482583e-04
3.956312712649906643e+03 9.823684844915174796e-01 3.210488792344497254e-04
3.960269025362557841e+03 9.839752374333650131e-01 3.277077270390246853e-04
3.964229294387921527e+03 9.861639602253648995e-01 2.958643009521567621e-04
3.968193523682310570e+03 9.886543863565212531e-01 2.930657210583447738e-04
3.972161717205994591e+03 9.916044770689417254e-01 3.063661253720255059e-04
3.976133878923201792e+03 9.948673554874724045e-01 3.386762539146074874e-04
3.980110012802126221e+03 9.985658057208577354e-01 3.920134864849780906e-04
3.984090122814929600e+03 1.002496324338214118e+00 3.569222512776897590e-04
3.988074212937745870e+03 1.006343701920552114e+00 2.742504048378722353e-04
3.992062287150684824e+03 1.009968875705172797e+00 3.141416711523068394e-04
3.996054349437837118e+03 1.013634206232022494e+00 3.149388144004160953e-04
4.000050403787276082e+03 1.017044772053803614e+00 3.095142954279621957e-04
4.004050454191064546e+03 1.020364466613881360e+00 3.124854202839920576e-04
4.008054504645257111e+03 1.023228841145897627e+00 3.116221207486925176e-04
4.012062559149903791e+03 1.025996651553656713e+00 3.028440118339147374e-04
4.016074621709055009e+03 1.028641147567169289e+00 3.004862102090676912e-04
4.020090696330765240e+03 1.031017610069702828e+00 3.259254646763595862e-04
4.024110787027097558e+03 1.033128176797316167e+00 3.225252220387997740e-04
4.028134897814125907e+03 1.035193259261644405e+00 3.147878011321140644e-04
4.032163032711941469e+03 1.037215514521606430e+00 3.174905289694727410e-04
4.036195195744654484e+03 1.038947415844612809e+00 3.138140153688713649e-04
4.040231390940400615e+03 1.040470394508807184e+00 3.375529027732193763e-04
4.044271622331342314e+03 1.041584697941253301e+00 3.539715905464648816e-04
4.048315893953675186e+03 1.042396157441408899e+00 3.460984749304864641e-04
4.052364209847629809e+03 1.042953779828400318e+00 3.311659506249012980e-04
4.056416574057479011e+03 1.043260951639424894e+00 3.102076796778728551e-04
4.060472990631537868e+03 1.043282337777192703e+00 3.234176019228411571e-04
4.064533463622170530e+03 1.042945789650956856e+00 3.081910833898624837e-04
4.068597997085794304e+03 1.042534671658111201e+00 2.415492390987905992e-04
4.072666595082881486e+03 1.042230336999876439e+00 2.380336319608090576e-04
4.076739261677965715e+03 1.041953255935559985e+00 2.237424662213744679e-04
4.080816000939644709e+03 1.041972910645555750e+00 2.255386023974257595e-04
4.084896816940585722e+03 1.042026711590497756e+00 2.713046938584467082e-04
4.088981713757527814e+03 1.042781793703158044e+00 2.645462685804641817e-04
4.093070695471286854e+03 1.043844491040329947e+00 2.588340146387439885e-04
4.097163766166759160e+03 1.045124096198404517e+00 2.611190204750846590e-04
4.101260929932927866e+03 1.047003245863560306e+00 2.594652302591978410e-04
4.105362190862862008e+03 1.049292151943848284e+00 2.658716237271863169e-04
4.109467553053726078e+03 1.052031391547005645e+00 2.593573005476739238e-04
4.113577020606780934e+03 1.055260237710804905e+00 2.816746493836255272e-04
4.117690597627389252e+03 1.059087900167988483e+00 4.322063420860433321e-04
4.121808288225018259e+03 1.062893316964619972e+00 4.023174789083558064e-04
4.125930096513244280e+03 1.066574493206368990e+00 3.954695036384015092e-04
4.130056026609759101e+03 1.070298192907309875e+00 3.866158793957842035e-04
4.134186082636369974e+03 1.073873957764090115e+00 3.980044850860993606e-04
4.138320268719007800e+03 1.077360330792603182e+00 3.929241524746534078e-04
4.142458588987728035e+03 1.080703380636379940e+00 3.887292016959043202e-04
4.146601047576717065e+03 1.083980620603806289e+00 4.215628531468535107e-04
4.150747648624294925e+03 1.086813229607236364e+00 4.208654445085838343e-04
4.154898396272920763e+03 1.089418379503434453e+00 4.199313061617909759e-04
4.159053294669195566e+03 1.091800456091247984e+00 4.269374214272535087e-04
4.163212347963865795e+03 1.093773852908323407e+00 4.517797777063366389e-04
4.167375560311830668e+03 1.096083289263383831e+00 4.471117420782806965e-04
4.171542935872143971e+03 1.098196758486603253e+00 4.492024281468923424e-04
4.175714478808017702e+03 1.100103197201416361e+00 4.460240609633266693e-04
4.179890193286827525e+03 1.101987234828024187e+00 4.410559782977332261e-04
4.184070083480115500e+03 1.103474993229135004e+00 4.205179286086890476e-04
4.188254153563597356e+03 1.105008307009699431e+00 3.971165481041946644e-04
4.192442407717161586e+03 1.106734741608060402e+00 4.207483382834972200e-04
