# starting wavelength: 3371.810
# ending wavelength: 8917.430
# wav flux eflux
3.374988461024894150e+03 3.626305960366393299e-01 3.420813943136934848e-02
3.378363449485920228e+03 3.793522464965305430e-01 2.529718094919690061e-02
3.381741812935407324e+03 3.914182255033037405e-01 1.918265654484718752e-02
3.385123554748343849e+03 4.006028652921768130e-01 1.474336350431391246e-02
3.388508678303093347e+03 4.079013219386639633e-01 1.175341855928371121e-02
3.391897186981397681e+03 4.118766429099144366e-01 9.791164679149191516e-03
3.395289084168380214e+03 4.121943965416663413e-01 8.165275651068731530e-03
3.398684373252549449e+03 4.094524056007562418e-01 6.971118029291118248e-03
3.402083057625803121e+03 4.039284583664552453e-01 6.237266324254853861e-03
3.405485140683430018e+03 3.964042403984908147e-01 5.598518280944773766e-03
3.408890625824114522e+03 3.880986063251046225e-01 4.989370127301126154e-03
3.412299516449939802e+03 3.795927858917658715e-01 4.507026500721346245e-03
3.415711815966390986e+03 3.713120936915281778e-01 4.157508987387479801e-03
3.419127527782358356e+03 3.633110643564472220e-01 3.893190394407095457e-03
3.422546655310141887e+03 3.564019269323064898e-01 3.690960471453397229e-03
3.425969201965453522e+03 3.507993689010557303e-01 3.571727026413611984e-03
3.429395171167419903e+03 3.465321324922766011e-01 3.560698790550757831e-03
3.432824566338588284e+03 3.434481531118153685e-01 3.676188814370485915e-03
3.436257390904928343e+03 3.412722137813126166e-01 3.902432738184880793e-03
3.439693648295834464e+03 3.391894626384984734e-01 4.151419490193737974e-03
3.443133341944131189e+03 3.382826785413026172e-01 4.641441597528475974e-03
3.446576475286076402e+03 3.395942989657003142e-01 4.832976981792456474e-03
3.450023051761363604e+03 3.411675190891174103e-01 4.709879649649311925e-03
3.453473074813126004e+03 3.426347130441330102e-01 4.258655564816579003e-03
3.456926547887940615e+03 3.439123985415405427e-01 3.624406367487097332e-03
3.460383474435829612e+03 3.443958938264121694e-01 3.039237394345144835e-03
3.463843857910266706e+03 3.432605042271540396e-01 2.899774391124173342e-03
3.467307701768178049e+03 3.401862178095548250e-01 2.990153550628890742e-03
3.470775009469947236e+03 3.371408797440856309e-01 3.009058390389909854e-03
3.474245784479418489e+03 3.340784913915656462e-01 3.076229674460181484e-03
3.477720030263898934e+03 3.296796961584361751e-01 3.243846460750083368e-03
3.481197750294164052e+03 3.242275094297878413e-01 3.563756091492531822e-03
3.484678948044459503e+03 3.179353772729129335e-01 3.855192454852689275e-03
3.488163626992504760e+03 3.113314133554554441e-01 3.856624717044277156e-03
3.491651790619498570e+03 3.055240415907365392e-01 3.850409116018321636e-03
3.495143442410119405e+03 2.991757311429177890e-01 3.537896719857977056e-03
3.498638585852530468e+03 2.913274711056560440e-01 1.518061813372343890e-03
3.502137224438384237e+03 2.878498234545902035e-01 1.161909956413869358e-03
3.505639361662823831e+03 2.866189278871763002e-01 1.294009527986420688e-03
3.509145001024487556e+03 2.867140144112447775e-01 1.495545186751453962e-03
3.512654146025513455e+03 2.878082936296713079e-01 1.644358309601804107e-03
3.516166800171540217e+03 2.903783089974127929e-01 1.729725838248705573e-03
3.519682966971712631e+03 2.944301971746623448e-01 1.641388160552255870e-03
3.523202649938685681e+03 2.995457575541541906e-01 1.630545938639410509e-03
3.526725852588625457e+03 3.057126380958346545e-01 1.862003126147004830e-03
3.530252578441215064e+03 3.116952341481730171e-01 1.699643513211449280e-03
3.533782831019657806e+03 3.192363873686466791e-01 1.672450625319047432e-03
3.537316613850678550e+03 3.265169094198157596e-01 1.697764715983601010e-03
3.540853930464530094e+03 3.329748046636108461e-01 1.661416932865118464e-03
3.544394784394995895e+03 3.386402407269904491e-01 1.499946710213465343e-03
3.547939179179392340e+03 3.434590971878488941e-01 1.336545357758734710e-03
3.551487118358572843e+03 3.473774679388870745e-01 1.312960788445434977e-03
3.555038605476932389e+03 3.495422852622009358e-01 1.624224939667414909e-03
3.558593644082410719e+03 3.508511001819000219e-01 1.808971623767097582e-03
3.562152237726494150e+03 3.520600527786216793e-01 1.935819082036379290e-03
3.565714389964221937e+03 3.526088265809600442e-01 2.113775851155309023e-03
3.569280104354187188e+03 3.528240616567954180e-01 2.072836194051253141e-03
3.572849384458542772e+03 3.526481622682766659e-01 2.035741693613509710e-03
3.576422233843002232e+03 3.530055051896094920e-01 1.986661977187986587e-03
3.579998656076846601e+03 3.541083309996581052e-01 1.863509587640858021e-03
3.583578654732924406e+03 3.560419876714981391e-01 1.787264027813066300e-03
3.587162233387658489e+03 3.585834993726980668e-01 1.593505959615796816e-03
3.590749395621047370e+03 3.624278621148001034e-01 1.538953409493719988e-03
3.594340145016669794e+03 3.673551675011956230e-01 1.489998812455491312e-03
3.597934485161687462e+03 3.734019615712698692e-01 1.472541593412951110e-03
3.601532419646850485e+03 3.807763284650155233e-01 1.512029552523423085e-03
3.605133952066498296e+03 3.900780292440281793e-01 1.551281223028873639e-03
3.608739086018566013e+03 3.997796927480532503e-01 1.555320260789874514e-03
3.612347825104585809e+03 4.107915655574830294e-01 1.415555937799215219e-03
3.615960172929691907e+03 4.226396979756352756e-01 1.239682913685117563e-03
3.619576133102622407e+03 4.351269768106987290e-01 1.089126386788438674e-03
3.623195709235726554e+03 4.476350718365466608e-01 9.653391830973114636e-04
3.626818904944963379e+03 4.593312203950448147e-01 9.471931755281017473e-04
3.630445723849909427e+03 4.705166110514391042e-01 9.325574941318009970e-04
3.634076169573760581e+03 4.811366228554144753e-01 8.873253971212714201e-04
3.637710245743335690e+03 4.915021309380474546e-01 8.794452454121178941e-04
3.641347955989080219e+03 5.016854047117436100e-01 8.832584809923837727e-04
3.644989303945070333e+03 5.113125056843728089e-01 8.538697140054476954e-04
3.648634293249016537e+03 5.205020472161634437e-01 8.035377117537161875e-04
3.652282927542266862e+03 5.292256968964023089e-01 8.897854761264271635e-04
3.655935210469810499e+03 5.369073166464732871e-01 8.888363856685402341e-04
3.659591145680281443e+03 5.432654677857911008e-01 8.913983948980765386e-04
3.663250736825963031e+03 5.482315815389465774e-01 1.073036263309440743e-03
3.666913987562790226e+03 5.529666185222966712e-01 1.184291719196342530e-03
3.670580901550354156e+03 5.575520748302319474e-01 1.200028019612624361e-03
3.674251482451905758e+03 5.613923502102988738e-01 1.214026701233656422e-03
3.677925733934358959e+03 5.650575368640098350e-01 1.286351519171312742e-03
3.681603659668294313e+03 5.685427141987896560e-01 1.139544021361920192e-03
3.685285263327964003e+03 5.724581403871437102e-01 1.082310978866126133e-03
3.688970548591293209e+03 5.769191635956805175e-01 1.108333126911114838e-03
3.692659519139885560e+03 5.817126751883420210e-01 1.192391444368485261e-03
3.696352178659026777e+03 5.862177378822613916e-01 1.241520442382495516e-03
3.700048530837686940e+03 5.913318184897558005e-01 1.297038577582927156e-03
3.703748579368525952e+03 5.962154149405869408e-01 1.295837266910509090e-03
3.707452327947895355e+03 6.011410623162574129e-01 1.288232695332914126e-03
3.711159780275844696e+03 6.061885762456142857e-01 1.280159056118896754e-03
3.714870940056121526e+03 6.113166595789728541e-01 1.329494585789198690e-03
3.718585810996179134e+03 6.167622139012364224e-01 1.314935344927218881e-03
3.722304396807176545e+03 6.220821230630914078e-01 1.168379815666299249e-03
3.726026701203984885e+03 6.266548667499406422e-01 1.084155010203712933e-03
3.729752727905190113e+03 6.304806086445488011e-01 1.082912969652535459e-03
3.733482480633096657e+03 6.339834877675052383e-01 1.087386570440655297e-03
3.737215963113731050e+03 6.362921870051831963e-01 1.120849082004486902e-03
3.740953179076846027e+03 6.379846197985420408e-01 1.184686652643219531e-03
3.744694132255923705e+03 6.393287205834663478e-01 1.232937091657445011e-03
3.748438826388181042e+03 6.416366506160217087e-01 1.217589194923291524e-03
3.752187265214570289e+03 6.445104723194119423e-01 1.238480237511850168e-03
3.755939452479786269e+03 6.473194696683143290e-01 1.237318149542210918e-03
3.759695391932267285e+03 6.501056682994701408e-01 1.218229449747176493e-03
3.763455087324201031e+03 6.532562857178622062e-01 1.152172915049209717e-03
3.767218542411526414e+03 6.571964019245066790e-01 1.177406068272185196e-03
3.770985760953939007e+03 6.614741983034155837e-01 1.204095386855538134e-03
3.774756746714894234e+03 6.659064696924898996e-01 1.186719544763558407e-03
3.778531503461610555e+03 6.708263025848978378e-01 1.193430775628451755e-03
3.782310034965073100e+03 6.764703627743124947e-01 1.190138652990700013e-03
3.786092345000039586e+03 6.831647187227538609e-01 1.133174745905251874e-03
3.789878437345040766e+03 6.904571496656815022e-01 1.039723980728583189e-03
3.793668315782387253e+03 6.978121179491681980e-01 1.017873986147222127e-03
3.797461984098170888e+03 7.051370329998972730e-01 1.003530956023097149e-03
3.801259446082270188e+03 7.126258871311538234e-01 9.559916330591888400e-04
3.805060705528353537e+03 7.206671713446350935e-01 9.748350788175278760e-04
3.808865766233883278e+03 7.286564026712738507e-01 1.016171813392486353e-03
3.812674632000118436e+03 7.376306907885478159e-01 1.278332932202018782e-03
3.816487306632119726e+03 7.461893718167701417e-01 1.281141651623580362e-03
3.820303793938753188e+03 7.544260355243598282e-01 1.275706605465462638e-03
3.824124097732693372e+03 7.634403356981668276e-01 1.195974512842346103e-03
3.827948221830427428e+03 7.718066250004645967e-01 1.224682821641935636e-03
3.831776170052258749e+03 7.798707490785921070e-01 1.249056629075689234e-03
3.835607946222312421e+03 7.880770713304415809e-01 1.166297304437452628e-03
3.839443554168536139e+03 7.972031635737790722e-01 1.255633921653718111e-03
3.843282997722705659e+03 8.070540616048287319e-01 1.107598931466873254e-03
3.847126280720429804e+03 8.181913253784571793e-01 9.035264317427271633e-04
3.850973407001151372e+03 8.309760396420803330e-01 1.043081240496270641e-03
3.854824380408153957e+03 8.448634972394184484e-01 1.296008475594067136e-03
3.858679204788563311e+03 8.595301478912239501e-01 1.573169623724945737e-03
3.862537883993353262e+03 8.741340306747059641e-01 1.622033454961682632e-03
3.866400421877347981e+03 8.877578935535446192e-01 1.620983713342859494e-03
3.870266822299226533e+03 9.011650473818616502e-01 1.456634143869030024e-03
3.874137089121526969e+03 9.135087262766139471e-01 1.154537998781024217e-03
3.878011226210649966e+03 9.243552123502990492e-01 9.864379405008136779e-04
3.881889237436861549e+03 9.329715489252026206e-01 1.019469575886305284e-03
3.885771126674299921e+03 9.396462814715687006e-01 9.234667943182189040e-04
3.889656897800975457e+03 9.450085669412966460e-01 9.104791968490286765e-04
3.893546554698777527e+03 9.488431678904356570e-01 1.009578441422139634e-03
3.897440101253477678e+03 9.511358472846528356e-01 1.056893486891909758e-03
3.901337541354732366e+03 9.526333527563143333e-01 9.695255147387289068e-04
3.905238878896088409e+03 9.544440000308092031e-01 8.582392814818369780e-04
3.909144117774985716e+03 9.571296149310642987e-01 8.709855338623249087e-04
3.913053261892762293e+03 9.603225504834936865e-01 8.745552094936552296e-04
3.916966315154656058e+03 9.644930190807079473e-01 8.556096653113463932e-04
3.920883281469812118e+03 9.693999329647199348e-01 8.369483931821283590e-04
3.924804164751283224e+03 9.755206352092563593e-01 9.533066929457693515e-04
3.928728968916035683e+03 9.826005838200498888e-01 1.204999049460047820e-03
3.932657697884953450e+03 9.901020625304658429e-01 1.260442464376609938e-03
3.936590355582839493e+03 9.978038893579235236e-01 1.130355530776026417e-03
3.940526945938423523e+03 1.005466236814117176e+00 7.719372685251024279e-04
3.944467472884363360e+03 1.011905460160548831e+00 6.128483170706066794e-04
3.948411940357249023e+03 1.016952316695038050e+00 8.425714281604812115e-04
3.952360352297607733e+03 1.020898806215976062e+00 9.162184552625211517e-04
3.956312712649906643e+03 1.024427184154668602e+00 8.075720120848284712e-04
3.960269025362557841e+03 1.027247077470324843e+00 7.810144401063819075e-04
3.964229294387921527e+03 1.029484908492268147e+00 9.421840130120532307e-04
3.968193523682310570e+03 1.030839182436243284e+00 9.623569916446371051e-04
3.972161717205994591e+03 1.030752179351350106e+00 9.437449884253326258e-04
3.976133878923201792e+03 1.029605710905706850e+00 9.470830487199571445e-04
3.980110012802126221e+03 1.027553721826319544e+00 1.013015048036580712e-03
3.984090122814929600e+03 1.024989376578631095e+00 1.081314186760317817e-03
3.988074212937745870e+03 1.021817202701900795e+00 1.149424549354788674e-03
3.992062287150684824e+03 1.018238260615146107e+00 1.054821646684728827e-03
3.996054349437837118e+03 1.014965243369032599e+00 8.485698367328721979e-04
4.000050403787276082e+03 1.012341396937274096e+00 8.378148533392491826e-04
4.004050454191064546e+03 1.010251427466092533e+00 8.628933474307148334e-04
4.008054504645257111e+03 1.008646914476714507e+00 8.749775690813868132e-04
4.012062559149903791e+03 1.007724558408016113e+00 8.211377384528899780e-04
4.016074621709055009e+03 1.007747062758355572e+00 5.704997395229771716e-04
4.020090696330765240e+03 1.007377191468663780e+00 5.726812395562180845e-04
4.024110787027097558e+03 1.006889054483709911e+00 5.887498979953314799e-04
4.028134897814125907e+03 1.006335072540900377e+00 4.720333711761585060e-04
4.032163032711941469e+03 1.006066984779010909e+00 6.261221901871447939e-04
4.036195195744654484e+03 1.005558647943364026e+00 7.677146671817777768e-04
4.040231390940400615e+03 1.004763448261361436e+00 8.272084634445592711e-04
4.044271622331342314e+03 1.003157688877597931e+00 7.176008901673552876e-04
4.048315893953675186e+03 1.000606870960654371e+00 6.460925014845101885e-04
4.052364209847629809e+03 9.971499626920363735e-01 7.115749516430595759e-04
4.056416574057479011e+03 9.929625577341887332e-01 9.245183756458183119e-04
4.060472990631537868e+03 9.883046360757220539e-01 1.201730553348293214e-03
4.064533463622170530e+03 9.838203488359548166e-01 1.159085762440892125e-03
4.068597997085794304e+03 9.800351350923061089e-01 8.802227893567380170e-04
4.072666595082881486e+03 9.774847015264999106e-01 8.346972540717666851e-04
4.076739261677965715e+03 9.758712679393359846e-01 9.384857870966099727e-04
4.080816000939644709e+03 9.750452917599735647e-01 1.052982355844331048e-03
4.084896816940585722e+03 9.748595592659083930e-01 1.122266386137982502e-03
4.088981713757527814e+03 9.748307665505242525e-01 1.026509538409899232e-03
4.093070695471286854e+03 9.749394331227250188e-01 5.873607139944997954e-04
4.097163766166759160e+03 9.736409326881632076e-01 5.258905543460706692e-04
4.101260929932927866e+03 9.714346631151100642e-01 6.594334853987513173e-04
4.105362190862862008e+03 9.684517007460274884e-01 7.086513982749012607e-04
4.109467553053726078e+03 9.649861152426236766e-01 6.632603962872567422e-04
4.113577020606780934e+03 9.609773237376721955e-01 5.651991870230055424e-04
4.117690597627389252e+03 9.566978991401984267e-01 5.495719610860972087e-04
4.121808288225018259e+03 9.520748688174737184e-01 5.318310587639652354e-04
4.125930096513244280e+03 9.475431636842106542e-01 5.627611411070540482e-04
4.130056026609759101e+03 9.434613646102617546e-01 5.445573085030528402e-04
4.134186082636369974e+03 9.395138923906350970e-01 6.362411847468981817e-04
4.138320268719007800e+03 9.359805722100434933e-01 6.216675164725388994e-04
4.142458588987728035e+03 9.332973519211620328e-01 5.755354570853554166e-04
4.146601047576717065e+03 9.316627723773195369e-01 5.717226122504062832e-04
4.150747648624294925e+03 9.310073644348759725e-01 5.891545584250719621e-04
4.154898396272920763e+03 9.311441063880320224e-01 5.891992568713593555e-04
4.159053294669195566e+03 9.321219013070420889e-01 5.846067540947011724e-04
4.163212347963865795e+03 9.341739538077110661e-01 5.748160714701230261e-04
4.167375560311830668e+03 9.370471342660042779e-01 5.480027391237075668e-04
4.171542935872143971e+03 9.408784609728442216e-01 4.151819546408939314e-04
4.175714478808017702e+03 9.446782414459381494e-01 4.131914111475282767e-04
4.179890193286827525e+03 9.485755932183780326e-01 3.996832500684951149e-04
4.184070083480115500e+03 9.526594951203095629e-01 5.294818172483697211e-04
4.188254153563597356e+03 9.565723885848129715e-01 5.756850022303318468e-04
4.192442407717161586e+03 9.599901297315045490e-01 5.354547134545388151e-04
4.196634850124880359e+03 9.628993519472521800e-01 6.010539141137654154e-04
4.200831484975006788e+03 9.654200831942046923e-01 6.030105517020668045e-04
4.205032316459983122e+03 9.675247208836401658e-01 6.562784058863446561e-04
4.209237348776444378e+03 9.689475604632086236e-01 6.690161931415356759e-04
4.213446586125221984e+03 9.692395174123207280e-01 6.548164705451815001e-04
4.217660032711349231e+03 9.687765036998163826e-01 6.577456774903448020e-04
4.221877692744061278e+03 9.677883120321832955e-01 6.896772229311082291e-04
4.226099570436806971e+03 9.667009694442406653e-01 7.113480843045735151e-04
4.230325670007245208e+03 9.653798072858307266e-01 8.302840543077604721e-04
4.234555995677254032e+03 9.642547405695596208e-01 8.809793966154026799e-04
4.238790551672932452e+03 9.635117457823604292e-01 8.413109828009057147e-04
4.243029342224606808e+03 9.635485170171965708e-01 8.014996220573251430e-04
4.247272371566832589e+03 9.641560087101371801e-01 7.926353823826200098e-04
4.251519643938400804e+03 9.654700598562527825e-01 8.320584925487920034e-04
4.255771163582340705e+03 9.673604554702556202e-01 9.412224231187603200e-04
4.260026934745924336e+03 9.696861421509795909e-01 9.346468044226779060e-04
4.264286961680671993e+03 9.723631304591677793e-01 6.587639073790963742e-04
4.268551248642354039e+03 9.747614478758874768e-01 4.079568454304460909e-04
4.272819799890998183e+03 9.764320851175763982e-01 5.311495883064190626e-04
4.277092619690890388e+03 9.776319931104487937e-01 4.637065313331517743e-04
4.281369712310583054e+03 9.789812012924530293e-01 4.051685475487358653e-04
4.285651082022895025e+03 9.802817173723048505e-01 4.002134407325849338e-04
4.289936733104918858e+03 9.814558075010408889e-01 3.893770454210653421e-04
4.294226669838025373e+03 9.826539160338551016e-01 3.927853267578574128e-04
4.298520896507864563e+03 9.838998822628599594e-01 3.952695496992874582e-04
4.302819417404373780e+03 9.852615485244303750e-01 3.830315668136941650e-04
4.307122236821779552e+03 9.868122888367328871e-01 4.168278417058267132e-04
4.311429359058603040e+03 9.883956201841990197e-01 5.219786444589009401e-04
4.315740788417662770e+03 9.905875428842896291e-01 4.965231913166561102e-04
4.320056529206081905e+03 9.933549426748712330e-01 4.702192864792906668e-04
4.324376585735290064e+03 9.968436818455376214e-01 5.652168821608628086e-04
4.328700962321026054e+03 1.000485500301835806e+00 5.631333925113755651e-04
4.333029663283348782e+03 1.004725526770585464e+00 5.573254046572613746e-04
4.337362692946633615e+03 1.009891839284496440e+00 5.526355624514074942e-04
4.341700055639581478e+03 1.015464697372463254e+00 5.214229361271395741e-04
4.346041755695222491e+03 1.021525722344749365e+00 4.833356114180159817e-04
4.350387797450919606e+03 1.027847806066844782e+00 4.749930101180359094e-04
4.354738185248371337e+03 1.034212933747631791e+00 4.726961209739710093e-04
4.359092923433621763e+03 1.040709618012480631e+00 4.765632678505688706e-04
4.363452016357056891e+03 1.047566695099721112e+00 5.200425500960142782e-04
4.367815468373414660e+03 1.054698437929298072e+00 5.305500433214029640e-04
4.372183283841789489e+03 1.062520111153880453e+00 5.159783000855519466e-04
4.376555467125633186e+03 1.070941312721507499e+00 5.218427854491741345e-04
4.380932022592760404e+03 1.079939407813049979e+00 5.269531193865308613e-04
4.385312954615354101e+03 1.089256147114775697e+00 5.197164391163009746e-04
4.389698267569970994e+03 1.098845107705537893e+00 5.150129978217901682e-04
4.394087965837542470e+03 1.108828992046323902e+00 4.835861686066308149e-04
