# starting wavelength: 3516.370
# ending wavelength: 8917.430
# wav flux eflux
3.519682966971712631e+03 7.620652846059231544e-01 1.996643122231020126e-02
3.523202649938685681e+03 7.576777267897731871e-01 1.497784966330730112e-02
3.526725852588625457e+03 7.548610753160214237e-01 1.167476383622604100e-02
3.530252578441215064e+03 7.546092755226847526e-01 9.138092448856740407e-03
3.533782831019657806e+03 7.572999911695565967e-01 7.134540695792126151e-03
3.537316613850678550e+03 7.616426522730298521e-01 5.718033398068223319e-03
3.540853930464530094e+03 7.670269236786922962e-01 4.676910738157241329e-03
3.544394784394995895e+03 7.731238102473898532e-01 3.883324210312698744e-03
3.547939179179392340e+03 7.797786801812729429e-01 3.294214015022649961e-03
3.551487118358572843e+03 7.866954091240938585e-01 2.855687027067071657e-03
3.555038605476932389e+03 7.934282016935488846e-01 2.525761885729196216e-03
3.558593644082410719e+03 7.999353037840415404e-01 2.274441986824176937e-03
3.562152237726494150e+03 8.056480170530750939e-01 2.116135548730568253e-03
3.565714389964221937e+03 8.108421427039425033e-01 1.986053073794200562e-03
3.569280104354187188e+03 8.150881848825827225e-01 1.909559020926488966e-03
3.572849384458542772e+03 8.186741866889570840e-01 1.839109343939089028e-03
3.576422233843002232e+03 8.214555064402250251e-01 1.787580550255796858e-03
3.579998656076846601e+03 8.232722512275759685e-01 1.788644531194618064e-03
3.583578654732924406e+03 8.241175246990315451e-01 1.913304418136320710e-03
3.587162233387658489e+03 8.242439350642174478e-01 2.151698517637021853e-03
3.590749395621047370e+03 8.236049583132853957e-01 2.207884683306937310e-03
3.594340145016669794e+03 8.223493736919466057e-01 2.243305155971507970e-03
3.597934485161687462e+03 8.206812557614433512e-01 2.256390159041548205e-03
3.601532419646850485e+03 8.188338091253987150e-01 1.982957408226002083e-03
3.605133952066498296e+03 8.170212464050612411e-01 1.565906549831268561e-03
3.608739086018566013e+03 8.158304210337192774e-01 1.327527098458977737e-03
3.612347825104585809e+03 8.155653402896099191e-01 1.215944281781645596e-03
3.615960172929691907e+03 8.161107677378314218e-01 1.246650040701962388e-03
3.619576133102622407e+03 8.174192745689560224e-01 1.248388288350485214e-03
3.623195709235726554e+03 8.196922787289143697e-01 1.226054311226217617e-03
3.626818904944963379e+03 8.226317723411059601e-01 1.223797439440681535e-03
3.630445723849909427e+03 8.261668989557809928e-01 1.191100095715670907e-03
3.634076169573760581e+03 8.302071577506928701e-01 1.119750129187777315e-03
3.637710245743335690e+03 8.356587413697382782e-01 1.227591903142464559e-03
3.641347955989080219e+03 8.419111220726002154e-01 1.331118541570522644e-03
3.644989303945070333e+03 8.486911236461065489e-01 1.383524189200461196e-03
3.648634293249016537e+03 8.558788094665362722e-01 1.355470799522718109e-03
3.652282927542266862e+03 8.633205429286433530e-01 1.222869705359710219e-03
3.655935210469810499e+03 8.709935574835712124e-01 9.175598043785205800e-04
3.659591145680281443e+03 8.784485965081987313e-01 7.076401176985414997e-04
3.663250736825963031e+03 8.852751814064599989e-01 7.047237881257814151e-04
3.666913987562790226e+03 8.917368654355273261e-01 7.555806207100503611e-04
3.670580901550354156e+03 8.981973329168490006e-01 7.784321489214229535e-04
3.674251482451905758e+03 9.041589702579942989e-01 8.270638552937037598e-04
3.677925733934358959e+03 9.096436964119231083e-01 8.992703449571450708e-04
3.681603659668294313e+03 9.148971875107693164e-01 8.864005663287957866e-04
3.685285263327964003e+03 9.196868240371839365e-01 8.303807517519349278e-04
3.688970548591293209e+03 9.241087969806510705e-01 7.996305149406948611e-04
3.692659519139885560e+03 9.281571432862242288e-01 8.570784300185764612e-04
3.696352178659026777e+03 9.319081406300282477e-01 8.589026718766784628e-04
3.700048530837686940e+03 9.350599442395384209e-01 8.495889351096204585e-04
3.703748579368525952e+03 9.375458136265848452e-01 8.518041267692247343e-04
3.707452327947895355e+03 9.393993413112092794e-01 8.512143228231564300e-04
3.711159780275844696e+03 9.409795126931957965e-01 8.770426605883755279e-04
3.714870940056121526e+03 9.423577677093579741e-01 9.006546943868534369e-04
3.718585810996179134e+03 9.435113448715704010e-01 8.975369236869282620e-04
3.722304396807176545e+03 9.444683963353143197e-01 8.957936221941273629e-04
3.726026701203984885e+03 9.453332033397786605e-01 9.086324930448859893e-04
3.729752727905190113e+03 9.458536421340878464e-01 9.047516627450807912e-04
3.733482480633096657e+03 9.459484448859151184e-01 9.268249700408795737e-04
3.737215963113731050e+03 9.461403202369587095e-01 9.343274265463263504e-04
3.740953179076846027e+03 9.458638194064913352e-01 9.035807942492207192e-04
3.744694132255923705e+03 9.452763231137548683e-01 9.132457023937844403e-04
3.748438826388181042e+03 9.449409298779747335e-01 9.166210920560442701e-04
3.752187265214570289e+03 9.445483951117032984e-01 9.430798904297766662e-04
3.755939452479786269e+03 9.438978902230561463e-01 9.388896482298960192e-04
3.759695391932267285e+03 9.432620494271033440e-01 9.204901996779918513e-04
3.763455087324201031e+03 9.428357196584093991e-01 8.950054335488767448e-04
3.767218542411526414e+03 9.423885887080540869e-01 9.156041428292795289e-04
3.770985760953939007e+03 9.418008823074240921e-01 1.129465827318503921e-03
3.774756746714894234e+03 9.416419408020808568e-01 1.274133128131995025e-03
3.778531503461610555e+03 9.424085988483337228e-01 1.313912130165936602e-03
3.782310034965073100e+03 9.430350294152151092e-01 1.314755955695011327e-03
3.786092345000039586e+03 9.442980339653358479e-01 1.167450398988303766e-03
3.789878437345040766e+03 9.464264860615443364e-01 9.768093524633496630e-04
3.793668315782387253e+03 9.496827910667743344e-01 9.702770538779725796e-04
3.797461984098170888e+03 9.540359685603524431e-01 1.165811431010566101e-03
3.801259446082270188e+03 9.594210792304406210e-01 1.234933651960379254e-03
3.805060705528353537e+03 9.653404836484499318e-01 1.166108203438006577e-03
3.808865766233883278e+03 9.715807285391744319e-01 1.155780101085940098e-03
3.812674632000118436e+03 9.785688191886151577e-01 1.154824643553009102e-03
3.816487306632119726e+03 9.863153856619646387e-01 1.142373725185176362e-03
3.820303793938753188e+03 9.945667430336977421e-01 1.141142397279892298e-03
3.824124097732693372e+03 1.003331716428036424e+00 1.140598338067469681e-03
3.827948221830427428e+03 1.012331785722513811e+00 1.138318607044737970e-03
3.831776170052258749e+03 1.021680111847129258e+00 1.135809494382825904e-03
3.835607946222312421e+03 1.030895600146003011e+00 1.178772612733313113e-03
3.839443554168536139e+03 1.040022704892476169e+00 1.163677136069184897e-03
3.843282997722705659e+03 1.049210448206818747e+00 1.315796745724309713e-03
3.847126280720429804e+03 1.058425626513274098e+00 1.473512284538805667e-03
3.850973407001151372e+03 1.067269288463526866e+00 1.592776592158111132e-03
3.854824380408153957e+03 1.074955369495226298e+00 1.534085829716338089e-03
3.858679204788563311e+03 1.082151537845030376e+00 1.397576234218415262e-03
3.862537883993353262e+03 1.088321998456481143e+00 1.304560536262276086e-03
3.866400421877347981e+03 1.093398157539695159e+00 1.250580779705769401e-03
3.870266822299226533e+03 1.097148223056114480e+00 1.503368150800708661e-03
3.874137089121526969e+03 1.099796392165995229e+00 1.783901891570747848e-03
3.878011226210649966e+03 1.101437667119795849e+00 1.852870909573261929e-03
3.881889237436861549e+03 1.103056006132066891e+00 1.710617149394561822e-03
3.885771126674299921e+03 1.104793736654197112e+00 1.385861908658600570e-03
3.889656897800975457e+03 1.106815182882624704e+00 1.081897233063873389e-03
3.893546554698777527e+03 1.109591659231797811e+00 8.920698608469569777e-04
3.897440101253477678e+03 1.113576105546783435e+00 9.692876807449242894e-04
3.901337541354732366e+03 1.118331698540186103e+00 1.058339467043262943e-03
3.905238878896088409e+03 1.123871730349194742e+00 1.115416292245989928e-03
3.909144117774985716e+03 1.129670689790320592e+00 1.168836523681063494e-03
3.913053261892762293e+03 1.135881782269727136e+00 1.092951561749107292e-03
3.916966315154656058e+03 1.142471453945052895e+00 9.327633993115283691e-04
3.920883281469812118e+03 1.148916983499833400e+00 7.810203922499706769e-04
3.924804164751283224e+03 1.155145047168883776e+00 6.704238473654727803e-04
3.928728968916035683e+03 1.160430969755877229e+00 6.908219141016163321e-04
3.932657697884953450e+03 1.165018523711204956e+00 6.932708621694709701e-04
3.936590355582839493e+03 1.169092918699514705e+00 6.542091060151311328e-04
3.940526945938423523e+03 1.172727511587029481e+00 6.575803409407025932e-04
3.944467472884363360e+03 1.175627599273107560e+00 6.710650447374161233e-04
3.948411940357249023e+03 1.177897991046701787e+00 6.655064826460081826e-04
3.952360352297607733e+03 1.179706566307058058e+00 9.824171144420272214e-04
3.956312712649906643e+03 1.181424703137821108e+00 8.162189413035819121e-04
3.960269025362557841e+03 1.181513556467457704e+00 7.066943629538558879e-04
3.964229294387921527e+03 1.180134968058127010e+00 9.026039327283347583e-04
3.968193523682310570e+03 1.178300083440572799e+00 9.901288123837482212e-04
3.972161717205994591e+03 1.175979395422559692e+00 9.817452551677864365e-04
3.976133878923201792e+03 1.173675798005324067e+00 9.653393763165629346e-04
3.980110012802126221e+03 1.171047668805676789e+00 9.957115057028743596e-04
3.984090122814929600e+03 1.168856984659146336e+00 9.536992879823235529e-04
3.988074212937745870e+03 1.167184767129808565e+00 9.186116199699647473e-04
3.992062287150684824e+03 1.166079960977125074e+00 9.087378389445588530e-04
3.996054349437837118e+03 1.166057693259701100e+00 9.193599363793448489e-04
4.000050403787276082e+03 1.166935089116375002e+00 1.009507153538094764e-03
4.004050454191064546e+03 1.169455043924265469e+00 9.744925323964671697e-04
4.008054504645257111e+03 1.173603786199247878e+00 9.881716255021159596e-04
4.012062559149903791e+03 1.179584558927768256e+00 1.063490642267446310e-03
4.016074621709055009e+03 1.185701842234539116e+00 1.062025594083738445e-03
4.020090696330765240e+03 1.192473214075002286e+00 1.061711087045874536e-03
4.024110787027097558e+03 1.200157016057719517e+00 1.149293190048879861e-03
4.028134897814125907e+03 1.208089317221825665e+00 1.390792274149853496e-03
4.032163032711941469e+03 1.216074420144709567e+00 1.557866475542214095e-03
4.036195195744654484e+03 1.223461300586474954e+00 1.150122482274768682e-03
4.040231390940400615e+03 1.228740720984647705e+00 1.059830319584193631e-03
4.044271622331342314e+03 1.232152320095590170e+00 1.308636603852850059e-03
4.048315893953675186e+03 1.234126841698689914e+00 1.379114458700763865e-03
4.052364209847629809e+03 1.235337783198997341e+00 1.413220187427685973e-03
4.056416574057479011e+03 1.235062575349889613e+00 1.391072773777171818e-03
4.060472990631537868e+03 1.234316378241852918e+00 1.331275436397948196e-03
4.064533463622170530e+03 1.232426433250077835e+00 1.192244848755057412e-03
4.068597997085794304e+03 1.230997901614615975e+00 1.280077325089579512e-03
4.072666595082881486e+03 1.229299069400136668e+00 1.422471392528837798e-03
4.076739261677965715e+03 1.226549338203428263e+00 1.411775282743599463e-03
4.080816000939644709e+03 1.223229599447860583e+00 1.405970606777004819e-03
4.084896816940585722e+03 1.220370937455637073e+00 1.353410633900759561e-03
4.088981713757527814e+03 1.216699080786272313e+00 1.190461995741191404e-03
4.093070695471286854e+03 1.212430961319113099e+00 1.162281564022457463e-03
4.097163766166759160e+03 1.206894429287471260e+00 1.524075884116521482e-03
4.101260929932927866e+03 1.201703218549661889e+00 1.453067332949729579e-03
4.105362190862862008e+03 1.198180904615550935e+00 1.224369410632285661e-03
4.109467553053726078e+03 1.196741784018751309e+00 1.091957484299883136e-03
4.113577020606780934e+03 1.197610780654289941e+00 1.225271165529401166e-03
4.117690597627389252e+03 1.200104860109368454e+00 1.271306840984285291e-03
4.121808288225018259e+03 1.203766108381619349e+00 1.269327468971580318e-03
4.125930096513244280e+03 1.208950782121299028e+00 1.282687894473498545e-03
4.130056026609759101e+03 1.215572951552773118e+00 1.299130029652774279e-03
4.134186082636369974e+03 1.222647615660848341e+00 1.274133346449360079e-03
4.138320268719007800e+03 1.229616091904023101e+00 1.095787528316612223e-03
4.142458588987728035e+03 1.235374205186101193e+00 1.102185192966325744e-03
4.146601047576717065e+03 1.240644986599789501e+00 1.197003693716747977e-03
4.150747648624294925e+03 1.245038333232250549e+00 1.350489994826372395e-03
4.154898396272920763e+03 1.248585827562459727e+00 1.066196497487084671e-03
4.159053294669195566e+03 1.251985812292258915e+00 1.088118484252171029e-03
4.163212347963865795e+03 1.255151067841894008e+00 1.148463714372151669e-03
4.167375560311830668e+03 1.257154522719887035e+00 1.109481354459072389e-03
4.171542935872143971e+03 1.257909099511206552e+00 1.063300946190657388e-03
4.175714478808017702e+03 1.257154656817563554e+00 1.108982427086510581e-03
4.179890193286827525e+03 1.255828228169361571e+00 1.108464594891931483e-03
4.184070083480115500e+03 1.253667501308451948e+00 1.111051647976944506e-03
4.188254153563597356e+03 1.250891763369217813e+00 1.101014512754278042e-03
4.192442407717161586e+03 1.247193173493272411e+00 1.072771455550248056e-03
4.196634850124880359e+03 1.242363857230561974e+00 1.315715950799425807e-03
4.200831484975006788e+03 1.237228424549420058e+00 1.366936796681954367e-03
4.205032316459983122e+03 1.233271487203042138e+00 1.170454332181050270e-03
4.209237348776444378e+03 1.230555395711783184e+00 1.122407047227956317e-03
4.213446586125221984e+03 1.229374215250589319e+00 1.124825083283148043e-03
4.217660032711349231e+03 1.229683458819973874e+00 1.125754404780386153e-03
4.221877692744061278e+03 1.230896533849093588e+00 1.120856623162539301e-03
4.226099570436806971e+03 1.232916413663030397e+00 1.110159016663396243e-03
4.230325670007245208e+03 1.236437511277794332e+00 1.143399837397734292e-03
4.234555995677254032e+03 1.241293374555572981e+00 1.298528370557624698e-03
4.238790551672932452e+03 1.246878057287515995e+00 1.283380166892298573e-03
4.243029342224606808e+03 1.252067118817652869e+00 1.122890682396962591e-03
4.247272371566832589e+03 1.256107033055203326e+00 1.004862087888955041e-03
4.251519643938400804e+03 1.258750188446345675e+00 1.029122932433503826e-03
4.255771163582340705e+03 1.260164164458146940e+00 9.941524574589568827e-04
4.260026934745924336e+03 1.261027083927692249e+00 1.013869542007997003e-03
4.264286961680671993e+03 1.260548615338570322e+00 1.007418520186506225e-03
4.268551248642354039e+03 1.258980861993890699e+00 1.092977744850636649e-03
4.272819799890998183e+03 1.256370150411973086e+00 1.165169741273337604e-03
4.277092619690890388e+03 1.252903974728739600e+00 1.010506497572365462e-03
4.281369712310583054e+03 1.249197288509996007e+00 7.689580702278987247e-04
4.285651082022895025e+03 1.246212711807846318e+00 8.106746018721273841e-04
4.289936733104918858e+03 1.243186311393180032e+00 8.072503299622148026e-04
4.294226669838025373e+03 1.240727339244324323e+00 7.666814148442720666e-04
4.298520896507864563e+03 1.238573742978345438e+00 7.830125994866339763e-04
4.302819417404373780e+03 1.236518804471269828e+00 8.891364528423193131e-04
4.307122236821779552e+03 1.235324501136358499e+00 7.565356226823110068e-04
4.311429359058603040e+03 1.235258923352054117e+00 8.582223752478651806e-04
4.315740788417662770e+03 1.235797329951699774e+00 9.362674467376950809e-04
4.320056529206081905e+03 1.236714745213171929e+00 8.807436842965199681e-04
4.324376585735290064e+03 1.237717580567678777e+00 8.293697668448271609e-04
4.328700962321026054e+03 1.238468881873860949e+00 8.245979022709187247e-04
4.333029663283348782e+03 1.239134290078292233e+00 8.212965521990178534e-04
4.337362692946633615e+03 1.239815335613870362e+00 8.056883129939807105e-04
4.341700055639581478e+03 1.240487142887535255e+00 7.159924295782424831e-04
4.346041755695222491e+03 1.240632681318932118e+00 8.277039440949957028e-04
4.350387797450919606e+03 1.240416453971432187e+00 8.374249441019850906e-04
4.354738185248371337e+03 1.240642397469043479e+00 7.142555478388216278e-04
4.359092923433621763e+03 1.241190035256242163e+00 6.276595517557584077e-04
4.363452016357056891e+03 1.242181382655369148e+00 6.405738195563008292e-04
4.367815468373414660e+03 1.243840910483189788e+00 6.354650946603968053e-04
4.372183283841789489e+03 1.245597646843332074e+00 5.788786169393831619e-04
4.376555467125633186e+03 1.247502938552808027e+00 5.113389840280295950e-04
4.380932022592760404e+03 1.249190948686162983e+00 5.288578686355313238e-04
4.385312954615354101e+03 1.251021113494259041e+00 5.546736527596236909e-04
4.389698267569970994e+03 1.253100996138995615e+00 6.284680007187708282e-04
4.394087965837542470e+03 1.254773044026672668e+00 6.041595567089043991e-04
4.398482053803381859e+03 1.256060659813646341e+00 5.861055027067949875e-04
4.402880535857186260e+03 1.256716384683141063e+00 5.813474907551995693e-04
4.407283416393044718e+03 1.257053822802848275e+00 5.774968211350362023e-04
4.411690699809440048e+03 1.256985357215012256e+00 6.772800752491512505e-04
4.416102390509250654e+03 1.256976417152351644e+00 8.864372732257531223e-04
4.420518492899761441e+03 1.257473516971971961e+00 1.066091009477978429e-03
4.424939011392662906e+03 1.258622566748121452e+00 1.129114227288388487e-03
4.429363950404056595e+03 1.260838177198471799e+00 9.438283691553455779e-04
4.433793314354462382e+03 1.264552700892132675e+00 6.438855562387959825e-04
4.438227107668818462e+03 1.270099609284251141e+00 7.685801947336222840e-04
4.442665334776488635e+03 1.277053312032051968e+00 1.079021514078269857e-03
4.447108000111265937e+03 1.284895689738240421e+00 1.192824299503160868e-03
4.451555108111379013e+03 1.292959325208006716e+00 1.017441390680820165e-03
4.456006663219492111e+03 1.300334206122121472e+00 7.525348858700069230e-04
4.460462669882713271e+03 1.306631662572906416e+00 6.087657195342460314e-04
4.464923132552597053e+03 1.311532877432521449e+00 5.563920672761271148e-04
4.469388055685150903e+03 1.314814855053788589e+00 4.816882762418620402e-04
4.473857443740837880e+03 1.316169077770923623e+00 5.137660649454032493e-04
4.478331301184580298e+03 1.315766610038271223e+00 4.327686488236633490e-04
4.482809632485766087e+03 1.313681112399476270e+00 4.009666349668258595e-04
4.487292442118253348e+03 1.310381618753050814e+00 3.730773116168415761e-04
4.491779734560373072e+03 1.306198271286045154e+00 6.512335260724146655e-04
4.496271514294934605e+03 1.301530898975628681e+00 8.710380337421960804e-04
4.500767785809231100e+03 1.297040192433185135e+00 9.829472832646199507e-04
4.505268553595042249e+03 1.293464067200660983e+00 9.050857950537636275e-04
4.509773822148638828e+03 1.290689172385879102e+00 8.040727855182750686e-04
4.514283595970789065e+03 1.288905795805085575e+00 7.525314875037419872e-04
4.518797879566761367e+03 1.288249119671458942e+00 7.521275298813278384e-04
4.523316677446328868e+03 1.288954225954873634e+00 8.519085324022866073e-04
4.527839994123776705e+03 1.290762710071697406e+00 8.611805712204973536e-04
4.532367834117902021e+03 1.293010607713509730e+00 7.366929900517804131e-04
4.536900201952022144e+03 1.295255086367126163e+00 5.843591336396710594e-04
4.541437102153975502e+03 1.297356420891319972e+00 5.633008905829062262e-04
4.545978539256130716e+03 1.299107155804801295e+00 5.874662228604978810e-04
4.550524517795388419e+03 1.300035444211443014e+00 5.959652568104292086e-04
4.555075042313184895e+03 1.299633703392474748e+00 6.034059092355715994e-04
4.559630117355500261e+03 1.298353815466804395e+00 6.765585634046017904e-04
4.564189747472856652e+03 1.296794842628377298e+00 7.203772749210832042e-04
4.568753937220330954e+03 1.294663171172242055e+00 8.169768753750043279e-04
4.573322691157552981e+03 1.292632700965655523e+00 8.393412953094538239e-04
4.577896013848711846e+03 1.290394917395659702e+00 7.742341634785655921e-04
4.582473909862562323e+03 1.288340463849146245e+00 6.481552340707890953e-04
