# starting wavelength: 3715.100
# ending wavelength: 7523.910
# wav flux eflux
3.718585810996179134e+03 3.602084111799800370e-01 1.583108740154474557e-03
3.722304396807176545e+03 3.563057897797055618e-01 1.203374914990889590e-03
3.726026701203984885e+03 3.526934612399446056e-01 9.467930824676593559e-04
3.729752727905190113e+03 3.492187965427634988e-01 7.681666114404622032e-04
3.733482480633096657e+03 3.457084931054931753e-01 5.932068084559231772e-04
3.737215963113731050e+03 3.422710939602003344e-01 4.774250584268661187e-04
3.740953179076846027e+03 3.389054397634087556e-01 4.022734554758394744e-04
3.744694132255923705e+03 3.355899668873781327e-01 3.223541571197758053e-04
3.748438826388181042e+03 3.324471781487834954e-01 2.682628906591334825e-04
3.752187265214570289e+03 3.295201478417168484e-01 2.278003381496429515e-04
3.755939452479786269e+03 3.268804371580968926e-01 2.023779310045734873e-04
3.759695391932267285e+03 3.245689025639066916e-01 1.854896130003978098e-04
3.763455087324201031e+03 3.225714016466867951e-01 1.679823267850698483e-04
3.767218542411526414e+03 3.209130024180520402e-01 1.573902670729735820e-04
3.770985760953939007e+03 3.196758804038806745e-01 1.476706168095334899e-04
3.774756746714894234e+03 3.188609493936997441e-01 1.427352247980583500e-04
3.778531503461610555e+03 3.185028451500952484e-01 1.443697838049448981e-04
3.782310034965073100e+03 3.186275610820595849e-01 1.594998758468258772e-04
3.786092345000039586e+03 3.193660341463405161e-01 1.553187921360659352e-04
3.789878437345040766e+03 3.205728704759261416e-01 1.725262112852900124e-04
3.793668315782387253e+03 3.224091011807909690e-01 1.836787286727951430e-04
3.797461984098170888e+03 3.248837610327272585e-01 2.098059314496695388e-04
3.801259446082270188e+03 3.280412917996775035e-01 2.166339926772411183e-04
3.805060705528353537e+03 3.319177949055131527e-01 2.286238638320588993e-04
3.808865766233883278e+03 3.365149852109665107e-01 2.373536585402901322e-04
3.812674632000118436e+03 3.418646139115110727e-01 2.265472181206172554e-04
3.816487306632119726e+03 3.479880426235239521e-01 2.216890403422882238e-04
3.820303793938753188e+03 3.548361219596725125e-01 2.261860723272009969e-04
3.824124097732693372e+03 3.622332773415231078e-01 2.151022130846174166e-04
3.827948221830427428e+03 3.703390099679271241e-01 2.279567224294600013e-04
3.831776170052258749e+03 3.790738434886080643e-01 2.684146076793857290e-04
3.835607946222312421e+03 3.884378505874319099e-01 3.470432883484442471e-04
3.839443554168536139e+03 3.984977333198473359e-01 4.223722877894607337e-04
3.843282997722705659e+03 4.088019007944007077e-01 4.696811652045783749e-04
3.847126280720429804e+03 4.193034573869744985e-01 4.621734924801891380e-04
3.850973407001151372e+03 4.299919922169528896e-01 4.302453132840985853e-04
3.854824380408153957e+03 4.406830690334105349e-01 3.660458402189187017e-04
3.858679204788563311e+03 4.513087371992623442e-01 3.020020885449858504e-04
3.862537883993353262e+03 4.618128050496861925e-01 2.550814183839788759e-04
3.866400421877347981e+03 4.720967847253085270e-01 2.118395371818903217e-04
3.870266822299226533e+03 4.820532433660191240e-01 2.192404127063361417e-04
3.874137089121526969e+03 4.916953363134596855e-01 2.274617758200349609e-04
3.878011226210649966e+03 5.010177270182897269e-01 2.338311833525439948e-04
3.881889237436861549e+03 5.099792370883873271e-01 2.321078763875531641e-04
3.885771126674299921e+03 5.184772559566924732e-01 2.400440004165380547e-04
3.889656897800975457e+03 5.265306955982334003e-01 2.495471360769568599e-04
3.893546554698777527e+03 5.342476139112223299e-01 2.519463958733321246e-04
3.897440101253477678e+03 5.416917677257458985e-01 2.619082161977934328e-04
3.901337541354732366e+03 5.489428275998519124e-01 2.518201007357931723e-04
3.905238878896088409e+03 5.558610215621423434e-01 2.511180357024881023e-04
3.909144117774985716e+03 5.625571680521248563e-01 2.456543971641556652e-04
3.913053261892762293e+03 5.690478717270195386e-01 2.429920555305096412e-04
3.916966315154656058e+03 5.755006648219670451e-01 2.479163537799606112e-04
3.920883281469812118e+03 5.818248202077540565e-01 2.645108830303467330e-04
3.924804164751283224e+03 5.878378316939764092e-01 2.659688057596264459e-04
3.928728968916035683e+03 5.937093595838458526e-01 2.868911684266122310e-04
3.932657697884953450e+03 5.993538777851064037e-01 2.954293355795947588e-04
3.936590355582839493e+03 6.046682904830810168e-01 2.929155237094260692e-04
3.940526945938423523e+03 6.096946191726889674e-01 3.054198267021906695e-04
3.944467472884363360e+03 6.143619610869343051e-01 3.212588271937063199e-04
3.948411940357249023e+03 6.187916036135195919e-01 3.305195313512089474e-04
3.952360352297607733e+03 6.231940514131762976e-01 3.228145900765378600e-04
3.956312712649906643e+03 6.271794372322416766e-01 3.199477788695261711e-04
3.960269025362557841e+03 6.307009783258907820e-01 3.299967756963037287e-04
3.964229294387921527e+03 6.339653079055513896e-01 3.315452170961140192e-04
3.968193523682310570e+03 6.367804939261455521e-01 3.255644074393865663e-04
3.972161717205994591e+03 6.392300800771187896e-01 3.484182837718923474e-04
3.976133878923201792e+03 6.412093477945672859e-01 3.809826963456828630e-04
3.980110012802126221e+03 6.425852651400567606e-01 3.987692900548682430e-04
3.984090122814929600e+03 6.437379912271948834e-01 4.483614115980222520e-04
3.988074212937745870e+03 6.445653984105861323e-01 3.415404515997731336e-04
3.992062287150684824e+03 6.444337609546673118e-01 3.205816745670232379e-04
3.996054349437837118e+03 6.436552797680551441e-01 3.337692452984378482e-04
4.000050403787276082e+03 6.423754915808478350e-01 3.291339381724258761e-04
4.004050454191064546e+03 6.404440252897251051e-01 3.352139670620593419e-04
4.008054504645257111e+03 6.378960970811926590e-01 3.362489366019097274e-04
4.012062559149903791e+03 6.347676925304042150e-01 3.232678593565278531e-04
4.016074621709055009e+03 6.313430271162970842e-01 2.985517164833625839e-04
4.020090696330765240e+03 6.277014450527791389e-01 2.908287730859509699e-04
4.024110787027097558e+03 6.238817615354648183e-01 2.820569706702323273e-04
4.028134897814125907e+03 6.200084488273642780e-01 2.981283782713280411e-04
4.032163032711941469e+03 6.163717157514699840e-01 3.244653895717557863e-04
4.036195195744654484e+03 6.128369663001258516e-01 3.683347850506965429e-04
4.040231390940400615e+03 6.097126304109188322e-01 3.287742528360754744e-04
4.044271622331342314e+03 6.071587927414475727e-01 3.267053106000279532e-04
4.048315893953675186e+03 6.051673891308890774e-01 3.394952948149648005e-04
4.052364209847629809e+03 6.035762666040298541e-01 3.561785895519842347e-04
4.056416574057479011e+03 6.022296672220047720e-01 3.635410515661638767e-04
4.060472990631537868e+03 6.015629018537168582e-01 4.378213224407861699e-04
4.064533463622170530e+03 6.014700888395114742e-01 4.948509823453329202e-04
4.068597997085794304e+03 6.014390999164430651e-01 4.248393486457225244e-04
4.072666595082881486e+03 6.014336169274824284e-01 2.894999926846471847e-04
4.076739261677965715e+03 6.012250956249829414e-01 3.652012131612758505e-04
4.080816000939644709e+03 6.009282581390147371e-01 4.287007960215691478e-04
4.084896816940585722e+03 6.007940944459184696e-01 3.931417990019351531e-04
4.088981713757527814e+03 6.009305709678863794e-01 3.822980028925738669e-04
4.093070695471286854e+03 6.011518526356980363e-01 3.669705606532610589e-04
4.097163766166759160e+03 6.016238861618266043e-01 3.344594563214513868e-04
4.101260929932927866e+03 6.023545662271884149e-01 3.100675007992124543e-04
4.105362190862862008e+03 6.036292433375858302e-01 3.169922927896498283e-04
4.109467553053726078e+03 6.054586393507006559e-01 3.377373089158480974e-04
4.113577020606780934e+03 6.075809732638060012e-01 3.515373586656492287e-04
4.117690597627389252e+03 6.099705870426479493e-01 3.419010460607117548e-04
4.121808288225018259e+03 6.123800883785953664e-01 3.593779485069745401e-04
4.125930096513244280e+03 6.149310286752273091e-01 3.405427965627554738e-04
4.130056026609759101e+03 6.173688614363771476e-01 3.235165684955282513e-04
4.134186082636369974e+03 6.195981199977310672e-01 3.461999485435700752e-04
4.138320268719007800e+03 6.218273916367424992e-01 3.400079427635614173e-04
4.142458588987728035e+03 6.241910245066033536e-01 3.715632032760152084e-04
4.146601047576717065e+03 6.268173887420201984e-01 3.918005117122076914e-04
4.150747648624294925e+03 6.296366266576743920e-01 3.909934298659361023e-04
4.154898396272920763e+03 6.326163643077695742e-01 3.599932240608903593e-04
4.159053294669195566e+03 6.359717696130076092e-01 2.941833140242212301e-04
4.163212347963865795e+03 6.397495457072338576e-01 2.676010428359129460e-04
4.167375560311830668e+03 6.441556254633370449e-01 2.882777651278961854e-04
4.171542935872143971e+03 6.489975454921773634e-01 2.356727065265893793e-04
4.175714478808017702e+03 6.540334543470286421e-01 1.547599036831732956e-04
4.179890193286827525e+03 6.590453889454865877e-01 2.612740282248040917e-04
4.184070083480115500e+03 6.642860623457030878e-01 2.609775642978296199e-04
4.188254153563597356e+03 6.699710931515612256e-01 3.201670992316562030e-04
4.192442407717161586e+03 6.755334596612645459e-01 3.329337202909466169e-04
4.196634850124880359e+03 6.809976020297401345e-01 3.328799705709066395e-04
4.200831484975006788e+03 6.864234375559498114e-01 3.348404561645150013e-04
4.205032316459983122e+03 6.917017377727743277e-01 3.243821879180024061e-04
4.209237348776444378e+03 6.967215917255383806e-01 3.172469556087751394e-04
4.213446586125221984e+03 7.014110958286092767e-01 3.504285518183788192e-04
4.217660032711349231e+03 7.056799165701931331e-01 3.455982797202035092e-04
4.221877692744061278e+03 7.092171602715322543e-01 3.396848722218773339e-04
4.226099570436806971e+03 7.121304261290057891e-01 3.437163224874686821e-04
4.230325670007245208e+03 7.145230637092614412e-01 3.638449583364567895e-04
4.234555995677254032e+03 7.163663405541619289e-01 4.088811330178723693e-04
4.238790551672932452e+03 7.181259673060221838e-01 4.124641186044449774e-04
4.243029342224606808e+03 7.197904674116618606e-01 4.223478875695986013e-04
4.247272371566832589e+03 7.217561331646921152e-01 4.305172960029320702e-04
4.251519643938400804e+03 7.241319940860291293e-01 4.320420978588672715e-04
4.255771163582340705e+03 7.268798147209953875e-01 4.160784067053016080e-04
4.260026934745924336e+03 7.301797334366847414e-01 2.629035989187780025e-04
4.264286961680671993e+03 7.344454527331176763e-01 2.720559623460519646e-04
4.268551248642354039e+03 7.396914404628660566e-01 2.681169100857319740e-04
4.272819799890998183e+03 7.454108445280163142e-01 2.635064371726804832e-04
4.277092619690890388e+03 7.514699733539002002e-01 2.414037454718392125e-04
4.281369712310583054e+03 7.577703268524603741e-01 2.424572233197938771e-04
4.285651082022895025e+03 7.639405134581054302e-01 2.519956465060321153e-04
4.289936733104918858e+03 7.699616542179931189e-01 3.166281314239901309e-04
4.294226669838025373e+03 7.755932694694745999e-01 2.663246948687848195e-04
4.298520896507864563e+03 7.806343807900689713e-01 1.995621502028019085e-04
4.302819417404373780e+03 7.849890417010987331e-01 1.793628991618021384e-04
4.307122236821779552e+03 7.884581901943091831e-01 1.947361408279217664e-04
4.311429359058603040e+03 7.912135793189616351e-01 2.072739292053822136e-04
4.315740788417662770e+03 7.932267555381105062e-01 1.963141729326584593e-04
4.320056529206081905e+03 7.948316218527521348e-01 1.983206731343205396e-04
4.324376585735290064e+03 7.959251583136023322e-01 2.024361394750648910e-04
4.328700962321026054e+03 7.968952711993809723e-01 2.198722849926834492e-04
4.333029663283348782e+03 7.978806036769154897e-01 2.310399340292503413e-04
4.337362692946633615e+03 7.989094151060625038e-01 2.588918000867556084e-04
4.341700055639581478e+03 8.004935009521020328e-01 2.630017805470037792e-04
4.346041755695222491e+03 8.029507474514605558e-01 2.534843781096507952e-04
4.350387797450919606e+03 8.063168916151746135e-01 2.408159961820469184e-04
4.354738185248371337e+03 8.107272605957455136e-01 2.322490723180293236e-04
4.359092923433621763e+03 8.161234543818216558e-01 2.150364581041420422e-04
4.363452016357056891e+03 8.227053559104872127e-01 2.146229768621095739e-04
4.367815468373414660e+03 8.304407314353601244e-01 2.518309713394883140e-04
4.372183283841789489e+03 8.392711295600833177e-01 2.344285629990989052e-04
4.376555467125633186e+03 8.488934076461935874e-01 2.800108180869139373e-04
4.380932022592760404e+03 8.592684351716013413e-01 4.229139879155786831e-04
4.385312954615354101e+03 8.700660587673453294e-01 4.548739707732394168e-04
4.389698267569970994e+03 8.807837449570690147e-01 4.557234996605469875e-04
4.394087965837542470e+03 8.913595517716430550e-01 3.951545448066432040e-04
4.398482053803381859e+03 9.016530290600550668e-01 4.295440559492923107e-04
4.402880535857186260e+03 9.118617306805528733e-01 5.478210103859096737e-04
4.407283416393044718e+03 9.221174183026107363e-01 6.207061888862790708e-04
4.411690699809440048e+03 9.327004289002481796e-01 6.607529660923352728e-04
4.416102390509250654e+03 9.438213460543332101e-01 6.449497371671497181e-04
4.420518492899761441e+03 9.555669911310247233e-01 5.068341232963095291e-04
4.424939011392662906e+03 9.684552114374979093e-01 3.733878917014263831e-04
4.429363950404056595e+03 9.825924076882799341e-01 3.915880086070631472e-04
4.433793314354462382e+03 9.978606881763041336e-01 4.008435677062457936e-04
4.438227107668818462e+03 1.014346041800883391e+00 3.422304096788704258e-04
4.442665334776488635e+03 1.031660185845742150e+00 3.162776650732931037e-04
4.447108000111265937e+03 1.049792446557307191e+00 3.036614221304040286e-04
4.451555108111379013e+03 1.068633363516127588e+00 3.004694321422130042e-04
4.456006663219492111e+03 1.087734031591501616e+00 3.792516918061888237e-04
4.460462669882713271e+03 1.106959028241092380e+00 5.803415859117031124e-04
4.464923132552597053e+03 1.125974161343677116e+00 6.562525804755071435e-04
4.469388055685150903e+03 1.144389717991689537e+00 6.241358047067976705e-04
4.473857443740837880e+03 1.161924069737410914e+00 5.269164691116778832e-04
4.478331301184580298e+03 1.178341729823226602e+00 5.257778494978992750e-04
4.482809632485766087e+03 1.193557071218451338e+00 6.485286210859233548e-04
4.487292442118253348e+03 1.207790996542220663e+00 6.908797907115997493e-04
4.491779734560373072e+03 1.221147942749975845e+00 6.739023451445170110e-04
4.496271514294934605e+03 1.233559063340945228e+00 6.122603489223528124e-04
4.500767785809231100e+03 1.245266182477457129e+00 5.016500271101139276e-04
4.505268553595042249e+03 1.256515582129748676e+00 4.659218127349829919e-04
4.509773822148638828e+03 1.267432843030788847e+00 5.340103947611436058e-04
4.514283595970789065e+03 1.277823345775957131e+00 4.866045522513314349e-04
4.518797879566761367e+03 1.287557581665372153e+00 4.083631011865466293e-04
4.523316677446328868e+03 1.296599975635358115e+00 3.446715627907629472e-04
4.527839994123776705e+03 1.304748656678919261e+00 4.164627599481608082e-04
4.532367834117902021e+03 1.312136214636001608e+00 4.298819195042834370e-04
4.536900201952022144e+03 1.319037108132275593e+00 3.486157234009825984e-04
4.541437102153975502e+03 1.325504794521022323e+00 3.189177127677098132e-04
4.545978539256130716e+03 1.331577627428627730e+00 3.615664605545771283e-04
4.550524517795388419e+03 1.337043425421410969e+00 3.645434934692703250e-04
4.555075042313184895e+03 1.341945619364439901e+00 3.414675919795389855e-04
4.559630117355500261e+03 1.346218286068718850e+00 3.206823181644914201e-04
4.564189747472856652e+03 1.349735404352871315e+00 3.176521154034888219e-04
4.568753937220330954e+03 1.352412799930870824e+00 3.172577071661276732e-04
4.573322691157552981e+03 1.354278822347344313e+00 3.121514039826154131e-04
4.577896013848711846e+03 1.355098950621147047e+00 3.244321706733586789e-04
4.582473909862562323e+03 1.354812102084368197e+00 2.854744558989447600e-04
4.587056383772426670e+03 1.353528099122402129e+00 3.193826865360539714e-04
4.591643440156200086e+03 1.351301193335270101e+00 4.324640745771023316e-04
4.596235083596357981e+03 1.347657085798744658e+00 4.026420198961089421e-04
4.600831318679955984e+03 1.342499574034244914e+00 3.533802650621057631e-04
4.605432149998637215e+03 1.335861630593910165e+00 2.980508867835894929e-04
4.610037582148637739e+03 1.327676394847417063e+00 2.883517506932991399e-04
4.614647619730787483e+03 1.317860738131611864e+00 3.187700015656671506e-04
4.619262267350520233e+03 1.306588957120710326e+00 3.548699108249131658e-04
4.623881529617872729e+03 1.294391529605638080e+00 3.392835216471780466e-04
4.628505411147491941e+03 1.281396232899074006e+00 3.281334761171415186e-04
4.633133916558640522e+03 1.267715135518566738e+00 3.138466083191927109e-04
4.637767050475200449e+03 1.253424464146378314e+00 2.866051892108114588e-04
4.642404817525677572e+03 1.238816584640945129e+00 2.518350883735776110e-04
4.647047222343205249e+03 1.224135920441705716e+00 2.648114003878917285e-04
4.651694269565549803e+03 1.209501343448911248e+00 3.063552487905295903e-04
4.656345963835116891e+03 1.194789268224595746e+00 2.772297088765620352e-04
4.661002309798953320e+03 1.179955276328220615e+00 2.335245162638544837e-04
4.665663312108753416e+03 1.164943190176433330e+00 2.332675048407793436e-04
4.670328975420864481e+03 1.150031770350436577e+00 2.345661546399685179e-04
4.674999304396286789e+03 1.135348181628839548e+00 2.591947370151051673e-04
4.679674303700684504e+03 1.121060358962421288e+00 3.320540123852583759e-04
4.684353978004386590e+03 1.107145713466309411e+00 4.017485946924829782e-04
4.689038331982392265e+03 1.094043251283606022e+00 3.606846591167238241e-04
4.693727370314376458e+03 1.081979151702141762e+00 3.012350694651619331e-04
4.698421097684692540e+03 1.071103708971533175e+00 3.455448981274132441e-04
4.703119518782378691e+03 1.061132328740732378e+00 3.674183982457754935e-04
4.707822638301162442e+03 1.052109398009044572e+00 4.074475098509588327e-04
4.712530460939465229e+03 1.044232177026772401e+00 4.905518476697807084e-04
4.717242991400406027e+03 1.037017600593399980e+00 4.231592596080837741e-04
4.721960234391808626e+03 1.030346225718964392e+00 3.048232516940787380e-04
4.726682194626201635e+03 1.023906298070095700e+00 2.408378581545342345e-04
4.731408876820829391e+03 1.017749224465056113e+00 2.365672002817268587e-04
4.736140285697651962e+03 1.011952340466299338e+00 2.495770259493083616e-04
4.740876425983350600e+03 1.006553121629171654e+00 3.193326547895105065e-04
4.745617302409335934e+03 1.001646423698457467e+00 4.041600153185995583e-04
4.750362919711747054e+03 9.976307363851820709e-01 4.068978097387218520e-04
4.755113282631459697e+03 9.948277606461644051e-01 3.751873287140714496e-04
4.759868395914093526e+03 9.934662939296670103e-01 3.484071974264099777e-04
4.764628264310008490e+03 9.936066015094340287e-01 3.247456984943108754e-04
4.769392892574320285e+03 9.952753054891768647e-01 2.945009111995102163e-04
4.774162285466896719e+03 9.984867912372685783e-01 2.073366985986075598e-04
4.778936447752364984e+03 1.003431989330352270e+00 4.074014644211250359e-04
4.783715384200118933e+03 1.009576233322126315e+00 5.879982748822128614e-04
4.788499099584319993e+03 1.016542821345263636e+00 7.680607265376714846e-04
4.793287598683906253e+03 1.023440909095200801e+00 8.694131655241983843e-04
4.798080886282591564e+03 1.029895109662099850e+00 8.893877767353649925e-04
4.802878967168876443e+03 1.035313398013496533e+00 6.667619276952966483e-04
4.807681846136046261e+03 1.039135579974947321e+00 5.340396868079751169e-04
4.812489527982183972e+03 1.041415260680954136e+00 4.767469846270607717e-04
4.817302017510168298e+03 1.041920969810819608e+00 6.065308174251306033e-04
4.822119319527679181e+03 1.040996082859041660e+00 7.907716854314172537e-04
4.826941438847208701e+03 1.039122619098828082e+00 9.571561526561352595e-04
4.831768380286057436e+03 1.036803026177941511e+00 9.631373282033754788e-04
4.836600148666345376e+03 1.034744943794700056e+00 7.719537445411658351e-04
4.841436748815013743e+03 1.033749547270613967e+00 4.894329221889378830e-04
