# starting wavelength: 3652.500
# ending wavelength: 7397.140
# wav flux eflux
3.655935210469810499e+03 1.109749896444997441e+00 4.095708716877546895e-03
3.659591145680281443e+03 1.104030861026768839e+00 2.949598210966179312e-03
3.663250736825963031e+03 1.098323503812272284e+00 2.313109979969611360e-03
3.666913987562790226e+03 1.092615960665413111e+00 2.049939189431889200e-03
3.670580901550354156e+03 1.087693535648300402e+00 1.596240117812751380e-03
3.674251482451905758e+03 1.083554632419536201e+00 1.269645911239530465e-03
3.677925733934358959e+03 1.079682770298987515e+00 1.011267500925266700e-03
3.681603659668294313e+03 1.076145227028167950e+00 8.098523204097218776e-04
3.685285263327964003e+03 1.072917532509701566e+00 6.885281400597448266e-04
3.688970548591293209e+03 1.069985870136697104e+00 6.389921419692291349e-04
3.692659519139885560e+03 1.067307804011394357e+00 5.535710190621583081e-04
3.696352178659026777e+03 1.064830003341486142e+00 4.899352700596801757e-04
3.700048530837686940e+03 1.062495982444722209e+00 4.440060373718638948e-04
3.703748579368525952e+03 1.060210968208265214e+00 4.276137074380212768e-04
3.707452327947895355e+03 1.058110260754452803e+00 4.064467130353563765e-04
3.711159780275844696e+03 1.056217152732611408e+00 3.851735066379527754e-04
3.714870940056121526e+03 1.054411270817326107e+00 3.800745362079408353e-04
3.718585810996179134e+03 1.052824345763474501e+00 3.719581343140674419e-04
3.722304396807176545e+03 1.051517615203812150e+00 3.813099844484242867e-04
3.726026701203984885e+03 1.050309168019741612e+00 3.912220418134215835e-04
3.729752727905190113e+03 1.049276486244958395e+00 4.128100597452945947e-04
3.733482480633096657e+03 1.048414628519357628e+00 4.676347486658996491e-04
3.737215963113731050e+03 1.047753541563176460e+00 4.759990149928679574e-04
3.740953179076846027e+03 1.047509335008439457e+00 4.614355683537283413e-04
3.744694132255923705e+03 1.047667638904579812e+00 4.105998002168635198e-04
3.748438826388181042e+03 1.048155953367096993e+00 3.482463924578265715e-04
3.752187265214570289e+03 1.049205619032104853e+00 3.127500218900839692e-04
3.755939452479786269e+03 1.050884149407985468e+00 3.263719961105405651e-04
3.759695391932267285e+03 1.052956379053354485e+00 3.360734080612375160e-04
3.763455087324201031e+03 1.055443170365233163e+00 3.356266843943412769e-04
3.767218542411526414e+03 1.058402254494768657e+00 3.400026641007108399e-04
3.770985760953939007e+03 1.061787807308890219e+00 3.597660161644771165e-04
3.774756746714894234e+03 1.065600233807265873e+00 4.484459119507626336e-04
3.778531503461610555e+03 1.069845009354379650e+00 5.158126654578159545e-04
3.782310034965073100e+03 1.074240602988938864e+00 5.527832023293148111e-04
3.786092345000039586e+03 1.078710767231544354e+00 5.297608518485343075e-04
3.789878437345040766e+03 1.083188823031440151e+00 5.421389424468112984e-04
3.793668315782387253e+03 1.087923429970409472e+00 5.003177348032163347e-04
3.797461984098170888e+03 1.092449310581325550e+00 4.090767399232913366e-04
3.801259446082270188e+03 1.096711451678207716e+00 3.812129633454161017e-04
3.805060705528353537e+03 1.100580053193652486e+00 4.366044824485983741e-04
3.808865766233883278e+03 1.104280459371817180e+00 5.200515485061949980e-04
3.812674632000118436e+03 1.107837500380920215e+00 6.123568565944031462e-04
3.816487306632119726e+03 1.111258115661231782e+00 5.929621050958985016e-04
3.820303793938753188e+03 1.114657090416912189e+00 5.808700018540033198e-04
3.824124097732693372e+03 1.117930291046803415e+00 5.906733670306566278e-04
3.827948221830427428e+03 1.120781823294852098e+00 5.608290643990537913e-04
3.831776170052258749e+03 1.123541028093819616e+00 5.553333847686410790e-04
3.835607946222312421e+03 1.126196839142917794e+00 5.758188216850654425e-04
3.839443554168536139e+03 1.128647022944946787e+00 5.811536200835220158e-04
3.843282997722705659e+03 1.131221144918383326e+00 5.806232492584954092e-04
3.847126280720429804e+03 1.133610775292278383e+00 6.099077300947861957e-04
3.850973407001151372e+03 1.135761788962311947e+00 6.567763643905819189e-04
3.854824380408153957e+03 1.138116861997781282e+00 6.665486439862783547e-04
3.858679204788563311e+03 1.140497557633275427e+00 6.736592873708219719e-04
3.862537883993353262e+03 1.143101784667138743e+00 6.874305145551738022e-04
3.866400421877347981e+03 1.145635849108827875e+00 7.164776016982210647e-04
3.870266822299226533e+03 1.148162016566084409e+00 7.538469551569990318e-04
3.874137089121526969e+03 1.150310790303477937e+00 7.842412491261643338e-04
3.878011226210649966e+03 1.152268470093494868e+00 8.033827017282766693e-04
3.881889237436861549e+03 1.154160187889889722e+00 8.610286404147107471e-04
3.885771126674299921e+03 1.156045314509482447e+00 8.914152367511085206e-04
3.889656897800975457e+03 1.157441776497408092e+00 8.569589720214702616e-04
3.893546554698777527e+03 1.158412379901552436e+00 8.358958336361597963e-04
3.897440101253477678e+03 1.158978132384987703e+00 8.613862541975636153e-04
3.901337541354732366e+03 1.159427175131667154e+00 8.900803910212223618e-04
3.905238878896088409e+03 1.159665711111193875e+00 9.827243153866698291e-04
3.909144117774985716e+03 1.159464633172046399e+00 1.092017701987988386e-03
3.913053261892762293e+03 1.159502969037004005e+00 1.022755225555805128e-03
3.916966315154656058e+03 1.159455992512576472e+00 8.290978548507314284e-04
3.920883281469812118e+03 1.159727121752735846e+00 7.561533636458174197e-04
3.924804164751283224e+03 1.160961416517754641e+00 8.669748068978258559e-04
3.928728968916035683e+03 1.162316391760713330e+00 8.559314052645277619e-04
3.932657697884953450e+03 1.163921296910086056e+00 8.896344096959721759e-04
3.936590355582839493e+03 1.166519717537527701e+00 8.802472002474102507e-04
3.940526945938423523e+03 1.169644280076047815e+00 8.686223483513747564e-04
3.944467472884363360e+03 1.173305848730764822e+00 8.745141242689774422e-04
3.948411940357249023e+03 1.177592446894317746e+00 9.194507722242770782e-04
3.952360352297607733e+03 1.181902047812506629e+00 9.660816933780861033e-04
3.956312712649906643e+03 1.187146325799872004e+00 9.614164923370583683e-04
3.960269025362557841e+03 1.192662867773654156e+00 1.012952936466960524e-03
3.964229294387921527e+03 1.198675138012498254e+00 1.060173908950759036e-03
3.968193523682310570e+03 1.204597997626171590e+00 1.061553625869971753e-03
3.972161717205994591e+03 1.210723458896606708e+00 1.069608479229289819e-03
3.976133878923201792e+03 1.216911268478231056e+00 1.036818891202613557e-03
3.980110012802126221e+03 1.223060807772795133e+00 1.007700333108893162e-03
3.984090122814929600e+03 1.228679847275469861e+00 9.712795434021919729e-04
3.988074212937745870e+03 1.233295129323872974e+00 9.750067436022391868e-04
3.992062287150684824e+03 1.236697041109853235e+00 9.631104385403937637e-04
3.996054349437837118e+03 1.238505620609090307e+00 9.910981248096124505e-04
4.000050403787276082e+03 1.238881331242347894e+00 1.039408327263740108e-03
4.004050454191064546e+03 1.238061921588926362e+00 1.085667369546124182e-03
4.008054504645257111e+03 1.235820998324146824e+00 9.367083669571828110e-04
4.012062559149903791e+03 1.231264033310862649e+00 8.132316612922153029e-04
4.016074621709055009e+03 1.224518792490881802e+00 8.570308063901486105e-04
4.020090696330765240e+03 1.216204498304714443e+00 9.056858045916992960e-04
4.024110787027097558e+03 1.207216543821344024e+00 9.339141632116410236e-04
4.028134897814125907e+03 1.196615148598232814e+00 1.110509783073181577e-03
4.032163032711941469e+03 1.185344228248250031e+00 1.050448219669422025e-03
4.036195195744654484e+03 1.174435482702915312e+00 9.126342439821938813e-04
4.040231390940400615e+03 1.165723795175865218e+00 8.493283994636541007e-04
4.044271622331342314e+03 1.159328047181898302e+00 7.950219344545433973e-04
4.048315893953675186e+03 1.154847806150973044e+00 8.099001050135922310e-04
4.052364209847629809e+03 1.152889712679438627e+00 7.037213592862442361e-04
4.056416574057479011e+03 1.153956889716953649e+00 7.847623569970339774e-04
4.060472990631537868e+03 1.157337045849184731e+00 8.689331710945137838e-04
4.064533463622170530e+03 1.163102441770072160e+00 9.695478502391982395e-04
4.068597997085794304e+03 1.169847516567557255e+00 8.931770505886847070e-04
4.072666595082881486e+03 1.177001901935330164e+00 9.314038682103238653e-04
4.076739261677965715e+03 1.184134178082142164e+00 9.218282532559129560e-04
4.080816000939644709e+03 1.190434021943472143e+00 8.751242382793279284e-04
4.084896816940585722e+03 1.195142817366076082e+00 8.853580940762211405e-04
4.088981713757527814e+03 1.197588548793134589e+00 7.748290172821078103e-04
4.093070695471286854e+03 1.196994822787704971e+00 7.605711208146315530e-04
4.097163766166759160e+03 1.193827555210600577e+00 7.381961972986050705e-04
4.101260929932927866e+03 1.187883741751455169e+00 9.280569275233531727e-04
4.105362190862862008e+03 1.179473409170884057e+00 1.135124500614392764e-03
4.109467553053726078e+03 1.169265245943751363e+00 1.180745463484487523e-03
4.113577020606780934e+03 1.157554154486635678e+00 1.068188843647416546e-03
4.117690597627389252e+03 1.146043282040906330e+00 9.749283753139328327e-04
4.121808288225018259e+03 1.135207592680075095e+00 9.638543500168472028e-04
4.125930096513244280e+03 1.124677167711175985e+00 5.667821255226720588e-04
4.130056026609759101e+03 1.115930320536207887e+00 5.487292152873488992e-04
4.134186082636369974e+03 1.108775415946932963e+00 6.374338467811914649e-04
4.138320268719007800e+03 1.103071157437669259e+00 6.971100227759754672e-04
4.142458588987728035e+03 1.098878332515071499e+00 5.399805913145100692e-04
4.146601047576717065e+03 1.095209062643473175e+00 4.645361199427436023e-04
4.150747648624294925e+03 1.092134230204648615e+00 3.437064387906406415e-04
4.154898396272920763e+03 1.089413825137558023e+00 3.511804470893954895e-04
4.159053294669195566e+03 1.086692550672357038e+00 3.739014805436514715e-04
4.163212347963865795e+03 1.083951934982998466e+00 4.461438765451111537e-04
4.167375560311830668e+03 1.080571592359443001e+00 4.377591442844155998e-04
4.171542935872143971e+03 1.076483800495149801e+00 4.250280112921887388e-04
4.175714478808017702e+03 1.071851099619908210e+00 4.177484787228461535e-04
4.179890193286827525e+03 1.066455196997054600e+00 4.690148436548156777e-04
4.184070083480115500e+03 1.060675249257978958e+00 6.110024868984408660e-04
4.188254153563597356e+03 1.054826588830251710e+00 7.336245931799743186e-04
4.192442407717161586e+03 1.049028334263420126e+00 6.292501535548999502e-04
4.196634850124880359e+03 1.043850490434404810e+00 5.790280315530039025e-04
4.200831484975006788e+03 1.039018025237033793e+00 5.068316665368330105e-04
4.205032316459983122e+03 1.035067114061718918e+00 5.446258045778883334e-04
4.209237348776444378e+03 1.032052336878167775e+00 5.844027533545204014e-04
4.213446586125221984e+03 1.029545985851349155e+00 5.649383203499547517e-04
4.217660032711349231e+03 1.027971598233003103e+00 5.061732994153087970e-04
4.221877692744061278e+03 1.026989178795088664e+00 4.387845544628971505e-04
4.226099570436806971e+03 1.026467725631847516e+00 4.571593137333322329e-04
4.230325670007245208e+03 1.026492758910308112e+00 4.321769018510768267e-04
4.234555995677254032e+03 1.027330634684344712e+00 5.565842131571042137e-04
4.238790551672932452e+03 1.028452916867351741e+00 5.908466726566763590e-04
4.243029342224606808e+03 1.030146159703268838e+00 5.779977119126533018e-04
4.247272371566832589e+03 1.032213804513853583e+00 5.690770757911890526e-04
4.251519643938400804e+03 1.034559601351603630e+00 6.327635932891226365e-04
4.255771163582340705e+03 1.037618289367150837e+00 7.118152503502420299e-04
4.260026934745924336e+03 1.041427054383500694e+00 7.756449943382907712e-04
4.264286961680671993e+03 1.045848352000617432e+00 8.410959055302842571e-04
4.268551248642354039e+03 1.051505976861531577e+00 7.147061671099421603e-04
4.272819799890998183e+03 1.058570673568929088e+00 6.605006413394939446e-04
4.277092619690890388e+03 1.066835101966611798e+00 6.545615674640410447e-04
4.281369712310583054e+03 1.076058742685534142e+00 6.321414501753343110e-04
4.285651082022895025e+03 1.086860545326010286e+00 7.127756008444085340e-04
4.289936733104918858e+03 1.098135415021795680e+00 6.470740801468777195e-04
4.294226669838025373e+03 1.109439986503697240e+00 5.708716361226134905e-04
4.298520896507864563e+03 1.120808090821059366e+00 3.962526828276507454e-04
4.302819417404373780e+03 1.131461672379822314e+00 4.015349128736576284e-04
4.307122236821779552e+03 1.141335367907352794e+00 5.336090156628689983e-04
4.311429359058603040e+03 1.149988762645441032e+00 5.886977957451590068e-04
4.315740788417662770e+03 1.157292725609200934e+00 5.475610820418613800e-04
4.320056529206081905e+03 1.163155626142545307e+00 5.479397948573828210e-04
4.324376585735290064e+03 1.167681563431881564e+00 5.670316318575299068e-04
4.328700962321026054e+03 1.171090968249352882e+00 5.666549088784502428e-04
4.333029663283348782e+03 1.172990203930607933e+00 6.586280945718192038e-04
4.337362692946633615e+03 1.174225237938833155e+00 6.761731831899570923e-04
4.341700055639581478e+03 1.174762496074181595e+00 7.614555270486784294e-04
4.346041755695222491e+03 1.175140257683561673e+00 5.697857886890983579e-04
4.350387797450919606e+03 1.175940192390800609e+00 5.117463426533960975e-04
4.354738185248371337e+03 1.177134319637327620e+00 5.189172466343756071e-04
4.359092923433621763e+03 1.179000120863084256e+00 4.839023584006099470e-04
4.363452016357056891e+03 1.181628094384885141e+00 5.553991916690975174e-04
4.367815468373414660e+03 1.185217660297370967e+00 6.469453334744678817e-04
4.372183283841789489e+03 1.188677543717853613e+00 6.206938367820115897e-04
4.376555467125633186e+03 1.192058639341983861e+00 6.395071918896273310e-04
4.380932022592760404e+03 1.195292174996662293e+00 6.643696585037593824e-04
4.385312954615354101e+03 1.198069310184253888e+00 6.189658119475731617e-04
4.389698267569970994e+03 1.200285865944973329e+00 4.762656010876806820e-04
4.394087965837542470e+03 1.201625905898430657e+00 5.156196743668562321e-04
4.398482053803381859e+03 1.201931607087783682e+00 6.405633352924314326e-04
4.402880535857186260e+03 1.202156621319297569e+00 6.034972697569493481e-04
4.407283416393044718e+03 1.201900340134020695e+00 5.431301223429067055e-04
4.411690699809440048e+03 1.201629287843282601e+00 5.500961664193744017e-04
4.416102390509250654e+03 1.200974180529378987e+00 5.160984345502341118e-04
4.420518492899761441e+03 1.200632332567509897e+00 5.308870477097323926e-04
4.424939011392662906e+03 1.199972320753802002e+00 5.864776600487665815e-04
4.429363950404056595e+03 1.199958084171539152e+00 5.704511671084594795e-04
4.433793314354462382e+03 1.200013582164184855e+00 7.148183566293240393e-04
4.438227107668818462e+03 1.200448186823782626e+00 6.891685544469507933e-04
4.442665334776488635e+03 1.201772132025594964e+00 6.555524366304481612e-04
4.447108000111265937e+03 1.203685755051582706e+00 6.574026943373357471e-04
4.451555108111379013e+03 1.206339928833018993e+00 7.920747225541711510e-04
4.456006663219492111e+03 1.208999929916213523e+00 9.102650288614505016e-04
4.460462669882713271e+03 1.211896820388922658e+00 1.014849809012403903e-03
4.464923132552597053e+03 1.214454490223030092e+00 8.662575560044132430e-04
4.469388055685150903e+03 1.216447749209422780e+00 6.908910948390052566e-04
4.473857443740837880e+03 1.217527862742619593e+00 7.815843306201915872e-04
4.478331301184580298e+03 1.217877475544216770e+00 9.318810314426129084e-04
4.482809632485766087e+03 1.217570971219583020e+00 8.736888483229911326e-04
4.487292442118253348e+03 1.217444453834843010e+00 8.150324706640215766e-04
4.491779734560373072e+03 1.216936511070914273e+00 6.677437359278932168e-04
4.496271514294934605e+03 1.216737205968930979e+00 6.942913981117921057e-04
4.500767785809231100e+03 1.216500004899262466e+00 7.076890674351417332e-04
4.505268553595042249e+03 1.216597001366839459e+00 6.389165504249163727e-04
4.509773822148638828e+03 1.216416679310690308e+00 6.766183388961144376e-04
4.514283595970789065e+03 1.216566253926958163e+00 6.678766057497204306e-04
4.518797879566761367e+03 1.216399106270149355e+00 7.136591927955754627e-04
4.523316677446328868e+03 1.216437176434863598e+00 6.902168773180526306e-04
4.527839994123776705e+03 1.216531587788659774e+00 7.695887908192759275e-04
4.532367834117902021e+03 1.216078001109250017e+00 8.951403506737054582e-04
4.536900201952022144e+03 1.215289811309001822e+00 1.120946148887060501e-03
4.541437102153975502e+03 1.213478244451792198e+00 1.150379026971855290e-03
4.545978539256130716e+03 1.210541274809101120e+00 9.443466929024528500e-04
4.550524517795388419e+03 1.206059831728783394e+00 9.016010008889291513e-04
4.555075042313184895e+03 1.200383817248834140e+00 9.323884665161290362e-04
4.559630117355500261e+03 1.193218135563808957e+00 1.046365329371633972e-03
4.564189747472856652e+03 1.185071496114564749e+00 1.039851379895857884e-03
4.568753937220330954e+03 1.176536881904422405e+00 8.433822302127679535e-04
4.573322691157552981e+03 1.168021426870424984e+00 7.062423947610649202e-04
4.577896013848711846e+03 1.159601981659449832e+00 5.187778507305009076e-04
4.582473909862562323e+03 1.152167194423715291e+00 5.123645462632267803e-04
4.587056383772426670e+03 1.145664607247768974e+00 5.075760072002896608e-04
4.591643440156200086e+03 1.140205323170563334e+00 4.560627836121030742e-04
4.596235083596357981e+03 1.135494728261436936e+00 4.435712105815711411e-04
4.600831318679955984e+03 1.131561074876042294e+00 4.372129572498675626e-04
4.605432149998637215e+03 1.128242239480251596e+00 5.178803442437050156e-04
4.610037582148637739e+03 1.125420901798884543e+00 6.615281214773861872e-04
4.614647619730787483e+03 1.122902360371172970e+00 8.479257217257498260e-04
4.619262267350520233e+03 1.120168838102696185e+00 8.557002204226132501e-04
4.623881529617872729e+03 1.117086600011542696e+00 6.627017240021343099e-04
4.628505411147491941e+03 1.113400369902158404e+00 5.942111860613142303e-04
4.633133916558640522e+03 1.108961416073933837e+00 6.856917990186057197e-04
4.637767050475200449e+03 1.103955381340897102e+00 6.970805131928815151e-04
4.642404817525677572e+03 1.098664132654978420e+00 6.736765590176576907e-04
4.647047222343205249e+03 1.092918428997057489e+00 5.668921951302051182e-04
4.651694269565549803e+03 1.087145707002235451e+00 4.487069172575067623e-04
4.656345963835116891e+03 1.081972888860374127e+00 4.270051680886290026e-04
4.661002309798953320e+03 1.077227579394605117e+00 4.188602067430752533e-04
4.665663312108753416e+03 1.072886417529407277e+00 4.148233942665616549e-04
4.670328975420864481e+03 1.069282255696945239e+00 4.184993437615814487e-04
4.674999304396286789e+03 1.066318861490804570e+00 4.885624513510884509e-04
4.679674303700684504e+03 1.063451291404725607e+00 4.653541894617452463e-04
4.684353978004386590e+03 1.060576781045042605e+00 4.659866287027018719e-04
4.689038331982392265e+03 1.057704244669521065e+00 4.957824218515577593e-04
4.693727370314376458e+03 1.054916754947919255e+00 5.283894635627444910e-04
4.698421097684692540e+03 1.051868283551280037e+00 4.993085229538922780e-04
4.703119518782378691e+03 1.048762079057624863e+00 3.912301035956610817e-04
4.707822638301162442e+03 1.045245608340661603e+00 4.473215269567568033e-04
4.712530460939465229e+03 1.041302674735264056e+00 5.849224231962130800e-04
4.717242991400406027e+03 1.037542247303287146e+00 5.445336034527695646e-04
4.721960234391808626e+03 1.033988618293226081e+00 4.111911208333472755e-04
4.726682194626201635e+03 1.031034949623385488e+00 3.526140479539071303e-04
4.731408876820829391e+03 1.028678159680095350e+00 3.460888896340778690e-04
4.736140285697651962e+03 1.026877108704885577e+00 3.718660677754438877e-04
4.740876425983350600e+03 1.025577643330622513e+00 4.422564090197693095e-04
4.745617302409335934e+03 1.024663350284479524e+00 3.965844130765521403e-04
4.750362919711747054e+03 1.023927172121427365e+00 3.750549159332526280e-04
4.755113282631459697e+03 1.023067826461758534e+00 3.736647393221671862e-04
4.759868395914093526e+03 1.022213996059099461e+00 3.437702832666674163e-04
