# starting wavelength: 3652.500
# ending wavelength: 7338.220
# wav flux eflux
3.655935210469810499e+03 7.714341821510843911e-01 1.893401641822260034e-02
3.659591145680281443e+03 7.728493456804851336e-01 1.457441691095097934e-02
3.663250736825963031e+03 7.655815013751146036e-01 1.077980247117116611e-02
3.666913987562790226e+03 7.474531391296075356e-01 9.873968365781225082e-03
3.670580901550354156e+03 7.219131885101423007e-01 1.158325225681746187e-02
3.674251482451905758e+03 6.971451240371200342e-01 9.593153652688790264e-03
3.677925733934358959e+03 6.724640908807215656e-01 7.928258211857721130e-03
3.681603659668294313e+03 6.490462742977824995e-01 6.349593623555218475e-03
3.685285263327964003e+03 6.261687620595508541e-01 5.634115782316178288e-03
3.688970548591293209e+03 6.055479419046870815e-01 5.243238909438259834e-03
3.692659519139885560e+03 5.872559188362599381e-01 4.845397224053860086e-03
3.696352178659026777e+03 5.711118773805952120e-01 4.537850481217770883e-03
3.700048530837686940e+03 5.570543163542525100e-01 4.370015106912678894e-03
3.703748579368525952e+03 5.437402752883767620e-01 4.046510981091966039e-03
3.707452327947895355e+03 5.322149443197121688e-01 3.878810699011194744e-03
3.711159780275844696e+03 5.206410716834153352e-01 3.666628519414271044e-03
3.714870940056121526e+03 5.101826535381257521e-01 3.504861730752318640e-03
3.718585810996179134e+03 5.012185342422164069e-01 3.494895510834752569e-03
3.722304396807176545e+03 4.935549206621585583e-01 3.248162040229698663e-03
3.726026701203984885e+03 4.871709821892424852e-01 3.267737765876611421e-03
3.729752727905190113e+03 4.818452520127872729e-01 3.687394967167101703e-03
3.733482480633096657e+03 4.794313777012986222e-01 3.691211118415683307e-03
3.737215963113731050e+03 4.782364038689301267e-01 3.679525800619493775e-03
3.740953179076846027e+03 4.779729536055767891e-01 3.570913280007052479e-03
3.744694132255923705e+03 4.799332875643060881e-01 3.503624591649479297e-03
3.748438826388181042e+03 4.829981214792723465e-01 3.404131953348721058e-03
3.752187265214570289e+03 4.880037583148904012e-01 3.278838228198665324e-03
3.755939452479786269e+03 4.942654367314481267e-01 3.341553467670249026e-03
3.759695391932267285e+03 5.032053129980242900e-01 3.575061627283111776e-03
3.763455087324201031e+03 5.128363718760655665e-01 3.696761143128667135e-03
3.767218542411526414e+03 5.250227620514004157e-01 4.040583322535130049e-03
3.770985760953939007e+03 5.385882126875121134e-01 4.014626053593043503e-03
3.774756746714894234e+03 5.525157585112419056e-01 3.765853729286852691e-03
3.778531503461610555e+03 5.675386150057319945e-01 3.345875586074876021e-03
3.782310034965073100e+03 5.823263094340581647e-01 2.798592653623763540e-03
3.786092345000039586e+03 5.951360328798204202e-01 3.263481260463502263e-03
3.789878437345040766e+03 6.075420485248573810e-01 3.656299186686384241e-03
3.793668315782387253e+03 6.217128310483253095e-01 3.766132839767294058e-03
3.797461984098170888e+03 6.350774963812673146e-01 4.143689532160358194e-03
3.801259446082270188e+03 6.496016100297304918e-01 4.169063466311076320e-03
3.805060705528353537e+03 6.628817585696380466e-01 3.821522026758600917e-03
3.808865766233883278e+03 6.755174049953117654e-01 3.187561255260768465e-03
3.812674632000118436e+03 6.914216728663029610e-01 3.121988127524273279e-03
3.816487306632119726e+03 7.089204790869678696e-01 3.618566036915862438e-03
3.820303793938753188e+03 7.278532434554397801e-01 4.404717330855944905e-03
3.824124097732693372e+03 7.464607415868341755e-01 4.475619889809496176e-03
3.827948221830427428e+03 7.640535892691159292e-01 4.349893844115848909e-03
3.831776170052258749e+03 7.828505134052679004e-01 4.089680568553748403e-03
3.835607946222312421e+03 8.000618986379709474e-01 4.182387148481232601e-03
3.839443554168536139e+03 8.180224076860250770e-01 4.136108246745868848e-03
3.843282997722705659e+03 8.353539573518226069e-01 4.190137186841254302e-03
3.847126280720429804e+03 8.511304695167283274e-01 4.561251127286792759e-03
3.850973407001151372e+03 8.690572560706835148e-01 4.584960458946803208e-03
3.854824380408153957e+03 8.861275695617332193e-01 4.727241661537115967e-03
3.858679204788563311e+03 9.028554517245966915e-01 4.476416172033093922e-03
3.862537883993353262e+03 9.207197552767146798e-01 4.237773550304677929e-03
3.866400421877347981e+03 9.385791722728253905e-01 3.794196699553178519e-03
3.870266822299226533e+03 9.569214969528613279e-01 3.800422866859420531e-03
3.874137089121526969e+03 9.773834027963446136e-01 4.092612504318027256e-03
3.878011226210649966e+03 9.982194228616401155e-01 4.449838530001502986e-03
3.881889237436861549e+03 1.019953588812289924e+00 4.459045417402076467e-03
3.885771126674299921e+03 1.042020721278609230e+00 4.089442174303158269e-03
3.889656897800975457e+03 1.063670933311597455e+00 3.180920889748310460e-03
3.893546554698777527e+03 1.082210148615587286e+00 2.925108455908070459e-03
3.897440101253477678e+03 1.097471449262415133e+00 3.239420346594466902e-03
3.901337541354732366e+03 1.111667881967289162e+00 3.313713909501601884e-03
3.905238878896088409e+03 1.123826647294525749e+00 3.401316313870436734e-03
3.909144117774985716e+03 1.133566331259318494e+00 3.405314318632720900e-03
3.913053261892762293e+03 1.140302614265049419e+00 2.869408165960107577e-03
3.916966315154656058e+03 1.145297068583129851e+00 2.820202209738295260e-03
3.920883281469812118e+03 1.151113769229850980e+00 3.109284197550024002e-03
3.924804164751283224e+03 1.154746875861112576e+00 2.765119711650894808e-03
3.928728968916035683e+03 1.153406213489662324e+00 2.902822906581651978e-03
3.932657697884953450e+03 1.149077384307013006e+00 3.238324377309823032e-03
3.936590355582839493e+03 1.144244913954252318e+00 3.225220890976403763e-03
3.940526945938423523e+03 1.138303161657437279e+00 3.172674579044114634e-03
3.944467472884363360e+03 1.131336277591424411e+00 3.304704491849845896e-03
3.948411940357249023e+03 1.121345205939540124e+00 3.424044720723086466e-03
3.952360352297607733e+03 1.111709087949516617e+00 3.446386483730566521e-03
3.956312712649906643e+03 1.100205570496419982e+00 3.115241711884226845e-03
3.960269025362557841e+03 1.090696017681174856e+00 3.042211008258576509e-03
3.964229294387921527e+03 1.081186114729274284e+00 2.970785430934373781e-03
3.968193523682310570e+03 1.075028418842682632e+00 3.099735950244176044e-03
3.972161717205994591e+03 1.069229065549722746e+00 3.111047559276994539e-03
3.976133878923201792e+03 1.065861105735634640e+00 3.260362678649395517e-03
3.980110012802126221e+03 1.064682076712816672e+00 3.037144611013934195e-03
3.984090122814929600e+03 1.064797787172697685e+00 2.769219220141909323e-03
3.988074212937745870e+03 1.064153330174868461e+00 2.894749711265452632e-03
3.992062287150684824e+03 1.064383128047484695e+00 2.963786308850865827e-03
3.996054349437837118e+03 1.064956241683924665e+00 2.811504076685021874e-03
4.000050403787276082e+03 1.067221745481810258e+00 2.788837767006278109e-03
4.004050454191064546e+03 1.072840991268799504e+00 3.265149469228614473e-03
4.008054504645257111e+03 1.077906043772174804e+00 2.951306164349029506e-03
4.012062559149903791e+03 1.082774663049079766e+00 2.970699690430028076e-03
4.016074621709055009e+03 1.086290172883057625e+00 2.877792050277873121e-03
4.020090696330765240e+03 1.090944043354970860e+00 2.915906210281571462e-03
4.024110787027097558e+03 1.096799863983819234e+00 3.041392303108418106e-03
4.028134897814125907e+03 1.102915236583000835e+00 2.959109340127669217e-03
4.032163032711941469e+03 1.109471678110925064e+00 3.185087171580192836e-03
4.036195195744654484e+03 1.116507306768627972e+00 3.678307624841486729e-03
4.040231390940400615e+03 1.121147871493065162e+00 3.551148225514823460e-03
4.044271622331342314e+03 1.124382401004160759e+00 3.473664129309892226e-03
4.048315893953675186e+03 1.124527263230877594e+00 3.601039258029505637e-03
4.052364209847629809e+03 1.124987911125452600e+00 3.508732170681792134e-03
4.056416574057479011e+03 1.122348602771502613e+00 3.570048391842722910e-03
4.060472990631537868e+03 1.118600610533263762e+00 3.472736295432426058e-03
4.064533463622170530e+03 1.110228297213671889e+00 3.454074029453071612e-03
4.068597997085794304e+03 1.098424326407295482e+00 3.459034496809649563e-03
4.072666595082881486e+03 1.084219331269064224e+00 3.400611176932554543e-03
4.076739261677965715e+03 1.065614003886873329e+00 3.727569510389561365e-03
4.080816000939644709e+03 1.046991684072518636e+00 3.959649081949558232e-03
4.084896816940585722e+03 1.030677724195747436e+00 4.000842777496954952e-03
4.088981713757527814e+03 1.013635953449959271e+00 4.014695674344892842e-03
4.093070695471286854e+03 9.983116627150773192e-01 4.186780525012991604e-03
4.097163766166759160e+03 9.866484623821903943e-01 3.597379028496726187e-03
4.101260929932927866e+03 9.793419204541404799e-01 3.453778109203474618e-03
4.105362190862862008e+03 9.776844025344169076e-01 5.225523998110412176e-03
4.109467553053726078e+03 9.786009822635421962e-01 5.186577280764834499e-03
4.113577020606780934e+03 9.793960276639928075e-01 4.354707832303452049e-03
4.117690597627389252e+03 9.804412936614641527e-01 4.243838898971777872e-03
4.121808288225018259e+03 9.819662872149674815e-01 4.162369026900179098e-03
4.125930096513244280e+03 9.820284704280612953e-01 4.087431811202732468e-03
4.130056026609759101e+03 9.820211416138814320e-01 4.188365378303735009e-03
4.134186082636369974e+03 9.805155903470058609e-01 4.287223929734144436e-03
4.138320268719007800e+03 9.765681910712009639e-01 4.260240727324666847e-03
4.142458588987728035e+03 9.704840009068096407e-01 4.404424144204660899e-03
4.146601047576717065e+03 9.654157142798941438e-01 4.483111715138507133e-03
4.150747648624294925e+03 9.600987135455172350e-01 4.888225134741425865e-03
4.154898396272920763e+03 9.567546739098572450e-01 4.789503370950038558e-03
4.159053294669195566e+03 9.548435830999226770e-01 4.766802456111617764e-03
4.163212347963865795e+03 9.542632435442052197e-01 4.746132565651989786e-03
4.167375560311830668e+03 9.538522384774064111e-01 4.719552620972317092e-03
4.171542935872143971e+03 9.538537037310983457e-01 4.157517790126762092e-03
4.175714478808017702e+03 9.577138307289869701e-01 4.528721087382489574e-03
4.179890193286827525e+03 9.640549953709786069e-01 4.726986701886147155e-03
4.184070083480115500e+03 9.717888961833257566e-01 3.390374563310344369e-03
4.188254153563597356e+03 9.771045652201840737e-01 2.586474598592054027e-03
4.192442407717161586e+03 9.776994732154634660e-01 2.558227145681028596e-03
4.196634850124880359e+03 9.764929902997955269e-01 2.543350860577900385e-03
4.200831484975006788e+03 9.714894212531380857e-01 2.750904542924303801e-03
4.205032316459983122e+03 9.647770917893542242e-01 2.955720010981134193e-03
4.209237348776444378e+03 9.586871371590250934e-01 2.944003517331301653e-03
4.213446586125221984e+03 9.524676386299467667e-01 2.932958214843058107e-03
4.217660032711349231e+03 9.447156714090381158e-01 3.062704139623900410e-03
4.221877692744061278e+03 9.366337266638087300e-01 2.892035206375783048e-03
4.226099570436806971e+03 9.305223282861438960e-01 2.677792521321314262e-03
4.230325670007245208e+03 9.256005099978652506e-01 2.262894324634098352e-03
4.234555995677254032e+03 9.253019712841857869e-01 2.534345023295949285e-03
4.238790551672932452e+03 9.246167768685101818e-01 2.395526348614407559e-03
4.243029342224606808e+03 9.238840172219090485e-01 2.232960999268294826e-03
4.247272371566832589e+03 9.211616300533487234e-01 2.220604994337900800e-03
4.251519643938400804e+03 9.181269244594615353e-01 2.903564909721963530e-03
4.255771163582340705e+03 9.129236010405522572e-01 2.481290589884124331e-03
4.260026934745924336e+03 9.036427863380782632e-01 2.708473101803051970e-03
4.264286961680671993e+03 8.923357389279056306e-01 2.819419436658235269e-03
4.268551248642354039e+03 8.795211781895679870e-01 2.886325728278084889e-03
4.272819799890998183e+03 8.656506997745704313e-01 2.878131042381528327e-03
4.277092619690890388e+03 8.502616658025486940e-01 3.529111432874927016e-03
4.281369712310583054e+03 8.352264508589176684e-01 3.062722797639860339e-03
4.285651082022895025e+03 8.231382919166640999e-01 2.477325016186921434e-03
4.289936733104918858e+03 8.157770058577396011e-01 3.364404740342339609e-03
4.294226669838025373e+03 8.095856783500899878e-01 3.226552288695234538e-03
4.298520896507864563e+03 8.044398276223407862e-01 3.200975745904840065e-03
4.302819417404373780e+03 8.008408149799205455e-01 3.243084628768345360e-03
4.307122236821779552e+03 7.998091779103889687e-01 3.212089348058108380e-03
4.311429359058603040e+03 8.005347721418861751e-01 3.253986641575324062e-03
4.315740788417662770e+03 8.024373179383551546e-01 3.101318451917894643e-03
4.320056529206081905e+03 8.034080888263311904e-01 3.094724970202768037e-03
4.324376585735290064e+03 8.042231824713730326e-01 3.103197793244776102e-03
4.328700962321026054e+03 8.042785768756283149e-01 3.071559821575569477e-03
4.333029663283348782e+03 8.062433083116395949e-01 2.897946479214019364e-03
4.337362692946633615e+03 8.050203525263587290e-01 2.998246766398922607e-03
4.341700055639581478e+03 8.023300768096306435e-01 3.309512593077585871e-03
4.346041755695222491e+03 8.014217769541274183e-01 3.367695470728387670e-03
4.350387797450919606e+03 8.016182772838262860e-01 3.362774109844584181e-03
4.354738185248371337e+03 8.024038283043587461e-01 3.366970105506593858e-03
4.359092923433621763e+03 8.019325023943008057e-01 2.735177039440677815e-03
4.363452016357056891e+03 8.047696531208069493e-01 2.372380984726665549e-03
4.367815468373414660e+03 8.112157668905355390e-01 2.882667672998208159e-03
4.372183283841789489e+03 8.202982869197635862e-01 2.343214561149022795e-03
4.376555467125633186e+03 8.285099305161462979e-01 2.254319626481083444e-03
4.380932022592760404e+03 8.380222804878889598e-01 2.136607463335565664e-03
4.385312954615354101e+03 8.467026751672038776e-01 2.207503621818129088e-03
4.389698267569970994e+03 8.562481715796022019e-01 2.231175869208210788e-03
4.394087965837542470e+03 8.665611527845599182e-01 2.235001436864380957e-03
4.398482053803381859e+03 8.760667051340376155e-01 2.189141551796557582e-03
4.402880535857186260e+03 8.855472920484365185e-01 2.126945778525088891e-03
4.407283416393044718e+03 8.949161760862882620e-01 2.095712389065800419e-03
4.411690699809440048e+03 9.050800867257435822e-01 2.088663950096011131e-03
4.416102390509250654e+03 9.170141317509165058e-01 1.813479738644575194e-03
4.420518492899761441e+03 9.272269747136340223e-01 1.801310325981618629e-03
4.424939011392662906e+03 9.367028076818488813e-01 1.856088922323773224e-03
4.429363950404056595e+03 9.478504388257976698e-01 1.841114369696423897e-03
4.433793314354462382e+03 9.586007472031113918e-01 1.865232387668531479e-03
4.438227107668818462e+03 9.693257190833197701e-01 1.875286913650819594e-03
4.442665334776488635e+03 9.796510036408495603e-01 1.408785564292381340e-03
4.447108000111265937e+03 9.918623472296611565e-01 1.394519546436546499e-03
4.451555108111379013e+03 1.005803819360295837e+00 1.343450043531162121e-03
4.456006663219492111e+03 1.020469683399676253e+00 1.342095124579232744e-03
4.460462669882713271e+03 1.035945257153185084e+00 1.266729722971487657e-03
4.464923132552597053e+03 1.053448529142553713e+00 1.249496630320234272e-03
4.469388055685150903e+03 1.071000649924019221e+00 1.165862877361305283e-03
4.473857443740837880e+03 1.090097556207816121e+00 1.382378212667691045e-03
4.478331301184580298e+03 1.110238842014648286e+00 1.384207190571117192e-03
4.482809632485766087e+03 1.129269708575057596e+00 1.274444947290109646e-03
4.487292442118253348e+03 1.147838787848041164e+00 1.188303368394817185e-03
4.491779734560373072e+03 1.164487515072219814e+00 1.674721809188805914e-03
4.496271514294934605e+03 1.181863615557509517e+00 1.670569784173880348e-03
4.500767785809231100e+03 1.199452360328743028e+00 1.692046645665483970e-03
4.505268553595042249e+03 1.215886237730447572e+00 1.685868235816579460e-03
4.509773822148638828e+03 1.231419895693687927e+00 1.688807161454113819e-03
4.514283595970789065e+03 1.246902285304119840e+00 1.596496720419940266e-03
4.518797879566761367e+03 1.260510506852049462e+00 1.801037764312583616e-03
4.523316677446328868e+03 1.274944541974846413e+00 1.814723079625516107e-03
4.527839994123776705e+03 1.288808067576353356e+00 2.214526233416359673e-03
4.532367834117902021e+03 1.303468354925172434e+00 2.368319890409558391e-03
4.536900201952022144e+03 1.319389397884232817e+00 2.315078631977838478e-03
4.541437102153975502e+03 1.335971031185151814e+00 2.204357724011046966e-03
4.545978539256130716e+03 1.353236093348652025e+00 2.415775525619293963e-03
4.550524517795388419e+03 1.370537005495457095e+00 3.087443571997349704e-03
4.555075042313184895e+03 1.385807713068901492e+00 3.369778814199908372e-03
4.559630117355500261e+03 1.399345567345872121e+00 3.190197439991822141e-03
4.564189747472856652e+03 1.408991193890886340e+00 2.434452955535066580e-03
4.568753937220330954e+03 1.413981524098082643e+00 1.928974590389547546e-03
4.573322691157552981e+03 1.413306551299634117e+00 1.674620086354434165e-03
4.577896013848711846e+03 1.405300116276134492e+00 1.803982935910813240e-03
4.582473909862562323e+03 1.392604887746470066e+00 2.032965584179519721e-03
4.587056383772426670e+03 1.375804669518586820e+00 1.888818787998345836e-03
4.591643440156200086e+03 1.355861668100629691e+00 1.418944713458963024e-03
4.596235083596357981e+03 1.333955934799575305e+00 1.302358162114557660e-03
4.600831318679955984e+03 1.310866358216458805e+00 1.193764816919180459e-03
4.605432149998637215e+03 1.287179002600667310e+00 1.384067286950311929e-03
4.610037582148637739e+03 1.263496977938554755e+00 1.115882603159403181e-03
4.614647619730787483e+03 1.238046564788828130e+00 1.257002257911738309e-03
4.619262267350520233e+03 1.213227646245492064e+00 1.254848117053083186e-03
4.623881529617872729e+03 1.188516875854467525e+00 1.364079580594464679e-03
4.628505411147491941e+03 1.164358569478062488e+00 1.428026486177233012e-03
4.633133916558640522e+03 1.142569285080513808e+00 1.479657431446358999e-03
4.637767050475200449e+03 1.122139845996740659e+00 1.481063944666442637e-03
4.642404817525677572e+03 1.102455487155732161e+00 1.451911075890906580e-03
4.647047222343205249e+03 1.084751910764154115e+00 1.771797883621126658e-03
4.651694269565549803e+03 1.067622564890713832e+00 2.138649631231895158e-03
4.656345963835116891e+03 1.051625889871879993e+00 2.025865940412656559e-03
4.661002309798953320e+03 1.035330113421179199e+00 1.635220352731366848e-03
4.665663312108753416e+03 1.017903078516680493e+00 1.981269572442137007e-03
4.670328975420864481e+03 1.000283082588299344e+00 2.773604472242024391e-03
4.674999304396286789e+03 9.844107986909679253e-01 2.796005071600383887e-03
4.679674303700684504e+03 9.699240213679299893e-01 2.619445282997982880e-03
4.684353978004386590e+03 9.569953696423431078e-01 2.429271815568920332e-03
4.689038331982392265e+03 9.463734267148231627e-01 2.790775214992775866e-03
4.693727370314376458e+03 9.375918326743628572e-01 2.829295416739765860e-03
4.698421097684692540e+03 9.297236549700202968e-01 2.743174843137759396e-03
4.703119518782378691e+03 9.227232535018784487e-01 3.090568389918933213e-03
4.707822638301162442e+03 9.191156800381172776e-01 3.104418361828748234e-03
4.712530460939465229e+03 9.170973335402757831e-01 3.172183535960964706e-03
4.717242991400406027e+03 9.172835533602091695e-01 3.095234048814354127e-03
4.721960234391808626e+03 9.199797958093501871e-01 3.070415176175791353e-03
4.726682194626201635e+03 9.238282128082669908e-01 2.810764991635900881e-03
4.731408876820829391e+03 9.298718247034813977e-01 2.690050725215597897e-03
4.736140285697651962e+03 9.388113249498016843e-01 3.340138229460344697e-03
4.740876425983350600e+03 9.484305891131885602e-01 3.436669008713337178e-03
4.745617302409335934e+03 9.575430997157124979e-01 2.759024381483940903e-03
4.750362919711747054e+03 9.642902768787813272e-01 1.728281981138607773e-03
4.755113282631459697e+03 9.667384043378932645e-01 1.847140576732747216e-03
4.759868395914093526e+03 9.654328854690115147e-01 1.885572161334660764e-03
