# starting wavelength: 3652.500
# ending wavelength: 7397.140
# wav flux eflux
3.655935210469810499e+03 5.230849040358823698e-01 2.012189949620803164e-02
3.659591145680281443e+03 5.590796766954834185e-01 1.469861883512927833e-02
3.663250736825963031e+03 5.807106107404366169e-01 1.379394329748282431e-02
3.666913987562790226e+03 5.921256606540054035e-01 1.237221781351958809e-02
3.670580901550354156e+03 5.979407430325673900e-01 1.082920927632695721e-02
3.674251482451905758e+03 6.010018143688680148e-01 9.380549671754098706e-03
3.677925733934358959e+03 6.029039291120098509e-01 8.190618893907675516e-03
3.681603659668294313e+03 6.053998075725419703e-01 6.559704486010549916e-03
3.685285263327964003e+03 6.067658559215818315e-01 5.672183359792878563e-03
3.688970548591293209e+03 6.086027569201906129e-01 5.600974725582922621e-03
3.692659519139885560e+03 6.106877736723681505e-01 5.056718378847870586e-03
3.696352178659026777e+03 6.120089013970405611e-01 4.487689809276067601e-03
3.700048530837686940e+03 6.124277466939326287e-01 4.050570911332256920e-03
3.703748579368525952e+03 6.113075366735813976e-01 3.805576975779771404e-03
3.707452327947895355e+03 6.105461860937911878e-01 3.551321664567621064e-03
3.711159780275844696e+03 6.080265281312775549e-01 3.501588998969747124e-03
3.714870940056121526e+03 6.052488134322071556e-01 3.502210210464184233e-03
3.718585810996179134e+03 6.027005053478874386e-01 3.505676351970452454e-03
3.722304396807176545e+03 6.020552580962129641e-01 3.530547827103954536e-03
3.726026701203984885e+03 6.010700356653967402e-01 3.562208212790820422e-03
3.729752727905190113e+03 6.008736643396346278e-01 3.597994491603967362e-03
3.733482480633096657e+03 6.014775708489668027e-01 3.613750684754441726e-03
3.737215963113731050e+03 6.022167072323129089e-01 3.556962582729667789e-03
3.740953179076846027e+03 6.035859734906354745e-01 3.279288884651612810e-03
3.744694132255923705e+03 6.072967163786637812e-01 3.510129975193051165e-03
3.748438826388181042e+03 6.116157209807586703e-01 3.816534147756706508e-03
3.752187265214570289e+03 6.169594839187785285e-01 4.169156104972340966e-03
3.755939452479786269e+03 6.219664207805124523e-01 4.237819319083256653e-03
3.759695391932267285e+03 6.267914583642959503e-01 4.356209705729230906e-03
3.763455087324201031e+03 6.325622045713683583e-01 4.419332963031658533e-03
3.767218542411526414e+03 6.394916570617105167e-01 4.352822626348567744e-03
3.770985760953939007e+03 6.473141500984574970e-01 3.949444179216563336e-03
3.774756746714894234e+03 6.561675357098269989e-01 3.194650933266045007e-03
3.778531503461610555e+03 6.625837028185835864e-01 3.066380011252614786e-03
3.782310034965073100e+03 6.677463978705252545e-01 3.447334176796983552e-03
3.786092345000039586e+03 6.735049626830009739e-01 3.490960351624017213e-03
3.789878437345040766e+03 6.782712129151970970e-01 3.448693357124288546e-03
3.793668315782387253e+03 6.832266356085314740e-01 3.635012978941419646e-03
3.797461984098170888e+03 6.889852379964349627e-01 3.516202959120131363e-03
3.801259446082270188e+03 6.932395501108767899e-01 3.706256998205366242e-03
3.805060705528353537e+03 7.001975085743094018e-01 3.205301162549334046e-03
3.808865766233883278e+03 7.092461356971018205e-01 2.974630305742193958e-03
3.812674632000118436e+03 7.211281508384337346e-01 3.501988187328616310e-03
3.816487306632119726e+03 7.336508465358673181e-01 3.536857919254610388e-03
3.820303793938753188e+03 7.464843750479484008e-01 3.679987125849169642e-03
3.824124097732693372e+03 7.608636546168975334e-01 4.053328238887025751e-03
3.827948221830427428e+03 7.782373982719662520e-01 4.109071013371595228e-03
3.831776170052258749e+03 7.989689061592627484e-01 4.002715121690215636e-03
3.835607946222312421e+03 8.201759793284415512e-01 4.136737988417558444e-03
3.839443554168536139e+03 8.432317425820456958e-01 4.145047795415707920e-03
3.843282997722705659e+03 8.682245492331835957e-01 4.417266570296831014e-03
3.847126280720429804e+03 8.943085892041744422e-01 5.169827133566689062e-03
3.850973407001151372e+03 9.189997403894230033e-01 5.272688646041426286e-03
3.854824380408153957e+03 9.425886518388240098e-01 5.269178618221541030e-03
3.858679204788563311e+03 9.655775850082076728e-01 5.259065689551810016e-03
3.862537883993353262e+03 9.885655594247588773e-01 5.064586299144756970e-03
3.866400421877347981e+03 1.009880232008647960e+00 5.065140975503755125e-03
3.870266822299226533e+03 1.030896085009305851e+00 5.078154542330905533e-03
3.874137089121526969e+03 1.048945455991916242e+00 5.287189266151422380e-03
3.878011226210649966e+03 1.066575078500424212e+00 5.435800512394163737e-03
3.881889237436861549e+03 1.080858623195551038e+00 5.367234483261425909e-03
3.885771126674299921e+03 1.091961869954188424e+00 5.551755408717338851e-03
3.889656897800975457e+03 1.099111325652348370e+00 5.544663242015672282e-03
3.893546554698777527e+03 1.103320675179290111e+00 5.634306170471417748e-03
3.897440101253477678e+03 1.106823446698260272e+00 5.630073055404793796e-03
3.901337541354732366e+03 1.106474133350534572e+00 5.547838059842337063e-03
3.905238878896088409e+03 1.103518158124060067e+00 5.253909307799108433e-03
3.909144117774985716e+03 1.099444906546147349e+00 5.124986838408262732e-03
3.913053261892762293e+03 1.095326524772017862e+00 5.158511031103634598e-03
3.916966315154656058e+03 1.090776372135326744e+00 4.738883865096463373e-03
3.920883281469812118e+03 1.085543463280735255e+00 4.243785705676484180e-03
3.924804164751283224e+03 1.073821219543941607e+00 4.354595400396244972e-03
3.928728968916035683e+03 1.060450542291519360e+00 4.104706297378286559e-03
3.932657697884953450e+03 1.049466782645756657e+00 3.981463871443892064e-03
3.936590355582839493e+03 1.038604273482983231e+00 4.105055863540106424e-03
3.940526945938423523e+03 1.028202047180218681e+00 4.481671538401040336e-03
3.944467472884363360e+03 1.019352769490925015e+00 4.458248710860509938e-03
3.948411940357249023e+03 1.009379869637398119e+00 3.900824621230181231e-03
3.952360352297607733e+03 9.967065609846653684e-01 4.055265102338567046e-03
3.956312712649906643e+03 9.832034217067106008e-01 4.323544524691709696e-03
3.960269025362557841e+03 9.685530979626716386e-01 4.392608298075995413e-03
3.964229294387921527e+03 9.555581035292997072e-01 4.283702617478330962e-03
3.968193523682310570e+03 9.460114150527332288e-01 4.568294358452298747e-03
3.972161717205994591e+03 9.352396601497370288e-01 4.386415506310342889e-03
3.976133878923201792e+03 9.227719594202034026e-01 4.745741525190056743e-03
3.980110012802126221e+03 9.120668422418077848e-01 4.861606287819571215e-03
3.984090122814929600e+03 9.026740024979508226e-01 4.829256893787254798e-03
3.988074212937745870e+03 8.954782343309808379e-01 4.740632531957174323e-03
3.992062287150684824e+03 8.930286201236339316e-01 5.146338895500254113e-03
3.996054349437837118e+03 8.915941840636573135e-01 5.379658457997323930e-03
4.000050403787276082e+03 8.947734173353871778e-01 5.032161355775506550e-03
4.004050454191064546e+03 8.975913395989884025e-01 4.965088463499073637e-03
4.008054504645257111e+03 9.015085042174881824e-01 5.003982432510064790e-03
4.012062559149903791e+03 9.058311304864351543e-01 4.822495849078199670e-03
4.016074621709055009e+03 9.094938216042209866e-01 4.604847431181194502e-03
4.020090696330765240e+03 9.157281777078265517e-01 4.778268610195606295e-03
4.024110787027097558e+03 9.245947948855062215e-01 5.082303421279770438e-03
4.028134897814125907e+03 9.363959845873439658e-01 5.169305514161832808e-03
4.032163032711941469e+03 9.490602160239709484e-01 5.481696703227376816e-03
4.036195195744654484e+03 9.563149757944459095e-01 5.329962808630677763e-03
4.040231390940400615e+03 9.617166200981568380e-01 5.542221462265396921e-03
4.044271622331342314e+03 9.689438387589824897e-01 5.488608027927882084e-03
4.048315893953675186e+03 9.772680376526452495e-01 5.413872105508510044e-03
4.052364209847629809e+03 9.874881024380860461e-01 4.856137737590273534e-03
4.056416574057479011e+03 9.935675723839070272e-01 4.883844151691513549e-03
4.060472990631537868e+03 9.976978972717114313e-01 4.676869507074657602e-03
4.064533463622170530e+03 1.001574285069448011e+00 4.644388898880281134e-03
4.068597997085794304e+03 1.003691641481061714e+00 4.622303295739261554e-03
4.072666595082881486e+03 1.006471046834800154e+00 4.340101408460251588e-03
4.076739261677965715e+03 1.006002019428527294e+00 4.330467703259457783e-03
4.080816000939644709e+03 1.004802737371577770e+00 4.048582976405750745e-03
4.084896816940585722e+03 9.992335437454727964e-01 4.369735146296701775e-03
4.088981713757527814e+03 9.925092797393020305e-01 4.458570807764111049e-03
4.093070695471286854e+03 9.854399401753611842e-01 4.426399131301631158e-03
4.097163766166759160e+03 9.742374080273471515e-01 3.819603348451380137e-03
4.101260929932927866e+03 9.621047683854603294e-01 2.848500617905240766e-03
4.105362190862862008e+03 9.533918362368348776e-01 3.159509887825514510e-03
4.109467553053726078e+03 9.445392109415274851e-01 2.338983111623637191e-03
4.113577020606780934e+03 9.338858945729783256e-01 2.304540801980470201e-03
4.117690597627389252e+03 9.213310107644926417e-01 2.292358430908301211e-03
4.121808288225018259e+03 9.119798638333643792e-01 2.424955780712472874e-03
4.125930096513244280e+03 9.008896581353538213e-01 2.500780262303021074e-03
4.130056026609759101e+03 8.918437281165459973e-01 2.493666660472659922e-03
4.134186082636369974e+03 8.809856204327218832e-01 2.647038279408291638e-03
4.138320268719007800e+03 8.711886784415923124e-01 3.109587347335186682e-03
4.142458588987728035e+03 8.648161479644068672e-01 3.376498989522805621e-03
4.146601047576717065e+03 8.616895747623992685e-01 3.212325956572915312e-03
4.150747648624294925e+03 8.635500516137113447e-01 3.400821216507286110e-03
4.154898396272920763e+03 8.688378496856113964e-01 3.886730536320711932e-03
4.159053294669195566e+03 8.755947177372350732e-01 3.917738053710376027e-03
4.163212347963865795e+03 8.816979127169866093e-01 4.076044160736390365e-03
4.167375560311830668e+03 8.896984705266287596e-01 5.087313361893512111e-03
4.171542935872143971e+03 8.942992662360894629e-01 4.680201434808944211e-03
4.175714478808017702e+03 8.948649675289622740e-01 4.408034395129743072e-03
4.179890193286827525e+03 8.898270012312332611e-01 4.100243530212675791e-03
4.184070083480115500e+03 8.788397200696886902e-01 6.452027570322740359e-03
4.188254153563597356e+03 8.646975385890085519e-01 7.572693295744804647e-03
4.192442407717161586e+03 8.509800477267902563e-01 7.245966001568202551e-03
4.196634850124880359e+03 8.388777387179496836e-01 5.665660581487687308e-03
4.200831484975006788e+03 8.334556487710481631e-01 5.862986120684034533e-03
4.205032316459983122e+03 8.300696244941485613e-01 6.022843162286634598e-03
4.209237348776444378e+03 8.332940604041070287e-01 6.764141283457386460e-03
4.213446586125221984e+03 8.365491060782377364e-01 6.690223753445958751e-03
4.217660032711349231e+03 8.395979180317145740e-01 6.203559866635840331e-03
4.221877692744061278e+03 8.415935916667048877e-01 5.904641795406055660e-03
4.226099570436806971e+03 8.428381484610439900e-01 5.982080941187591268e-03
4.230325670007245208e+03 8.439240183255687366e-01 6.229453921601693644e-03
4.234555995677254032e+03 8.434738530197614104e-01 6.307481401135670886e-03
4.238790551672932452e+03 8.414911725073692672e-01 5.263743794281644343e-03
4.243029342224606808e+03 8.408468755861410182e-01 4.149757284565529572e-03
4.247272371566832589e+03 8.445164347753664202e-01 5.214921238393582618e-03
4.251519643938400804e+03 8.476585959843496720e-01 5.374522647757220759e-03
4.255771163582340705e+03 8.536807309947169742e-01 4.103999483686731828e-03
4.260026934745924336e+03 8.561977495628618762e-01 4.727805734580836985e-03
4.264286961680671993e+03 8.568266866329419251e-01 5.881058108141953497e-03
4.268551248642354039e+03 8.588002167568190570e-01 6.247817277719351116e-03
4.272819799890998183e+03 8.622883366994621435e-01 5.745518440286544876e-03
4.277092619690890388e+03 8.672312431049210568e-01 5.868669977184434033e-03
4.281369712310583054e+03 8.734089327944368764e-01 7.550235509015497046e-03
4.285651082022895025e+03 8.762554092300989250e-01 9.213393277167506237e-03
4.289936733104918858e+03 8.757272687764182661e-01 9.182444330608731040e-03
4.294226669838025373e+03 8.666221095859211188e-01 8.050040019443161984e-03
4.298520896507864563e+03 8.474929483362918514e-01 7.779748036880637825e-03
4.302819417404373780e+03 8.205212887485525686e-01 8.829304200932695454e-03
4.307122236821779552e+03 7.882653572029357791e-01 9.647568704662226602e-03
4.311429359058603040e+03 7.506903589957557577e-01 1.033491718262594290e-02
4.315740788417662770e+03 7.129115717646838934e-01 9.466264816944127206e-03
4.320056529206081905e+03 6.799657771502456427e-01 6.767010136477756566e-03
4.324376585735290064e+03 6.581020828631715114e-01 5.200914777321448586e-03
4.328700962321026054e+03 6.484414568085203889e-01 6.318865167200219714e-03
4.333029663283348782e+03 6.485534399771513137e-01 6.856218617660603948e-03
4.337362692946633615e+03 6.578776633113290195e-01 5.010467668424425404e-03
4.341700055639581478e+03 6.713859840329226003e-01 4.256578420627359777e-03
4.346041755695222491e+03 6.905508376702939044e-01 3.687383002477750450e-03
4.350387797450919606e+03 7.086332482028089297e-01 3.486048003637247893e-03
4.354738185248371337e+03 7.284010940953806745e-01 4.307078039152323519e-03
4.359092923433621763e+03 7.450353946432627383e-01 4.371362147487884049e-03
4.363452016357056891e+03 7.591878481686762381e-01 4.351652979222013495e-03
4.367815468373414660e+03 7.701565521701012607e-01 4.592249417960320504e-03
4.372183283841789489e+03 7.799117849844195982e-01 4.727709248835081091e-03
4.376555467125633186e+03 7.877071597297243821e-01 4.843635383603672913e-03
4.380932022592760404e+03 7.925341335314277647e-01 4.712815629343214234e-03
4.385312954615354101e+03 7.998405036745589447e-01 4.596953948693335672e-03
4.389698267569970994e+03 8.087459031362591588e-01 4.603587090759777428e-03
4.394087965837542470e+03 8.170947916430356672e-01 4.518113265038245507e-03
4.398482053803381859e+03 8.281908347426907291e-01 4.000224325302008561e-03
4.402880535857186260e+03 8.442412181781862035e-01 3.634676245747329917e-03
4.407283416393044718e+03 8.671089851554668604e-01 4.113319040356438507e-03
4.411690699809440048e+03 8.931676157852654896e-01 4.137801855130109931e-03
4.416102390509250654e+03 9.199019300513088249e-01 3.981021504371354096e-03
4.420518492899761441e+03 9.442899228022854086e-01 3.914992901528917442e-03
4.424939011392662906e+03 9.673403584115811693e-01 3.857033203437989707e-03
4.429363950404056595e+03 9.900321887377818708e-01 3.649232065718883544e-03
4.433793314354462382e+03 1.008975993401881155e+00 3.626650023858800278e-03
4.438227107668818462e+03 1.028307590532391291e+00 2.835214635650002216e-03
4.442665334776488635e+03 1.042146686312931392e+00 3.595950390049547883e-03
4.447108000111265937e+03 1.054147872004506548e+00 4.703650111042398559e-03
4.451555108111379013e+03 1.065311819555231354e+00 4.580757048371533746e-03
4.456006663219492111e+03 1.080108341167997033e+00 4.000935490627658894e-03
4.460462669882713271e+03 1.098215919509550442e+00 3.587266161080642293e-03
4.464923132552597053e+03 1.119438856077415334e+00 3.406786918607308898e-03
4.469388055685150903e+03 1.145440592700474269e+00 3.298408242356820445e-03
4.473857443740837880e+03 1.174612411358051611e+00 3.528104968558196976e-03
4.478331301184580298e+03 1.204076116613086000e+00 3.956495334788398370e-03
4.482809632485766087e+03 1.232622692953344146e+00 4.029857568689812659e-03
4.487292442118253348e+03 1.260064100455201341e+00 3.853676145038441216e-03
4.491779734560373072e+03 1.284918129041530133e+00 3.220083539952403422e-03
4.496271514294934605e+03 1.306381588719993436e+00 2.790979878491647772e-03
4.500767785809231100e+03 1.321619592902731899e+00 3.179461387037578815e-03
4.505268553595042249e+03 1.331274742682768464e+00 3.312878077322853419e-03
4.509773822148638828e+03 1.336590916290856912e+00 2.920092968631236418e-03
4.514283595970789065e+03 1.341891918533651085e+00 2.656524928793021611e-03
4.518797879566761367e+03 1.346989730640303584e+00 3.557813413506802531e-03
4.523316677446328868e+03 1.347999226509110526e+00 3.566674471254440565e-03
4.527839994123776705e+03 1.346498201928053584e+00 3.740017396408612960e-03
4.532367834117902021e+03 1.343789340398777732e+00 3.961976575868504657e-03
4.536900201952022144e+03 1.342496006841922274e+00 3.862280989513577900e-03
4.541437102153975502e+03 1.342048555808759591e+00 3.904581821699395008e-03
4.545978539256130716e+03 1.343331875790364505e+00 4.026014340565498180e-03
4.550524517795388419e+03 1.343746122367367235e+00 4.006063472653862041e-03
4.555075042313184895e+03 1.344056461734862706e+00 4.022581440145930887e-03
4.559630117355500261e+03 1.345595467042573823e+00 4.322616185550893705e-03
4.564189747472856652e+03 1.345325547664456778e+00 4.223643622221342174e-03
4.568753937220330954e+03 1.343123576602180069e+00 4.145500125089496800e-03
4.573322691157552981e+03 1.339088404213630179e+00 3.995387123859561913e-03
4.577896013848711846e+03 1.332189962038659248e+00 4.098879843822253975e-03
4.582473909862562323e+03 1.324225336360204341e+00 3.990054442445735254e-03
4.587056383772426670e+03 1.311764387493901118e+00 3.815237818541625508e-03
4.591643440156200086e+03 1.297229962786329294e+00 3.487462612913214740e-03
4.596235083596357981e+03 1.280046886457484767e+00 3.112503086725820940e-03
4.600831318679955984e+03 1.263571102620661968e+00 3.185330996746262890e-03
4.605432149998637215e+03 1.245199811943633161e+00 2.382046466811004425e-03
4.610037582148637739e+03 1.222457197473360679e+00 3.185448696487497029e-03
4.614647619730787483e+03 1.200598473178408065e+00 3.249508760258312378e-03
4.619262267350520233e+03 1.178251240915211273e+00 3.140834893882214242e-03
4.623881529617872729e+03 1.156852956020512302e+00 3.347718512435568332e-03
4.628505411147491941e+03 1.132664305642640423e+00 3.250116366994119932e-03
4.633133916558640522e+03 1.110607680850888679e+00 3.265952578603319254e-03
4.637767050475200449e+03 1.087566341407686377e+00 3.166066459545435058e-03
4.642404817525677572e+03 1.066322731118117595e+00 3.218447398395616558e-03
4.647047222343205249e+03 1.046119597046188732e+00 2.978610535620749601e-03
4.651694269565549803e+03 1.025714975088703573e+00 3.101355814159116077e-03
4.656345963835116891e+03 1.007537969151164337e+00 3.050239561989163267e-03
4.661002309798953320e+03 9.894531387001060940e-01 3.070685596285780816e-03
4.665663312108753416e+03 9.715151588307028296e-01 2.946296098488417232e-03
4.670328975420864481e+03 9.559752665916855241e-01 2.793580597649410798e-03
4.674999304396286789e+03 9.434245259887162893e-01 2.771119159997261373e-03
4.679674303700684504e+03 9.339659980968443298e-01 2.850535375400438994e-03
4.684353978004386590e+03 9.269070596867207135e-01 2.650667767742856482e-03
4.689038331982392265e+03 9.225785251551581467e-01 2.196611329747143876e-03
4.693727370314376458e+03 9.177354068091119199e-01 2.417650896803989063e-03
4.698421097684692540e+03 9.145490698764293658e-01 2.104275923188143622e-03
4.703119518782378691e+03 9.139065502221677129e-01 2.159505764030717530e-03
4.707822638301162442e+03 9.146469355731501327e-01 2.119253671650576931e-03
4.712530460939465229e+03 9.163525669162251308e-01 2.011240776096391656e-03
4.717242991400406027e+03 9.172516659980335385e-01 1.766951937453421643e-03
4.721960234391808626e+03 9.202355734476684868e-01 2.049329916983731043e-03
4.726682194626201635e+03 9.224936086040513850e-01 2.372782041770375716e-03
4.731408876820829391e+03 9.235889364413448765e-01 2.134259074179201306e-03
4.736140285697651962e+03 9.227047174022769971e-01 2.089741311589169825e-03
4.740876425983350600e+03 9.196313895448722242e-01 2.121257850896091958e-03
4.745617302409335934e+03 9.157835609544822120e-01 2.316179548740755767e-03
4.750362919711747054e+03 9.099416853125991134e-01 2.854423625779356315e-03
4.755113282631459697e+03 9.042455337529660131e-01 2.477964975705063220e-03
4.759868395914093526e+03 8.994244753907909562e-01 2.153586632659568699e-03
