# starting wavelength: 3201.030
# ending wavelength: 9383.800
# wav flux eflux
3.204057220223369768e+03 5.942972085759877787e-01 1.514941967963855940e-01
3.207261277443593826e+03 5.071283931606808126e-01 1.156243064753661592e-01
3.210468538721038840e+03 4.387463900083700685e-01 8.934718580325869131e-02
3.213679007259760965e+03 3.931086130802579071e-01 6.992641231050715500e-02
3.216892686267021418e+03 3.687308437489724144e-01 5.544803235280296172e-02
3.220109578953289656e+03 3.636607082256851364e-01 4.559846156509680948e-02
3.223329688532243836e+03 3.646173943922962346e-01 4.311967949943672912e-02
3.226553018220777176e+03 3.651103580921363778e-01 3.707600674245712519e-02
3.229779571238999324e+03 3.653093227297108947e-01 3.307636865362660605e-02
3.233009350810239084e+03 3.653111524835583879e-01 2.968222523483608072e-02
3.236242360161050783e+03 3.688787523899365040e-01 2.633682439796517297e-02
3.239478602521212906e+03 3.736392956610493088e-01 2.380503727710257811e-02
3.242718081123734919e+03 3.762669758639743955e-01 2.217207081675089814e-02
3.245960799204859995e+03 3.790076492974678302e-01 2.092729845226008398e-02
3.249206760004065927e+03 3.856652394767086101e-01 2.002798255900945304e-02
3.252455966764071036e+03 3.892993329245207912e-01 1.930751019674244173e-02
3.255708422730835991e+03 3.941606063746015964e-01 1.863273165507797410e-02
3.258964131153567905e+03 3.982360869120295521e-01 1.817469611683778311e-02
3.262223095284722604e+03 4.045228985546516776e-01 1.766872123420114987e-02
3.265485318380008266e+03 4.108085194590536671e-01 1.770980048166282891e-02
3.268750803698389518e+03 4.129602527744010709e-01 1.747824057113296636e-02
3.272019554502088795e+03 4.169673583080252266e-01 1.756348299147152819e-02
3.275291574056592253e+03 4.121072853132450864e-01 1.621971956642860938e-02
3.278566865630649772e+03 4.066486566483613063e-01 1.606701117088149902e-02
3.281845432496281319e+03 4.042339556654583888e-01 1.604021713318375814e-02
3.285127277928778767e+03 3.984766581934558460e-01 1.661108748399170443e-02
3.288412405206708627e+03 4.014814776162842769e-01 1.568336166618432628e-02
3.291700817611916591e+03 4.046696475984555286e-01 1.570168852427266878e-02
3.294992518429529355e+03 4.080865629295493680e-01 1.637535020139862726e-02
3.298287510947960072e+03 4.151959958214366808e-01 1.665033987758351638e-02
3.301585798458909267e+03 4.202594754126145471e-01 1.704725291741519128e-02
3.304887384257369376e+03 4.270642746283715430e-01 1.631309081997320276e-02
3.308192271641627485e+03 4.363639973558071095e-01 1.572413184966621816e-02
3.311500463913270323e+03 4.502309564852950974e-01 1.506314125659083750e-02
3.314811964377184722e+03 4.634474950511041635e-01 1.409342600312843245e-02
3.318126776341563072e+03 4.833067957806927994e-01 1.393285540184401906e-02
3.321444903117905596e+03 5.077480684764528185e-01 1.532527097523478724e-02
3.324766348021024896e+03 5.341592292370621609e-01 1.670864764046053191e-02
3.328091114369046863e+03 5.637448143920196220e-01 1.740451764286648703e-02
3.331419205483417045e+03 5.942030509186052578e-01 1.678895283705239549e-02
3.334750624688901553e+03 6.273857504213491421e-01 1.552609480975436322e-02
3.338085375313591612e+03 6.589272199767649552e-01 1.413368250822646943e-02
3.341423460688906289e+03 6.835638653414670696e-01 1.413808208868801847e-02
3.344764884149596128e+03 7.052236420105884029e-01 1.267379108937379158e-02
3.348109649033746791e+03 7.153038653171716055e-01 1.213630070652085835e-02
3.351457758682781787e+03 7.181038200759789492e-01 1.213696585146360057e-02
3.354809216441465651e+03 7.155234587517518285e-01 1.250777451016441694e-02
3.358164025657908041e+03 7.070163633123857094e-01 1.283565166938794092e-02
3.361522189683567376e+03 6.888695667830713187e-01 1.297684613085000119e-02
3.364883711873251741e+03 6.658126506695438707e-01 1.251276189148703942e-02
3.368248595585126168e+03 6.354912348465671101e-01 1.182805322015934892e-02
3.371616844180712633e+03 6.013222358965084613e-01 1.055295040114504271e-02
3.374988461024894150e+03 5.652641742777194667e-01 8.668760705724906646e-03
3.378363449485920228e+03 5.285671210451681201e-01 8.120623361241195368e-03
3.381741812935407324e+03 4.932893910279096406e-01 7.775942066989112271e-03
3.385123554748343849e+03 4.589203935415306357e-01 7.708022756667311411e-03
3.388508678303093347e+03 4.289458798546610385e-01 8.016044474206873369e-03
3.391897186981397681e+03 4.038136631363036244e-01 8.023214373956744777e-03
3.395289084168380214e+03 3.838287070704084480e-01 8.003949864532493991e-03
3.398684373252549449e+03 3.666033057313891064e-01 7.877900660524076587e-03
3.402083057625803121e+03 3.522863738833725833e-01 7.577483552163007466e-03
3.405485140683430018e+03 3.430633094101951386e-01 7.546689763926448663e-03
3.408890625824114522e+03 3.388126229161075864e-01 7.727904696389672340e-03
3.412299516449939802e+03 3.425629618957014566e-01 7.810379245998164653e-03
3.415711815966390986e+03 3.522557563588264995e-01 9.278332834974466550e-03
3.419127527782358356e+03 3.669372557591336625e-01 1.100051516132975575e-02
3.422546655310141887e+03 3.826439663320010398e-01 1.247648068595056704e-02
3.425969201965453522e+03 4.001881906956232249e-01 1.268345045628554470e-02
3.429395171167419903e+03 4.165020975878111487e-01 1.147683387492691269e-02
3.432824566338588284e+03 4.331093087424193189e-01 1.062476220757971671e-02
3.436257390904928343e+03 4.490295127006059817e-01 1.093775889762776780e-02
3.439693648295834464e+03 4.581221030133572625e-01 1.119041819378783879e-02
3.443133341944131189e+03 4.652023888406250918e-01 1.117956716123288778e-02
3.446576475286076402e+03 4.690251125891434780e-01 1.051560092642443711e-02
3.450023051761363604e+03 4.659398307435785314e-01 1.208220187323963239e-02
3.453473074813126004e+03 4.596434097608630975e-01 1.354866726885657277e-02
3.456926547887940615e+03 4.521821191134584028e-01 1.432251687553470765e-02
3.460383474435829612e+03 4.334005427993211090e-01 1.246217356816387879e-02
3.463843857910266706e+03 4.188413880741156947e-01 1.157933239226900148e-02
3.467307701768178049e+03 4.074569827130314903e-01 1.136587854194523808e-02
3.470775009469947236e+03 3.977402412843655810e-01 1.073862202424555323e-02
3.474245784479418489e+03 3.922414938677757923e-01 1.098607102779266230e-02
3.477720030263898934e+03 3.873414786603392446e-01 1.125934428563665074e-02
3.481197750294164052e+03 3.842860497037806078e-01 1.154144594748094006e-02
3.484678948044459503e+03 3.823465843403294762e-01 1.172248629054314234e-02
3.488163626992504760e+03 3.837393079539182517e-01 1.207396793696459934e-02
3.491651790619498570e+03 3.851376416864897290e-01 1.226285066070302403e-02
3.495143442410119405e+03 3.851844991867238721e-01 1.173042649092983884e-02
3.498638585852530468e+03 3.864800125664159536e-01 1.053278324286364802e-02
3.502137224438384237e+03 3.880494042391363640e-01 9.923517484286091886e-03
3.505639361662823831e+03 3.855965920424837545e-01 9.807658563501998883e-03
3.509145001024487556e+03 3.803429500829949017e-01 9.878741936268939025e-03
3.512654146025513455e+03 3.708748969694593556e-01 9.491297066216295569e-03
3.516166800171540217e+03 3.585960979951178240e-01 8.709256833261472264e-03
3.519682966971712631e+03 3.469468389605521730e-01 8.677793146122141782e-03
3.523202649938685681e+03 3.337721498995745439e-01 9.040888430395268432e-03
3.526725852588625457e+03 3.194740641955156613e-01 8.901029479426050481e-03
3.530252578441215064e+03 3.064165820888869463e-01 8.989379920629118545e-03
3.533782831019657806e+03 2.897287378100907307e-01 8.520540329454802039e-03
3.537316613850678550e+03 2.758498477089179057e-01 8.554477150791023332e-03
3.540853930464530094e+03 2.657231067239329003e-01 8.110606476111869786e-03
3.544394784394995895e+03 2.562032674259180909e-01 8.609605881794844817e-03
3.547939179179392340e+03 2.472901535361021197e-01 8.730678340831828435e-03
3.551487118358572843e+03 2.408287209950919494e-01 7.745418073153279882e-03
3.555038605476932389e+03 2.392359439278060329e-01 7.638054218872708176e-03
3.558593644082410719e+03 2.434535649558110526e-01 7.732502723605321100e-03
3.562152237726494150e+03 2.510217065140292747e-01 7.996705373726147037e-03
3.565714389964221937e+03 2.573347329866569333e-01 7.934640866844765855e-03
3.569280104354187188e+03 2.706204934183515931e-01 9.200848108772559722e-03
3.572849384458542772e+03 2.867373372972790158e-01 9.858926753408547849e-03
3.576422233843002232e+03 3.040706417316303423e-01 9.965133983100251530e-03
3.579998656076846601e+03 3.207999360796399135e-01 9.899737183547873548e-03
3.583578654732924406e+03 3.370013335454776215e-01 9.093453566594725604e-03
3.587162233387658489e+03 3.490655325067097414e-01 8.008808589896663707e-03
3.590749395621047370e+03 3.575753692345242651e-01 8.101022639815720627e-03
3.594340145016669794e+03 3.598949734786734966e-01 8.899116093054885296e-03
3.597934485161687462e+03 3.615298978149934506e-01 8.842744790076070144e-03
3.601532419646850485e+03 3.597799453776503453e-01 8.235903254208747082e-03
3.605133952066498296e+03 3.581653208184065740e-01 8.074922583203254789e-03
3.608739086018566013e+03 3.553837310357835788e-01 7.718394965988866104e-03
3.612347825104585809e+03 3.539849425818461515e-01 7.278062843783621172e-03
3.615960172929691907e+03 3.522880138344511303e-01 6.610691896391837630e-03
3.619576133102622407e+03 3.496220740984510300e-01 6.330986383308328039e-03
3.623195709235726554e+03 3.534033393802758494e-01 6.299133497653263379e-03
3.626818904944963379e+03 3.640264290506364797e-01 5.172879748668695633e-03
3.630445723849909427e+03 3.730171435881486919e-01 5.258515750109183165e-03
3.634076169573760581e+03 3.852736407180252787e-01 5.674609667646476896e-03
3.637710245743335690e+03 3.997747407244014450e-01 6.702471415504821298e-03
3.641347955989080219e+03 4.136683112473860113e-01 6.946387883445486952e-03
3.644989303945070333e+03 4.259860849044557196e-01 7.076289173001005378e-03
3.648634293249016537e+03 4.351787362515796564e-01 7.545520157050155871e-03
3.652282927542266862e+03 4.412201114781911793e-01 7.474202351772234708e-03
3.655935210469810499e+03 4.426143911377343199e-01 7.475316598588754163e-03
3.659591145680281443e+03 4.424647689110985382e-01 7.290678735171551329e-03
3.663250736825963031e+03 4.377171736366809451e-01 7.814529192980059630e-03
3.666913987562790226e+03 4.322148823046135235e-01 8.056676506968623794e-03
3.670580901550354156e+03 4.244619703659615606e-01 8.515931737308666399e-03
3.674251482451905758e+03 4.144281576947868584e-01 8.055040612000068101e-03
3.677925733934358959e+03 4.036338351024941207e-01 7.425384590657496155e-03
3.681603659668294313e+03 3.935642564960826206e-01 6.777098275655747857e-03
3.685285263327964003e+03 3.855593949239111695e-01 5.818792658976666352e-03
3.688970548591293209e+03 3.814844490739816019e-01 6.053483166988123110e-03
3.692659519139885560e+03 3.801876959328868710e-01 5.984603412767805844e-03
3.696352178659026777e+03 3.838193170604791704e-01 5.996753881268771132e-03
3.700048530837686940e+03 3.924308064468005619e-01 5.912094123527916745e-03
3.703748579368525952e+03 4.061308006366934342e-01 4.976140007332921153e-03
3.707452327947895355e+03 4.183423093005864124e-01 5.156131744884672602e-03
3.711159780275844696e+03 4.279243110938725225e-01 6.370579082265701541e-03
3.714870940056121526e+03 4.326073516215980796e-01 6.645234637794959938e-03
3.718585810996179134e+03 4.326896758151106970e-01 6.187411277354136485e-03
3.722304396807176545e+03 4.272962209453854965e-01 6.926033354651727966e-03
3.726026701203984885e+03 4.192781542889293944e-01 6.986416274783122105e-03
3.729752727905190113e+03 4.075796349920033368e-01 6.955902265697543746e-03
3.733482480633096657e+03 3.959092674843916471e-01 6.879230636499675082e-03
3.737215963113731050e+03 3.786906798112145145e-01 6.845277542817230707e-03
3.740953179076846027e+03 3.551531179854982567e-01 7.029267266847911456e-03
3.744694132255923705e+03 3.293324680445819386e-01 7.637724870466816932e-03
3.748438826388181042e+03 3.051196077303887644e-01 6.993210063497534192e-03
3.752187265214570289e+03 2.838422329545605138e-01 7.203466196772034813e-03
3.755939452479786269e+03 2.640672933987113780e-01 7.083656052707725144e-03
3.759695391932267285e+03 2.522127844351297332e-01 7.326922334382509130e-03
3.763455087324201031e+03 2.427334554312559067e-01 7.306575971310658689e-03
3.767218542411526414e+03 2.365779986799337875e-01 7.461499282963630734e-03
3.770985760953939007e+03 2.321071313636120792e-01 7.589202463489219848e-03
3.774756746714894234e+03 2.294566650113910311e-01 7.966952921767782997e-03
3.778531503461610555e+03 2.267642560271360963e-01 8.077466893793775263e-03
3.782310034965073100e+03 2.245972658560843327e-01 7.957527282975863925e-03
3.786092345000039586e+03 2.231584916010451447e-01 7.887367034777235941e-03
3.789878437345040766e+03 2.233714064176821612e-01 8.012986532171724810e-03
3.793668315782387253e+03 2.240788529053686917e-01 8.294904376140320792e-03
3.797461984098170888e+03 2.252546783136329112e-01 7.650832355032663630e-03
3.801259446082270188e+03 2.262820323475020767e-01 7.261655898929526842e-03
3.805060705528353537e+03 2.283007815290131470e-01 7.711461430291227312e-03
3.808865766233883278e+03 2.284106347494148648e-01 7.689825212876439525e-03
3.812674632000118436e+03 2.310736184668184257e-01 7.373973973357067502e-03
3.816487306632119726e+03 2.334024287913179785e-01 6.502454716109337153e-03
3.820303793938753188e+03 2.301084837906415548e-01 7.592913440860596039e-03
3.824124097732693372e+03 2.269590311817040185e-01 7.658888178302654740e-03
3.827948221830427428e+03 2.257361878226079310e-01 7.650689031188040445e-03
3.831776170052258749e+03 2.224400887991888343e-01 8.026055311723827995e-03
3.835607946222312421e+03 2.194466910667247916e-01 8.740590152016478737e-03
3.839443554168536139e+03 2.085052533670573860e-01 8.708918995676523389e-03
3.843282997722705659e+03 1.944539520721975112e-01 8.585828663676948677e-03
3.847126280720429804e+03 1.830354999166990959e-01 8.444039397902584551e-03
3.850973407001151372e+03 1.727725676567612167e-01 8.232673172843962481e-03
3.854824380408153957e+03 1.629868246616756611e-01 8.369887832351381729e-03
3.858679204788563311e+03 1.527990451127425042e-01 9.218436132581917658e-03
3.862537883993353262e+03 1.446768724955659891e-01 8.924861878483989625e-03
3.866400421877347981e+03 1.415854062309892802e-01 6.955746210753783847e-03
3.870266822299226533e+03 1.477271173349831435e-01 7.021871346370603048e-03
3.874137089121526969e+03 1.628328378048053693e-01 8.445675613412232177e-03
3.878011226210649966e+03 1.838596686861830587e-01 8.393032663110101474e-03
3.881889237436861549e+03 2.068959474892619887e-01 6.906482346450150932e-03
3.885771126674299921e+03 2.293535288163708608e-01 5.798968126941500545e-03
3.889656897800975457e+03 2.514029290789083770e-01 5.198017003747794698e-03
3.893546554698777527e+03 2.680592233626081788e-01 5.239703174279007093e-03
3.897440101253477678e+03 2.836841276455148719e-01 5.123691017876372787e-03
3.901337541354732366e+03 3.002947612673639299e-01 4.546390137022934645e-03
3.905238878896088409e+03 3.197694496084683147e-01 5.052931940581937079e-03
3.909144117774985716e+03 3.382796898126435026e-01 4.989381823179285351e-03
3.913053261892762293e+03 3.533518351310108163e-01 4.952637237689346689e-03
3.916966315154656058e+03 3.706281437944345392e-01 5.188732729020813055e-03
3.920883281469812118e+03 3.915448750833026570e-01 5.246692927895355019e-03
3.924804164751283224e+03 4.168460077663974639e-01 5.196397152596328971e-03
3.928728968916035683e+03 4.421310792316471838e-01 5.140769800872978940e-03
3.932657697884953450e+03 4.655015358683040061e-01 5.121012013140292113e-03
3.936590355582839493e+03 4.907314496912977830e-01 4.796234394682321461e-03
3.940526945938423523e+03 5.170245802211039798e-01 5.618653725913046182e-03
3.944467472884363360e+03 5.438303995271404068e-01 6.060839230777419900e-03
3.948411940357249023e+03 5.675650283139453967e-01 5.961168119480320798e-03
3.952360352297607733e+03 5.854001341373491485e-01 4.976210621147332362e-03
3.956312712649906643e+03 5.963533790617018271e-01 4.468086894482436490e-03
3.960269025362557841e+03 5.993903682427773605e-01 4.687411168164567175e-03
3.964229294387921527e+03 5.965228108865873180e-01 4.865025855995604512e-03
3.968193523682310570e+03 5.864510266220092083e-01 4.841741940704317494e-03
3.972161717205994591e+03 5.711379105675840062e-01 4.383322419220440740e-03
3.976133878923201792e+03 5.575995642951929732e-01 3.988398971464335828e-03
3.980110012802126221e+03 5.483275766721635858e-01 4.098911372191259804e-03
3.984090122814929600e+03 5.389923806399887773e-01 4.054603936176930622e-03
3.988074212937745870e+03 5.323140226851522661e-01 3.801083980298023551e-03
3.992062287150684824e+03 5.317468561862570553e-01 3.589358738236414232e-03
3.996054349437837118e+03 5.382924782653784046e-01 3.570899606061208806e-03
4.000050403787276082e+03 5.528735717518208359e-01 3.068902493870791139e-03
4.004050454191064546e+03 5.691995607904654086e-01 3.101981287636605255e-03
4.008054504645257111e+03 5.894207772389025157e-01 2.900499022705128101e-03
4.012062559149903791e+03 6.153469305087788666e-01 3.466615885742835561e-03
4.016074621709055009e+03 6.432925882578749421e-01 3.694528656488322346e-03
4.020090696330765240e+03 6.706589907188974520e-01 3.496834322069698481e-03
4.024110787027097558e+03 6.971695898880309050e-01 3.114907563442913512e-03
4.028134897814125907e+03 7.202209637189436187e-01 3.081574295980918279e-03
4.032163032711941469e+03 7.409865931850387888e-01 3.159757582777772671e-03
4.036195195744654484e+03 7.564107193747281466e-01 3.389107254437459093e-03
4.040231390940400615e+03 7.659567500498849490e-01 3.079414414653603924e-03
4.044271622331342314e+03 7.680463195131753684e-01 3.079791986309981296e-03
4.048315893953675186e+03 7.618090824443028986e-01 3.309175312315490447e-03
4.052364209847629809e+03 7.522027216631214097e-01 3.850959288664797513e-03
4.056416574057479011e+03 7.418791610802115688e-01 3.861552750528229709e-03
4.060472990631537868e+03 7.270668236386955696e-01 3.724685750468375960e-03
4.064533463622170530e+03 7.110230696655528426e-01 3.508619493552522350e-03
4.068597997085794304e+03 6.964036513622071656e-01 3.365978208299728533e-03
4.072666595082881486e+03 6.846071508924324034e-01 3.133826692734927727e-03
4.076739261677965715e+03 6.763661573050860909e-01 3.287981950386107636e-03
4.080816000939644709e+03 6.685852686675956003e-01 3.069601417111262991e-03
4.084896816940585722e+03 6.666688838667796935e-01 3.675902853027382660e-03
4.088981713757527814e+03 6.671110952238059610e-01 3.154682620000359011e-03
4.093070695471286854e+03 6.689027180757473046e-01 2.588157457885877435e-03
4.097163766166759160e+03 6.689898010285344476e-01 2.559972453842526696e-03
4.101260929932927866e+03 6.687450557140532936e-01 2.550226986041898795e-03
4.105362190862862008e+03 6.680057732788876601e-01 2.666647034996571901e-03
4.109467553053726078e+03 6.676623564800221455e-01 3.211255183542113464e-03
4.113577020606780934e+03 6.648335104947747931e-01 2.988328492988419783e-03
4.117690597627389252e+03 6.593396965743905103e-01 3.143164671022578589e-03
4.121808288225018259e+03 6.527264257799745284e-01 3.627612971638531029e-03
4.125930096513244280e+03 6.444846404443324017e-01 4.075661833862391850e-03
4.130056026609759101e+03 6.390964563035976820e-01 3.729790592489223670e-03
4.134186082636369974e+03 6.376859499326068548e-01 3.732881661817652724e-03
4.138320268719007800e+03 6.379133145764059876e-01 3.628248221013599499e-03
4.142458588987728035e+03 6.404385895273061458e-01 3.611103062431381301e-03
4.146601047576717065e+03 6.483845757262897136e-01 3.449620601898748321e-03
4.150747648624294925e+03 6.632608040344066813e-01 4.225553151765129058e-03
4.154898396272920763e+03 6.802508165476877089e-01 4.134949262673247479e-03
4.159053294669195566e+03 7.002684504273699595e-01 4.188195954334383679e-03
4.163212347963865795e+03 7.254655364151950669e-01 3.568919011968136375e-03
4.167375560311830668e+03 7.502729909162063615e-01 3.695372574648908039e-03
4.171542935872143971e+03 7.772550872685144441e-01 3.783327322206802863e-03
