# starting wavelength: 3464.040
# ending wavelength: 9993.720
# wav flux eflux
3.467307701768178049e+03 1.524762668856286807e-01 6.464534726186672506e-03
3.470775009469947236e+03 1.532825356595038102e-01 4.914936362283530390e-03
3.474245784479418489e+03 1.528780789040750099e-01 3.952175569359363087e-03
3.477720030263898934e+03 1.520856305376858675e-01 3.284023019428487095e-03
3.481197750294164052e+03 1.515452775934925111e-01 2.728224629658309013e-03
3.484678948044459503e+03 1.515058872557799585e-01 2.369477547210425451e-03
3.488163626992504760e+03 1.522229603591767066e-01 2.129096369487908612e-03
3.491651790619498570e+03 1.538024603127554069e-01 1.934371152811769799e-03
3.495143442410119405e+03 1.561818999520329099e-01 1.751568789247337195e-03
3.498638585852530468e+03 1.591168302248012201e-01 1.546355724156794984e-03
3.502137224438384237e+03 1.626031265370562195e-01 1.403123561835471853e-03
3.505639361662823831e+03 1.664811881587611175e-01 1.288783853601152595e-03
3.509145001024487556e+03 1.706197766385459391e-01 1.194802601053379177e-03
3.512654146025513455e+03 1.748165591328166568e-01 1.112846221922092916e-03
3.516166800171540217e+03 1.791347465352568780e-01 1.064965030046493687e-03
3.519682966971712631e+03 1.837165752160785370e-01 1.029277228537160216e-03
3.523202649938685681e+03 1.881568592685593788e-01 9.903076481306181348e-04
3.526725852588625457e+03 1.926161886985562344e-01 9.612816316680448296e-04
3.530252578441215064e+03 1.970357475371422029e-01 9.455972055809755894e-04
3.533782831019657806e+03 2.019605651150868653e-01 6.851449204320950691e-04
3.537316613850678550e+03 2.063155183770888912e-01 6.063910975973259071e-04
3.540853930464530094e+03 2.103088283376735035e-01 5.769324834129642247e-04
3.544394784394995895e+03 2.139107143062506100e-01 5.642199665776010797e-04
3.547939179179392340e+03 2.168112972225964274e-01 5.579070427532474043e-04
3.551487118358572843e+03 2.193326825789118362e-01 5.068591438489576141e-04
3.555038605476932389e+03 2.215655041731036390e-01 5.709597384997995139e-04
3.558593644082410719e+03 2.236553474101699857e-01 6.242523523918940389e-04
3.562152237726494150e+03 2.255071291309649617e-01 6.267381626798161805e-04
3.565714389964221937e+03 2.271107855040717660e-01 5.885243653666278945e-04
3.569280104354187188e+03 2.284752578984745042e-01 5.158492862853585655e-04
3.572849384458542772e+03 2.299869801060899221e-01 5.196081920330403647e-04
3.576422233843002232e+03 2.314112810572530876e-01 4.850350487613165791e-04
3.579998656076846601e+03 2.329016221697763622e-01 4.853388367121252924e-04
3.583578654732924406e+03 2.346532927939713742e-01 4.694515341167219491e-04
3.587162233387658489e+03 2.362119877701480408e-01 4.712228292186126477e-04
3.590749395621047370e+03 2.377526524189552681e-01 4.416956399910534578e-04
3.594340145016669794e+03 2.394492215416633152e-01 4.329375263152958082e-04
3.597934485161687462e+03 2.413372193373097552e-01 4.514861091853677446e-04
3.601532419646850485e+03 2.432815507590966042e-01 4.651079026273874698e-04
3.605133952066498296e+03 2.454343712725452209e-01 5.139069820088651300e-04
3.608739086018566013e+03 2.476635420765248841e-01 5.429665046497147898e-04
3.612347825104585809e+03 2.500001605955142203e-01 5.404571249114447327e-04
3.615960172929691907e+03 2.523621663740966414e-01 5.490912903521746272e-04
3.619576133102622407e+03 2.548237562383049437e-01 6.297272018980054316e-04
3.623195709235726554e+03 2.574797089795028970e-01 7.245930866174920887e-04
3.626818904944963379e+03 2.603935875467439098e-01 7.745056053707604499e-04
3.630445723849909427e+03 2.636199117042598017e-01 8.303982477563235818e-04
3.634076169573760581e+03 2.671595659686433200e-01 8.401940733035349537e-04
3.637710245743335690e+03 2.710463552416712552e-01 8.022619254535311595e-04
3.641347955989080219e+03 2.752943197766575811e-01 7.387758405969230150e-04
3.644989303945070333e+03 2.800171644715359065e-01 7.482076577269940448e-04
3.648634293249016537e+03 2.846184465709115652e-01 7.047544741639415449e-04
3.652282927542266862e+03 2.898727273435343643e-01 7.737080947984147907e-04
3.655935210469810499e+03 2.953993249190151049e-01 8.500489804528534032e-04
3.659591145680281443e+03 3.011199309264327995e-01 9.277264699683284961e-04
3.663250736825963031e+03 3.068824313430209560e-01 9.623794950110117503e-04
3.666913987562790226e+03 3.127087470468575825e-01 9.438184130276559359e-04
3.670580901550354156e+03 3.183623295283530830e-01 9.007014162124626694e-04
3.674251482451905758e+03 3.240200960790010076e-01 7.745323720622236717e-04
3.677925733934358959e+03 3.288328351713714071e-01 7.443136520103790918e-04
3.681603659668294313e+03 3.332128785932996773e-01 6.951710784918391835e-04
3.685285263327964003e+03 3.372061659699316372e-01 6.411351287463655990e-04
3.688970548591293209e+03 3.405770040390752595e-01 6.326960245374473523e-04
3.692659519139885560e+03 3.432746364120536353e-01 6.399895313564412562e-04
3.696352178659026777e+03 3.452923960931658098e-01 6.506124221034174969e-04
3.700048530837686940e+03 3.466769291364932282e-01 6.430402815937371480e-04
3.703748579368525952e+03 3.473049512553502138e-01 5.749893931134955659e-04
3.707452327947895355e+03 3.473701659799890429e-01 4.849650560151952112e-04
3.711159780275844696e+03 3.469787615706375061e-01 4.078068902844295433e-04
3.714870940056121526e+03 3.461731855622676712e-01 3.695567480749071924e-04
3.718585810996179134e+03 3.451481195536938440e-01 3.688235815383730147e-04
3.722304396807176545e+03 3.438288918207814682e-01 3.671660641273889877e-04
3.726026701203984885e+03 3.423941002108140674e-01 3.112274237281752892e-04
3.729752727905190113e+03 3.406778517581542376e-01 3.061894233690489711e-04
3.733482480633096657e+03 3.387007049911989198e-01 3.288653793511380299e-04
3.737215963113731050e+03 3.365184209542330107e-01 3.518784533912057313e-04
3.740953179076846027e+03 3.341878585954642378e-01 3.467080791399765154e-04
3.744694132255923705e+03 3.319900082775226746e-01 3.342987792795220595e-04
3.748438826388181042e+03 3.298655105428012213e-01 2.873803610015733642e-04
3.752187265214570289e+03 3.279258035320807285e-01 3.096988151781816996e-04
3.755939452479786269e+03 3.260948739419111120e-01 3.175662194939362932e-04
3.759695391932267285e+03 3.245285451426251355e-01 3.303610704182288554e-04
3.763455087324201031e+03 3.231872132532163100e-01 3.291736922358142847e-04
3.767218542411526414e+03 3.221053658840768996e-01 3.218317061456597026e-04
3.770985760953939007e+03 3.213049865529726823e-01 3.162148409463722627e-04
3.774756746714894234e+03 3.208914294978219006e-01 3.063111530735554335e-04
3.778531503461610555e+03 3.208160168202394691e-01 3.253111481745608402e-04
3.782310034965073100e+03 3.213475989659632104e-01 3.293112943332033096e-04
3.786092345000039586e+03 3.222622869608645080e-01 3.414137530907887237e-04
3.789878437345040766e+03 3.236226250113010683e-01 3.473658140604464722e-04
3.793668315782387253e+03 3.255545818640721567e-01 3.321906404838726465e-04
3.797461984098170888e+03 3.280080224539908551e-01 2.834479465999339477e-04
3.801259446082270188e+03 3.311847790396399982e-01 2.943184811174211408e-04
3.805060705528353537e+03 3.349624115139253067e-01 2.740500386044223053e-04
3.808865766233883278e+03 3.396537602071796336e-01 2.412598185091553802e-04
3.812674632000118436e+03 3.452243060984944711e-01 2.335979135991850665e-04
3.816487306632119726e+03 3.516690444400457638e-01 2.468827330928166208e-04
3.820303793938753188e+03 3.589577632589919798e-01 2.579056729948716957e-04
3.824124097732693372e+03 3.670122823861971528e-01 2.432077213960749608e-04
3.827948221830427428e+03 3.758302553047103145e-01 2.178345946622808448e-04
3.831776170052258749e+03 3.852867797111433346e-01 2.242459365111255443e-04
3.835607946222312421e+03 3.954322899691602999e-01 2.259163091522768815e-04
3.839443554168536139e+03 4.062035797672879367e-01 2.267619737985740512e-04
3.843282997722705659e+03 4.175328253988930816e-01 2.368468747540765221e-04
3.847126280720429804e+03 4.291581335159408983e-01 2.344036525870745737e-04
3.850973407001151372e+03 4.413141132536516076e-01 3.221547038474149274e-04
3.854824380408153957e+03 4.537477793366151979e-01 4.090802783862268650e-04
3.858679204788563311e+03 4.663884624479953112e-01 4.469254675842978673e-04
3.862537883993353262e+03 4.789593120053925457e-01 4.656957329799328994e-04
3.866400421877347981e+03 4.912032944240908305e-01 4.614840483650825705e-04
3.870266822299226533e+03 5.033158071734361583e-01 3.636623674761914598e-04
3.874137089121526969e+03 5.147066725720863545e-01 3.330431829434847319e-04
3.878011226210649966e+03 5.254856057786791990e-01 3.554061382270469471e-04
3.881889237436861549e+03 5.356830341433944653e-01 3.886914676424649902e-04
3.885771126674299921e+03 5.452366162491562029e-01 4.296323045109456972e-04
3.889656897800975457e+03 5.543025093724593955e-01 4.502476933940104229e-04
3.893546554698777527e+03 5.628017366882465122e-01 4.578469631920438444e-04
3.897440101253477678e+03 5.708309083040877807e-01 4.499481133851416983e-04
3.901337541354732366e+03 5.783407558244596514e-01 4.066844535806366846e-04
3.905238878896088409e+03 5.852995571080997772e-01 3.269855930368034897e-04
3.909144117774985716e+03 5.918519677033445836e-01 2.813203093805479241e-04
3.913053261892762293e+03 5.980478476911053054e-01 2.851554231483096214e-04
3.916966315154656058e+03 6.039916074689937187e-01 2.857037284954120509e-04
3.920883281469812118e+03 6.096915942170777480e-01 2.580588847680526337e-04
3.924804164751283224e+03 6.150522937171810645e-01 2.518662556636439595e-04
3.928728968916035683e+03 6.200974434270146718e-01 2.571738645672867665e-04
3.932657697884953450e+03 6.248384957687181940e-01 2.658387239067669535e-04
3.936590355582839493e+03 6.292423383920634494e-01 2.663010603663369127e-04
3.940526945938423523e+03 6.333260514962715249e-01 2.914247831194939284e-04
3.944467472884363360e+03 6.370169820442629360e-01 3.216683475421330362e-04
3.948411940357249023e+03 6.403558641897987291e-01 3.374373584577437953e-04
3.952360352297607733e+03 6.432061965768725020e-01 3.340697591266559479e-04
3.956312712649906643e+03 6.456455477905587159e-01 3.319308382518996168e-04
3.960269025362557841e+03 6.476808032289261829e-01 3.605520011466365371e-04
3.964229294387921527e+03 6.493528066835618784e-01 3.974671579501141776e-04
3.968193523682310570e+03 6.507088138447053582e-01 4.199194643296237845e-04
3.972161717205994591e+03 6.517978119084181232e-01 4.189550659861950672e-04
3.976133878923201792e+03 6.525727458145109683e-01 4.042231857117884993e-04
3.980110012802126221e+03 6.529726210602984082e-01 4.074078480734940645e-04
3.984090122814929600e+03 6.530826706988498431e-01 4.089421228855314784e-04
3.988074212937745870e+03 6.529414175362212580e-01 4.827177804220404342e-04
3.992062287150684824e+03 6.523900294885501827e-01 5.422029246019526016e-04
3.996054349437837118e+03 6.517046536042810922e-01 5.178601687988648380e-04
4.000050403787276082e+03 6.503408205723214541e-01 4.396178978009548390e-04
4.004050454191064546e+03 6.483924909114400226e-01 3.491445289905611700e-04
4.008054504645257111e+03 6.457877580727877653e-01 3.199614049738948676e-04
4.012062559149903791e+03 6.424830940514982824e-01 3.730206856776364715e-04
4.016074621709055009e+03 6.385489328174971391e-01 4.017879737181187971e-04
4.020090696330765240e+03 6.341787537482725945e-01 3.808804260861041696e-04
4.024110787027097558e+03 6.295624558774012280e-01 3.112893643348869878e-04
4.028134897814125907e+03 6.249061582638509860e-01 2.055757372799262613e-04
4.032163032711941469e+03 6.204676872509945484e-01 1.249576653960725542e-04
4.036195195744654484e+03 6.164030327106453377e-01 7.563579177220693811e-05
4.040231390940400615e+03 6.127853443439488235e-01 7.224195436685187835e-05
4.044271622331342314e+03 6.096362737219099825e-01 7.628378759000604503e-05
4.048315893953675186e+03 6.070432589035629212e-01 8.144253562886317316e-05
4.052364209847629809e+03 6.049720899192756463e-01 1.205518199613825293e-04
4.056416574057479011e+03 6.034218836412935660e-01 1.514777806102079159e-04
4.060472990631537868e+03 6.023821542897355164e-01 1.765665955666172258e-04
4.064533463622170530e+03 6.016577697814063930e-01 1.895262234514335186e-04
4.068597997085794304e+03 6.012842469018436775e-01 1.706821661128763465e-04
4.072666595082881486e+03 6.011576872779856862e-01 1.081880157510663464e-04
4.076739261677965715e+03 6.011874293554313464e-01 1.164145844487821904e-04
4.080816000939644709e+03 6.014030012341935461e-01 1.377329725317293042e-04
4.084896816940585722e+03 6.018093827357111625e-01 1.334975896978372455e-04
4.088981713757527814e+03 6.024269049033376122e-01 1.210806592198022399e-04
4.093070695471286854e+03 6.032207974689708374e-01 1.087358289009211901e-04
4.097163766166759160e+03 6.042476975662273153e-01 9.171359681634202771e-05
4.101260929932927866e+03 6.055740957345130404e-01 8.015960499170190730e-05
4.105362190862862008e+03 6.072193896851163508e-01 7.777834926640892562e-05
4.109467553053726078e+03 6.091569491083541621e-01 8.573908878705862452e-05
4.113577020606780934e+03 6.112942756742089090e-01 9.053155062486699530e-05
4.117690597627389252e+03 6.136988187782347337e-01 1.200595034426571884e-04
4.121808288225018259e+03 6.162496835927766536e-01 1.498721300981733411e-04
4.125930096513244280e+03 6.187693387754950036e-01 1.592507160083763904e-04
4.130056026609759101e+03 6.212527239411201885e-01 1.654845853864737816e-04
4.134186082636369974e+03 6.236223731914010138e-01 1.455926986380763708e-04
4.138320268719007800e+03 6.258601913228944991e-01 1.476212547497819671e-04
4.142458588987728035e+03 6.280228661063155249e-01 1.701515368804559769e-04
4.146601047576717065e+03 6.301761071581268858e-01 1.852151715900329483e-04
4.150747648624294925e+03 6.323708272150901921e-01 1.946274509607468319e-04
4.154898396272920763e+03 6.346423164128101035e-01 1.729018959755314420e-04
4.159053294669195566e+03 6.371111339077469848e-01 1.361186327419108008e-04
4.163212347963865795e+03 6.399916889749641680e-01 8.435987851561436426e-05
4.167375560311830668e+03 6.433891590698241902e-01 7.168063932828919378e-05
4.171542935872143971e+03 6.473119835595592120e-01 9.734242270984549733e-05
4.175714478808017702e+03 6.517968057863426923e-01 1.330667208427200850e-04
4.179890193286827525e+03 6.569429846320449240e-01 1.344875619349168131e-04
4.184070083480115500e+03 6.627372826181663346e-01 1.284526435701620155e-04
4.188254153563597356e+03 6.691242765814222615e-01 1.401343619994096254e-04
4.192442407717161586e+03 6.759966165641990710e-01 1.685461988875182392e-04
4.196634850124880359e+03 6.832866223664993965e-01 2.077256154703471531e-04
4.200831484975006788e+03 6.908564768659072319e-01 2.497833331081926716e-04
4.205032316459983122e+03 6.984336058387041746e-01 2.477183197168901312e-04
4.209237348776444378e+03 7.058965661224877453e-01 1.991093144888575028e-04
4.213446586125221984e+03 7.129359027686704708e-01 1.400341269860583683e-04
4.217660032711349231e+03 7.194703662626401597e-01 1.044945077500156633e-04
4.221877692744061278e+03 7.253894131319855720e-01 9.577336996302353376e-05
4.226099570436806971e+03 7.306413520032833953e-01 8.609066831654365074e-05
4.230325670007245208e+03 7.351160691052316398e-01 1.466214913994942474e-04
4.234555995677254032e+03 7.389411992361988313e-01 2.324416359764305145e-04
4.238790551672932452e+03 7.422781727245387762e-01 2.661728930175944548e-04
4.243029342224606808e+03 7.454005991509641271e-01 2.741043801822894079e-04
4.247272371566832589e+03 7.484308132626403820e-01 2.569670704221342509e-04
4.251519643938400804e+03 7.513988131044482266e-01 2.190989243539251169e-04
4.255771163582340705e+03 7.544222656614618661e-01 1.814372602989426425e-04
4.260026934745924336e+03 7.576781100808137603e-01 1.742770484171946770e-04
4.264286961680671993e+03 7.612017823104935133e-01 1.783713949475746212e-04
4.268551248642354039e+03 7.649888539272985399e-01 1.740474059225224923e-04
4.272819799890998183e+03 7.690270209450156269e-01 1.700421778675037618e-04
4.277092619690890388e+03 7.733181506071058475e-01 1.692313796088879094e-04
4.281369712310583054e+03 7.778921364358051260e-01 1.624626105446105731e-04
4.285651082022895025e+03 7.825992072717274928e-01 1.757334371738124431e-04
4.289936733104918858e+03 7.873997812364601501e-01 2.204270964873225895e-04
4.294226669838025373e+03 7.921155288925972870e-01 2.717484742946882554e-04
4.298520896507864563e+03 7.967364935883635146e-01 2.999331464617097879e-04
4.302819417404373780e+03 8.011858619427888462e-01 2.722214847098335848e-04
4.307122236821779552e+03 8.053181074720646704e-01 1.687152130821222321e-04
4.311429359058603040e+03 8.089501619412206024e-01 1.730521161872310967e-04
4.315740788417662770e+03 8.122093113921989849e-01 1.934856997731742158e-04
4.320056529206081905e+03 8.151637605721920865e-01 1.858843699606052395e-04
4.324376585735290064e+03 8.178720621868686980e-01 1.711813204709153617e-04
4.328700962321026054e+03 8.204790665200828448e-01 1.678382786010147233e-04
4.333029663283348782e+03 8.231048148625685901e-01 1.809370550237923995e-04
4.337362692946633615e+03 8.259789007743121303e-01 1.797762086256607546e-04
4.341700055639581478e+03 8.293743288406303371e-01 1.850074972166410687e-04
4.346041755695222491e+03 8.334038343847025576e-01 2.251766993271181060e-04
4.350387797450919606e+03 8.382223150389191968e-01 2.526454486341450428e-04
4.354738185248371337e+03 8.439652990783949038e-01 2.466508101550228798e-04
4.359092923433621763e+03 8.507046506040185641e-01 2.007444256502397874e-04
4.363452016357056891e+03 8.586228727689634299e-01 2.190049108378012792e-04
4.367815468373414660e+03 8.675903372182743878e-01 3.266106982449475571e-04
4.372183283841789489e+03 8.774786268930150346e-01 4.340298020493195386e-04
4.376555467125633186e+03 8.880423956946229547e-01 4.799714645281184344e-04
4.380932022592760404e+03 8.990141395326832763e-01 4.433431679415527683e-04
4.385312954615354101e+03 9.101128748425166837e-01 3.114784032731655276e-04
4.389698267569970994e+03 9.211061404134119890e-01 2.053528303506985001e-04
4.394087965837542470e+03 9.318390099667893667e-01 2.226425502063275478e-04
4.398482053803381859e+03 9.424365644087269178e-01 2.913785992295561266e-04
4.402880535857186260e+03 9.530196577087258758e-01 3.612091473156765612e-04
4.407283416393044718e+03 9.637169432330698893e-01 3.762762731138125311e-04
4.411690699809440048e+03 9.747309669536091681e-01 3.456784214214159178e-04
4.416102390509250654e+03 9.863503967884801327e-01 2.257049644805348180e-04
4.420518492899761441e+03 9.988448440196064926e-01 1.189581737886044333e-04
4.424939011392662906e+03 1.012328951840714364e+00 1.307977816513376920e-04
4.429363950404056595e+03 1.026767923340445421e+00 1.515402083293714702e-04
4.433793314354462382e+03 1.042173405684063914e+00 1.373853011061316597e-04
4.438227107668818462e+03 1.058437228544802711e+00 1.406609654700719436e-04
4.442665334776488635e+03 1.075570283140314665e+00 1.687077068607331773e-04
4.447108000111265937e+03 1.093678880464806324e+00 1.731328070072859972e-04
4.451555108111379013e+03 1.112628055955233064e+00 1.754791689956171742e-04
4.456006663219492111e+03 1.132322091359657001e+00 2.220736237787712436e-04
4.460462669882713271e+03 1.152571617040903051e+00 2.873091880927742896e-04
4.464923132552597053e+03 1.173171943275023610e+00 3.318794663621574812e-04
4.469388055685150903e+03 1.193884245848815917e+00 3.379037234019873132e-04
4.473857443740837880e+03 1.214538461815705572e+00 2.973499370618939291e-04
4.478331301184580298e+03 1.234957689216120036e+00 2.797845717661884756e-04
4.482809632485766087e+03 1.255022610232173319e+00 3.066770418209871485e-04
4.487292442118253348e+03 1.274647234993750766e+00 3.406304211657910680e-04
4.491779734560373072e+03 1.293757858090944346e+00 3.384626945499945977e-04
4.496271514294934605e+03 1.312240824573469800e+00 2.776849451343607958e-04
4.500767785809231100e+03 1.330179297726518106e+00 3.081513579817340433e-04
4.505268553595042249e+03 1.347427967806691163e+00 4.271700327893751558e-04
4.509773822148638828e+03 1.363794715611424291e+00 5.018846698601271868e-04
4.514283595970789065e+03 1.379020997028698181e+00 4.349213014493519226e-04
