# starting wavelength: 3464.040
# ending wavelength: 7164.280
# wav flux eflux
3.467307701768178049e+03 3.343388719123663866e-01 5.928925982971477299e-02
3.470775009469947236e+03 3.267546332280013566e-01 4.434359943965088952e-02
3.474245784479418489e+03 3.099097312767910561e-01 3.978931852899530303e-02
3.477720030263898934e+03 2.970234724152294170e-01 3.102998261647517408e-02
3.481197750294164052e+03 2.853341672970353127e-01 2.691517341833891616e-02
3.484678948044459503e+03 2.800496633706610061e-01 2.303577905257771230e-02
3.488163626992504760e+03 2.809600384171940801e-01 2.042586807996012860e-02
3.491651790619498570e+03 2.879711988515980536e-01 1.840176946347549247e-02
3.495143442410119405e+03 2.975453563441902149e-01 1.538464435289415774e-02
3.498638585852530468e+03 3.107953081036403109e-01 1.387903131172114890e-02
3.502137224438384237e+03 3.243071981371498658e-01 1.253319928269905174e-02
3.505639361662823831e+03 3.353569495855685534e-01 1.137307486015699289e-02
3.509145001024487556e+03 3.439286386396231410e-01 1.053488891477582373e-02
3.512654146025513455e+03 3.499883897303610047e-01 9.931184061807648428e-03
3.516166800171540217e+03 3.530916808048370492e-01 9.560733004087395431e-03
3.519682966971712631e+03 3.514607124001263294e-01 9.945242186051113722e-03
3.523202649938685681e+03 3.488671888777901686e-01 1.013723525860225558e-02
3.526725852588625457e+03 3.447984343234777316e-01 1.048262638716025361e-02
3.530252578441215064e+03 3.446910411078784597e-01 1.071483106132578925e-02
3.533782831019657806e+03 3.395975957035157755e-01 1.119306096231737283e-02
3.537316613850678550e+03 3.342390287722027953e-01 1.118126023926798752e-02
3.540853930464530094e+03 3.257298601040223285e-01 1.073448689282683124e-02
3.544394784394995895e+03 3.180312225195416342e-01 1.035229440374495907e-02
3.547939179179392340e+03 3.084230616689401239e-01 1.024216421828246307e-02
3.551487118358572843e+03 3.000166021183388043e-01 9.795838357717445363e-03
3.555038605476932389e+03 2.918107830315989637e-01 9.651275834379937496e-03
3.558593644082410719e+03 2.820675208198445971e-01 9.391946536359897443e-03
3.562152237726494150e+03 2.734722919279271025e-01 9.201151063309046668e-03
3.565714389964221937e+03 2.698213053732564926e-01 9.366409222495486464e-03
3.569280104354187188e+03 2.729415848863716021e-01 9.652534109925477515e-03
3.572849384458542772e+03 2.819890118624721609e-01 9.475370055096420802e-03
3.576422233843002232e+03 2.953197522134436981e-01 9.198316250607123379e-03
3.579998656076846601e+03 3.123519271148381682e-01 9.072549503277030358e-03
3.583578654732924406e+03 3.286079066986422603e-01 9.108367546353517141e-03
3.587162233387658489e+03 3.519682161680395827e-01 9.342085798281669906e-03
3.590749395621047370e+03 3.793845285726505923e-01 1.016790833942145776e-02
3.594340145016669794e+03 4.073048678850894055e-01 1.100228550845135447e-02
3.597934485161687462e+03 4.366041494924019495e-01 1.181178076396316792e-02
3.601532419646850485e+03 4.639157620904620360e-01 1.279259587288495564e-02
3.605133952066498296e+03 4.917751346821953029e-01 1.348708222078709093e-02
3.608739086018566013e+03 5.130205619258070282e-01 1.373153305348213775e-02
3.612347825104585809e+03 5.362893725793794752e-01 1.345567731462939641e-02
3.615960172929691907e+03 5.551433465356448993e-01 1.240627703617919186e-02
3.619576133102622407e+03 5.726830771105275719e-01 1.031453945401912022e-02
3.623195709235726554e+03 5.799420875525671537e-01 9.377187255434109997e-03
3.626818904944963379e+03 5.783301757743301019e-01 9.065884702648506835e-03
3.630445723849909427e+03 5.701536602332488712e-01 9.113532975241528736e-03
3.634076169573760581e+03 5.507836216894965720e-01 1.070817976356453621e-02
3.637710245743335690e+03 5.241417996312511818e-01 1.075839883296758961e-02
3.641347955989080219e+03 4.910492153607675103e-01 1.146620277711950416e-02
3.644989303945070333e+03 4.597345539556396132e-01 9.565931284530187345e-03
3.648634293249016537e+03 4.251282464863160859e-01 8.198138532120398739e-03
3.652282927542266862e+03 3.937708654703201971e-01 7.693012474332548006e-03
3.655935210469810499e+03 3.650418234415045982e-01 5.979254721093718410e-03
3.659591145680281443e+03 3.478992097121603733e-01 5.599936267493299882e-03
3.663250736825963031e+03 3.401854341422870798e-01 5.613514761662641815e-03
3.666913987562790226e+03 3.388656130198929306e-01 5.480602316355779463e-03
3.670580901550354156e+03 3.466909531798856303e-01 5.969907424419787501e-03
3.674251482451905758e+03 3.627829648227106074e-01 6.861211125789570472e-03
3.677925733934358959e+03 3.844335319230518522e-01 6.771087494381806612e-03
3.681603659668294313e+03 4.130432205164618065e-01 6.525696078187123543e-03
3.685285263327964003e+03 4.473043467860186584e-01 7.233412248465012281e-03
3.688970548591293209e+03 4.863821065014242717e-01 8.814200931350900381e-03
3.692659519139885560e+03 5.316801800899979558e-01 8.346315641652385722e-03
3.696352178659026777e+03 5.732719422102392492e-01 7.570284901886211587e-03
3.700048530837686940e+03 6.108462710118488515e-01 6.807837984091261348e-03
3.703748579368525952e+03 6.424942609484517453e-01 5.984526060162454440e-03
3.707452327947895355e+03 6.685017319950052883e-01 5.271813390110124953e-03
3.711159780275844696e+03 6.855738129477352283e-01 5.756049335555854865e-03
3.714870940056121526e+03 6.946957077329793950e-01 6.367721127084080904e-03
3.718585810996179134e+03 6.989490755944324230e-01 6.241706480152793904e-03
3.722304396807176545e+03 6.956933640966961319e-01 6.036180450442340910e-03
3.726026701203984885e+03 6.904374800272226054e-01 6.117284662519381980e-03
3.729752727905190113e+03 6.812324387616832677e-01 5.910049018959153376e-03
3.733482480633096657e+03 6.683360815775066799e-01 5.468809817595344548e-03
3.737215963113731050e+03 6.554968717634440667e-01 5.695016045148782076e-03
3.740953179076846027e+03 6.399538100116581862e-01 5.669250195359469731e-03
3.744694132255923705e+03 6.263784089183965786e-01 7.789848682416916636e-03
3.748438826388181042e+03 6.179948033516287076e-01 7.879786186049817648e-03
3.752187265214570289e+03 6.196927234722759970e-01 7.496745388679617109e-03
3.755939452479786269e+03 6.293457183327899607e-01 7.632667996566049398e-03
3.759695391932267285e+03 6.475157104559217114e-01 7.532446960980034197e-03
3.763455087324201031e+03 6.745657637359150360e-01 7.969636050733072685e-03
3.767218542411526414e+03 7.116515644619560987e-01 9.836422063824123985e-03
3.770985760953939007e+03 7.480282685539159093e-01 1.015272314323902546e-02
3.774756746714894234e+03 7.909637351802154548e-01 1.027227601852983771e-02
3.778531503461610555e+03 8.357455213587171583e-01 9.528349700429594726e-03
3.782310034965073100e+03 8.774320942824359593e-01 8.706981187396661478e-03
3.786092345000039586e+03 9.177672537742495029e-01 7.745150654544423995e-03
3.789878437345040766e+03 9.499331574812064360e-01 6.851137622418305463e-03
3.793668315782387253e+03 9.753707223643819368e-01 6.928552205824755825e-03
3.797461984098170888e+03 9.898216992888586585e-01 7.456460277654265723e-03
3.801259446082270188e+03 9.953168677103808593e-01 6.927883143427576371e-03
3.805060705528353537e+03 9.893414641472102478e-01 5.612832789901813120e-03
3.808865766233883278e+03 9.790660769940117136e-01 5.393087176130323401e-03
3.812674632000118436e+03 9.668237036592828293e-01 5.429256673685762050e-03
3.816487306632119726e+03 9.505270330977447779e-01 6.320330847554776234e-03
3.820303793938753188e+03 9.346708715788352162e-01 7.097854509063217590e-03
3.824124097732693372e+03 9.204005830376833508e-01 7.208819550266854642e-03
3.827948221830427428e+03 9.083083985728425125e-01 6.008784753499075287e-03
3.831776170052258749e+03 8.990316917922004381e-01 5.890458558747380287e-03
3.835607946222312421e+03 8.967634266890133210e-01 6.559446769698460376e-03
3.839443554168536139e+03 8.968134525402142732e-01 6.733244455939464343e-03
3.843282997722705659e+03 9.025421035648754087e-01 6.557742224510983674e-03
3.847126280720429804e+03 9.131290459646630442e-01 5.479426759287272727e-03
3.850973407001151372e+03 9.224618273539539892e-01 5.441451482225261385e-03
3.854824380408153957e+03 9.353924949773411157e-01 5.343402910312929771e-03
3.858679204788563311e+03 9.477779647445463418e-01 5.706721812550242905e-03
3.862537883993353262e+03 9.548059528187659017e-01 5.692559751765497757e-03
3.866400421877347981e+03 9.615240708945762549e-01 5.480448868652807413e-03
3.870266822299226533e+03 9.612642333353875745e-01 5.596664936014405199e-03
3.874137089121526969e+03 9.606470403632966226e-01 5.187716448970825997e-03
3.878011226210649966e+03 9.623980710522445081e-01 6.013427572437332787e-03
3.881889237436861549e+03 9.663447106225401262e-01 6.511832900920962348e-03
3.885771126674299921e+03 9.747914253146952035e-01 6.459030017385807357e-03
3.889656897800975457e+03 9.873885397901049910e-01 7.601706916922340747e-03
3.893546554698777527e+03 9.968111208671014412e-01 7.598555898154764864e-03
3.897440101253477678e+03 1.006293229227924080e+00 7.542753937481792847e-03
3.901337541354732366e+03 1.017459677303225840e+00 7.497367119629462159e-03
3.905238878896088409e+03 1.030412392846327352e+00 7.027555834939030674e-03
3.909144117774985716e+03 1.042964115699089644e+00 6.449711677723661378e-03
3.913053261892762293e+03 1.052579941996345303e+00 6.522461889860513631e-03
3.916966315154656058e+03 1.059729688022323257e+00 6.535018495193974444e-03
3.920883281469812118e+03 1.064048296462552834e+00 6.224375087940060489e-03
3.924804164751283224e+03 1.065754481546045573e+00 5.828189767760399639e-03
3.928728968916035683e+03 1.068122128573515406e+00 7.013603314921595076e-03
3.932657697884953450e+03 1.065796448750067738e+00 6.649566064850526842e-03
3.936590355582839493e+03 1.059214955754024468e+00 6.653262082927630973e-03
3.940526945938423523e+03 1.052646448233795384e+00 6.075131292441925818e-03
3.944467472884363360e+03 1.041111452202692078e+00 6.754899258738435164e-03
3.948411940357249023e+03 1.029100301222751979e+00 6.985380115314790070e-03
3.952360352297607733e+03 1.012864714836549274e+00 6.112450978870484844e-03
3.956312712649906643e+03 9.999918644355745290e-01 4.723850269624733055e-03
3.960269025362557841e+03 9.911289349256110492e-01 4.908427767517574598e-03
3.964229294387921527e+03 9.861210663082972117e-01 4.744509395459565321e-03
3.968193523682310570e+03 9.803516427791254539e-01 4.775409278124488274e-03
3.972161717205994591e+03 9.772979192622899269e-01 4.811330215209078803e-03
3.976133878923201792e+03 9.782829773794363692e-01 4.694978215383996054e-03
3.980110012802126221e+03 9.811905628516306432e-01 5.212937020577680138e-03
3.984090122814929600e+03 9.823067643054905762e-01 5.989254355695832442e-03
3.988074212937745870e+03 9.780848201804187569e-01 6.071883747910684914e-03
3.992062287150684824e+03 9.683018766681882328e-01 6.052888757967048693e-03
3.996054349437837118e+03 9.543019860955466172e-01 6.459401666711482928e-03
4.000050403787276082e+03 9.399277707988076269e-01 7.151409414352104775e-03
4.004050454191064546e+03 9.263982480417674026e-01 8.046707296457842815e-03
4.008054504645257111e+03 9.121369514150738933e-01 8.158940849145483037e-03
4.012062559149903791e+03 9.041102930617875844e-01 7.557665856125511498e-03
4.016074621709055009e+03 9.011729685744651608e-01 7.201864655965926204e-03
4.020090696330765240e+03 9.014661642168062539e-01 6.502617135065355200e-03
4.024110787027097558e+03 9.100516669864123775e-01 7.065203363139900897e-03
4.028134897814125907e+03 9.233564540259834308e-01 8.130135856827681862e-03
4.032163032711941469e+03 9.422985276149229428e-01 7.100742153653949104e-03
4.036195195744654484e+03 9.587551758655949996e-01 5.533906533396537770e-03
4.040231390940400615e+03 9.742392947049035579e-01 3.994788184239211545e-03
4.044271622331342314e+03 9.816840695568262998e-01 4.709242224843149076e-03
4.048315893953675186e+03 9.845781102697571674e-01 4.232066064157487956e-03
4.052364209847629809e+03 9.831667257907166224e-01 4.587933449577602345e-03
4.056416574057479011e+03 9.770913710133289909e-01 5.809959392299134974e-03
4.060472990631537868e+03 9.641993314133032733e-01 5.880390839856217654e-03
4.064533463622170530e+03 9.421185792667567949e-01 5.700454529598687585e-03
4.068597997085794304e+03 9.127023794399136136e-01 7.095812098457461754e-03
4.072666595082881486e+03 8.796663940267521742e-01 8.631898497482533295e-03
4.076739261677965715e+03 8.457883738563045650e-01 9.857145594682762552e-03
4.080816000939644709e+03 8.156887480461215700e-01 9.271363731809175238e-03
4.084896816940585722e+03 7.919856158374620758e-01 8.172673022275969354e-03
4.088981713757527814e+03 7.766625284969883580e-01 8.128395173221827572e-03
4.093070695471286854e+03 7.676413912283157615e-01 8.123351441615373619e-03
4.097163766166759160e+03 7.658584410454205571e-01 8.516671307829602050e-03
4.101260929932927866e+03 7.748872748946517008e-01 9.380456113539685156e-03
4.105362190862862008e+03 7.877378333272633260e-01 7.854570230783652560e-03
4.109467553053726078e+03 8.004281849491567957e-01 6.218361112889272090e-03
4.113577020606780934e+03 8.115533104180657764e-01 6.559576002736948810e-03
4.117690597627389252e+03 8.232622153171186286e-01 6.792751882580966294e-03
4.121808288225018259e+03 8.299499633091776962e-01 5.868837650093115636e-03
4.125930096513244280e+03 8.394928081909940332e-01 4.743506207852804177e-03
4.130056026609759101e+03 8.502244182374966153e-01 4.708662198072388963e-03
4.134186082636369974e+03 8.634152431345726297e-01 6.088381827872870432e-03
4.138320268719007800e+03 8.748978155976304683e-01 5.891777199311076275e-03
4.142458588987728035e+03 8.818821095473595717e-01 5.193573234882499674e-03
4.146601047576717065e+03 8.836801544555140664e-01 5.130103321667342509e-03
4.150747648624294925e+03 8.812446067184742660e-01 5.711685820087413976e-03
4.154898396272920763e+03 8.749308361241578957e-01 5.890838801857255745e-03
4.159053294669195566e+03 8.684897553035343387e-01 5.773819617144753183e-03
4.163212347963865795e+03 8.607057131535036376e-01 5.686782607196020495e-03
4.167375560311830668e+03 8.495170000730390969e-01 5.558825484210390411e-03
4.171542935872143971e+03 8.398419329452686544e-01 4.568995826541655605e-03
4.175714478808017702e+03 8.344399950683302203e-01 4.402198041984842214e-03
4.179890193286827525e+03 8.347539607025245001e-01 3.952199402837322517e-03
4.184070083480115500e+03 8.374158067575258046e-01 3.758885529061667743e-03
4.188254153563597356e+03 8.411222053925520026e-01 4.113352378172436749e-03
4.192442407717161586e+03 8.490163569305292368e-01 4.113458880578403989e-03
4.196634850124880359e+03 8.602664112369543536e-01 4.398240760149794114e-03
4.200831484975006788e+03 8.705460132559845743e-01 4.644931649433796383e-03
4.205032316459983122e+03 8.825268141207240902e-01 5.936294770076387152e-03
4.209237348776444378e+03 8.911916852124439625e-01 6.253108279110708781e-03
4.213446586125221984e+03 8.979092215914167285e-01 5.421538134924961880e-03
4.217660032711349231e+03 8.968152657818317941e-01 4.230933753760158546e-03
4.221877692744061278e+03 8.880374828186780034e-01 4.393573745557950889e-03
4.226099570436806971e+03 8.719625842261047310e-01 5.348022058500115361e-03
4.230325670007245208e+03 8.502648855852710241e-01 6.084559980221596401e-03
4.234555995677254032e+03 8.282572153134196702e-01 5.509678215692906736e-03
4.238790551672932452e+03 8.084274268116359297e-01 5.156615546347539936e-03
4.243029342224606808e+03 7.900954439337427582e-01 4.686568950930601087e-03
4.247272371566832589e+03 7.745619667552823273e-01 3.079063389993041706e-03
4.251519643938400804e+03 7.686586894987476049e-01 3.520846082055638111e-03
4.255771163582340705e+03 7.698616039229482233e-01 3.737529783277210738e-03
4.260026934745924336e+03 7.762418810374976941e-01 3.180104867185488352e-03
4.264286961680671993e+03 7.875182511984643030e-01 2.764801248366157392e-03
4.268551248642354039e+03 8.018317002777390901e-01 2.810156631077039870e-03
4.272819799890998183e+03 8.207313400835722916e-01 2.987875014889220578e-03
4.277092619690890388e+03 8.432409525907333947e-01 4.662554180854829554e-03
4.281369712310583054e+03 8.640641484342681533e-01 5.458492950405690464e-03
4.285651082022895025e+03 8.825996436223978447e-01 5.251131955801988799e-03
4.289936733104918858e+03 8.968412609003518776e-01 5.029623623460499800e-03
4.294226669838025373e+03 9.079053598807753644e-01 4.496098239609009305e-03
4.298520896507864563e+03 9.131519210411446208e-01 4.816727236580034023e-03
4.302819417404373780e+03 9.148706326740883021e-01 4.855140725910107175e-03
4.307122236821779552e+03 9.117434726818535173e-01 4.937224713886739259e-03
4.311429359058603040e+03 9.052790432816152366e-01 4.422394109014945139e-03
4.315740788417662770e+03 8.987897173719634480e-01 4.352892108566264184e-03
4.320056529206081905e+03 8.934609192351120610e-01 4.119925514708293324e-03
4.324376585735290064e+03 8.888666765595725217e-01 3.602947508312939924e-03
4.328700962321026054e+03 8.872811990908104907e-01 3.350693367301794089e-03
4.333029663283348782e+03 8.936212502806067937e-01 3.433656152458530383e-03
4.337362692946633615e+03 9.032348057862423785e-01 3.231850573581971069e-03
4.341700055639581478e+03 9.128581797007521148e-01 3.221652548877448896e-03
4.346041755695222491e+03 9.249439895646210941e-01 3.300562304609682470e-03
4.350387797450919606e+03 9.374940063105843269e-01 3.187181539863204790e-03
4.354738185248371337e+03 9.528426691255811321e-01 3.467827516553466383e-03
4.359092923433621763e+03 9.702971328821636821e-01 2.867995698928337868e-03
4.363452016357056891e+03 9.860848338671384106e-01 2.820916638195357373e-03
4.367815468373414660e+03 1.000876105672364957e+00 3.283860693807927333e-03
4.372183283841789489e+03 1.015740666053934316e+00 3.356786074708336797e-03
4.376555467125633186e+03 1.030727173109756922e+00 3.058657042802286237e-03
4.380932022592760404e+03 1.046017461406673732e+00 3.097317702240832797e-03
4.385312954615354101e+03 1.062506297663311727e+00 3.983428618061468120e-03
4.389698267569970994e+03 1.076300440672251613e+00 4.261122260778303465e-03
4.394087965837542470e+03 1.087722353421224142e+00 4.000437506258850730e-03
4.398482053803381859e+03 1.095262085911997918e+00 4.071770635705046493e-03
4.402880535857186260e+03 1.100445968942800334e+00 4.959332084845245736e-03
4.407283416393044718e+03 1.104327147013744126e+00 5.210691100269619798e-03
4.411690699809440048e+03 1.107016254503823127e+00 5.028188848049910085e-03
4.416102390509250654e+03 1.112842573766696042e+00 4.954519963124275755e-03
4.420518492899761441e+03 1.120535417630193153e+00 4.979315350965452663e-03
4.424939011392662906e+03 1.128309836015067846e+00 5.086070880567540586e-03
4.429363950404056595e+03 1.138557509022505521e+00 5.564941617036836888e-03
4.433793314354462382e+03 1.147959018303899681e+00 5.472805343868267051e-03
4.438227107668818462e+03 1.160187754459803156e+00 4.679243382622766401e-03
4.442665334776488635e+03 1.170841025912910727e+00 4.793002676567118502e-03
4.447108000111265937e+03 1.181228706103029769e+00 5.084426095082364254e-03
4.451555108111379013e+03 1.190942673891021153e+00 5.119194002690868883e-03
4.456006663219492111e+03 1.200754886510655872e+00 4.610686501449988428e-03
4.460462669882713271e+03 1.211074726394911760e+00 4.231633737410031744e-03
4.464923132552597053e+03 1.221932726102989308e+00 4.509946429616284308e-03
4.469388055685150903e+03 1.234265148729703832e+00 5.217711507999613606e-03
4.473857443740837880e+03 1.244777575670347192e+00 4.916570333312791745e-03
4.478331301184580298e+03 1.251970557164161280e+00 4.015292075584243892e-03
4.482809632485766087e+03 1.254371694603154230e+00 4.808510205120810309e-03
4.487292442118253348e+03 1.253881054233375147e+00 5.325572892647735014e-03
4.491779734560373072e+03 1.252284593408177438e+00 5.254508481495080534e-03
4.496271514294934605e+03 1.246293520939802058e+00 4.556278723431535574e-03
4.500767785809231100e+03 1.238482322427766569e+00 3.921597569400162193e-03
4.505268553595042249e+03 1.231600053924343907e+00 5.042367578471186607e-03
4.509773822148638828e+03 1.222834406616908121e+00 5.727122532473157002e-03
4.514283595970789065e+03 1.210814024425266089e+00 5.288604683953416173e-03
