# starting wavelength: 3402.280
# ending wavelength: 7236.250
# wav flux eflux
3.405485140683430018e+03 -1.588614286792007502e-01 8.825963684674133225e-02
3.408890625824114522e+03 -1.176140148593196044e-01 7.598788948745006933e-02
3.412299516449939802e+03 -7.133046899545979203e-02 5.832175782134393222e-02
3.415711815966390986e+03 -3.274717991955072155e-02 4.653000667644927729e-02
3.419127527782358356e+03 8.723522641404538036e-03 3.715875871455023155e-02
3.422546655310141887e+03 4.486241449893411948e-02 3.028990477462093628e-02
3.425969201965453522e+03 7.550987125688297941e-02 2.475144350815569605e-02
3.429395171167419903e+03 1.027446874790005071e-01 2.103565390124449708e-02
3.432824566338588284e+03 1.278173629358612118e-01 1.842626980506087073e-02
3.436257390904928343e+03 1.526668535397796012e-01 1.718979037608748400e-02
3.439693648295834464e+03 1.691723763551040427e-01 1.563050000747343710e-02
3.443133341944131189e+03 1.832184375937546406e-01 1.437833204593033654e-02
3.446576475286076402e+03 1.912118115856096812e-01 1.348817092045144321e-02
3.450023051761363604e+03 1.942578112121560452e-01 1.292485989055181840e-02
3.453473074813126004e+03 1.987354427758904196e-01 1.247039501579286745e-02
3.456926547887940615e+03 1.983137761088052398e-01 1.201531724661705249e-02
3.460383474435829612e+03 1.895656628209734795e-01 1.270799526363628612e-02
3.463843857910266706e+03 1.818883648727255831e-01 1.276687734990441733e-02
3.467307701768178049e+03 1.748951480031986083e-01 1.310383953361689106e-02
3.470775009469947236e+03 1.634499063536706265e-01 1.341528018244560368e-02
3.474245784479418489e+03 1.529905790215792538e-01 1.342455426130145964e-02
3.477720030263898934e+03 1.376384935645167951e-01 1.356052613171860981e-02
3.481197750294164052e+03 1.230375202780887023e-01 1.329418056059219512e-02
3.484678948044459503e+03 1.137007840967619310e-01 1.336828403925301341e-02
3.488163626992504760e+03 1.081016113545739121e-01 1.529362120784991987e-02
3.491651790619498570e+03 9.683660325707915684e-02 1.539766234249720020e-02
3.495143442410119405e+03 8.942303897746808894e-02 1.561893485798974447e-02
3.498638585852530468e+03 8.093448500807463863e-02 1.534939176980762779e-02
3.502137224438384237e+03 7.261350258793132506e-02 1.475499976590371499e-02
3.505639361662823831e+03 6.965490427961362752e-02 1.464079737721782869e-02
3.509145001024487556e+03 5.875946897381677247e-02 1.634477641291915209e-02
3.512654146025513455e+03 5.731750335812896280e-02 1.651494456220534840e-02
3.516166800171540217e+03 4.894533645100107577e-02 1.879847062658125331e-02
3.519682966971712631e+03 4.027765476996562899e-02 1.791274821453473637e-02
3.523202649938685681e+03 5.093334344844170636e-02 1.794384848837972044e-02
3.526725852588625457e+03 6.874154219815439837e-02 1.833184404910828333e-02
3.530252578441215064e+03 8.819747536991161263e-02 1.855988824124579772e-02
3.533782831019657806e+03 1.091720155710896034e-01 1.883361770964639068e-02
3.537316613850678550e+03 1.346517044099936333e-01 1.952773141899005402e-02
3.540853930464530094e+03 1.583004921028208223e-01 1.990877016068150207e-02
3.544394784394995895e+03 1.796331184191899411e-01 2.060821451207205113e-02
3.547939179179392340e+03 2.091361232402373926e-01 2.119926664743245620e-02
3.551487118358572843e+03 2.396120884071276103e-01 2.149620625992608100e-02
3.555038605476932389e+03 2.661834416589209384e-01 2.043001661714117026e-02
3.558593644082410719e+03 2.893845679300854346e-01 1.969910406900319058e-02
3.562152237726494150e+03 3.066249638929510746e-01 1.901629667892408906e-02
3.565714389964221937e+03 3.139210736511775512e-01 1.907036521508422705e-02
3.569280104354187188e+03 3.214709503116712774e-01 1.797835571136143298e-02
3.572849384458542772e+03 3.149642971015871873e-01 1.940468132420280697e-02
3.576422233843002232e+03 3.010252077983278651e-01 1.911578400054158092e-02
3.579998656076846601e+03 2.870062333057566417e-01 1.872206880348122049e-02
3.583578654732924406e+03 2.652887853022786735e-01 1.774685125648837666e-02
3.587162233387658489e+03 2.398149418642232522e-01 1.586962849135608450e-02
3.590749395621047370e+03 2.135725318692752450e-01 1.343707165894309115e-02
3.594340145016669794e+03 1.964616634583967181e-01 1.445040666046039542e-02
3.597934485161687462e+03 1.776434081404393295e-01 1.411129798672550867e-02
3.601532419646850485e+03 1.544511162274466998e-01 1.727807483870855143e-02
3.605133952066498296e+03 1.426196760455784585e-01 1.893031117553203510e-02
3.608739086018566013e+03 1.376160062961759856e-01 2.007196698356578102e-02
3.612347825104585809e+03 1.398090052500425839e-01 2.019017243998092598e-02
3.615960172929691907e+03 1.544838477887764960e-01 1.964664324632900416e-02
3.619576133102622407e+03 1.794325160486394399e-01 1.956186560120602713e-02
3.623195709235726554e+03 2.023285036541252468e-01 1.782810046008230509e-02
3.626818904944963379e+03 2.426408956237985359e-01 1.848526529549866446e-02
3.630445723849909427e+03 2.956533389049812444e-01 2.087937606953363737e-02
3.634076169573760581e+03 3.525163325584614316e-01 2.319374382271865986e-02
3.637710245743335690e+03 4.113589358959466868e-01 2.417883945505108767e-02
3.641347955989080219e+03 4.666476970413537817e-01 2.382877567703993449e-02
3.644989303945070333e+03 5.152474576159897790e-01 2.271603822455111471e-02
3.648634293249016537e+03 5.602533384715009390e-01 2.060835094145299640e-02
3.652282927542266862e+03 5.978093769271731750e-01 1.836020115088374954e-02
3.655935210469810499e+03 6.168316194433886013e-01 1.867721298230181487e-02
3.659591145680281443e+03 6.287066141662955854e-01 1.940475708235961730e-02
3.663250736825963031e+03 6.266198829043543306e-01 1.953802693516473732e-02
3.666913987562790226e+03 6.007500873417922493e-01 1.963858293940979813e-02
3.670580901550354156e+03 5.590035176062528866e-01 1.489115250838884269e-02
3.674251482451905758e+03 5.169715617425476584e-01 1.279808634321516828e-02
3.677925733934358959e+03 4.775678906195089390e-01 1.165651574986490725e-02
3.681603659668294313e+03 4.431771514732991135e-01 1.123146597029414315e-02
3.685285263327964003e+03 4.221429650670222578e-01 1.056264039191838131e-02
3.688970548591293209e+03 4.006553533077001350e-01 9.293430705453038093e-03
3.692659519139885560e+03 3.772468409962242974e-01 9.119594962486795089e-03
3.696352178659026777e+03 3.598061510444973687e-01 9.188268902039983810e-03
3.700048530837686940e+03 3.444125180476743098e-01 9.649606599053383096e-03
3.703748579368525952e+03 3.353981428768716966e-01 1.111624059857771983e-02
3.707452327947895355e+03 3.288436750582870993e-01 1.375689168517345122e-02
3.711159780275844696e+03 3.235475249007383480e-01 1.359594511473430356e-02
3.714870940056121526e+03 3.080165668894147557e-01 1.310184068098106495e-02
3.718585810996179134e+03 2.903517614435356942e-01 1.110405886643932825e-02
3.722304396807176545e+03 2.625372624077129124e-01 1.176785366228065045e-02
3.726026701203984885e+03 2.304581819806899023e-01 1.297898156061245631e-02
3.729752727905190113e+03 1.902733923195881471e-01 1.491118047938479532e-02
3.733482480633096657e+03 1.475708840510076558e-01 1.513053425675347022e-02
3.737215963113731050e+03 1.164913643335000332e-01 1.448931776718743319e-02
3.740953179076846027e+03 9.245975175332973861e-02 1.346373728094812233e-02
3.744694132255923705e+03 7.225573110339608696e-02 1.108072874036430087e-02
3.748438826388181042e+03 6.902149355409578635e-02 1.102916152719809681e-02
3.752187265214570289e+03 8.510293902862914317e-02 1.145480352924435792e-02
3.755939452479786269e+03 1.094580859495454112e-01 1.243750470037342966e-02
3.759695391932267285e+03 1.464980499277044879e-01 1.284104240921436942e-02
3.763455087324201031e+03 1.899800045228863810e-01 1.099694191875096212e-02
3.767218542411526414e+03 2.347229080003511992e-01 5.993626152348519379e-03
3.770985760953939007e+03 2.677552860418352942e-01 5.991144694699646230e-03
3.774756746714894234e+03 2.907155067858794295e-01 7.529791907830020448e-03
3.778531503461610555e+03 3.127988313749753280e-01 8.002695752429102305e-03
3.782310034965073100e+03 3.267117802248511449e-01 7.832171549610139269e-03
3.786092345000039586e+03 3.364217303703472828e-01 7.835245806319291947e-03
3.789878437345040766e+03 3.349861903170457955e-01 7.490403401287371032e-03
3.793668315782387253e+03 3.279646086284648820e-01 7.359419115748664850e-03
3.797461984098170888e+03 3.176232231790933613e-01 8.066223450261950090e-03
3.801259446082270188e+03 3.042285967641746303e-01 9.420458915117054660e-03
3.805060705528353537e+03 2.961126235896790471e-01 9.662731184470130935e-03
3.808865766233883278e+03 2.889500504103856282e-01 8.994831132490100495e-03
3.812674632000118436e+03 2.907316981426193436e-01 8.871006370511800784e-03
3.816487306632119726e+03 3.033975063999223565e-01 1.005943196077605309e-02
3.820303793938753188e+03 3.119518546421093941e-01 1.196920589374989019e-02
3.824124097732693372e+03 3.235909009012091775e-01 1.386183474161233747e-02
3.827948221830427428e+03 3.257130433326219099e-01 1.312615704811451525e-02
3.831776170052258749e+03 3.191311915030282664e-01 1.315809845808010338e-02
3.835607946222312421e+03 3.093413064381156929e-01 1.374521813061967482e-02
3.839443554168536139e+03 2.959220257861831516e-01 1.493556234987581700e-02
3.843282997722705659e+03 2.789206137184048195e-01 1.680531837737633816e-02
3.847126280720429804e+03 2.650270807896436542e-01 1.547866715197689612e-02
3.850973407001151372e+03 2.515373870366290343e-01 1.057550896605042624e-02
3.854824380408153957e+03 2.591606177738456918e-01 1.470478987199432160e-02
3.858679204788563311e+03 2.726130626832679038e-01 1.701040690342852518e-02
3.862537883993353262e+03 2.886305458437297133e-01 1.639047990521020487e-02
3.866400421877347981e+03 3.089702612255554870e-01 1.482003245939882141e-02
3.870266822299226533e+03 3.337075439647541053e-01 1.343280390913547187e-02
3.874137089121526969e+03 3.560399840540962590e-01 1.313345767715038553e-02
3.878011226210649966e+03 3.763751158316381296e-01 1.323014991752946914e-02
3.881889237436861549e+03 3.913539914759437410e-01 1.239475230016883096e-02
3.885771126674299921e+03 4.034034048620219193e-01 1.255389773431737736e-02
3.889656897800975457e+03 4.206754257343934822e-01 1.120842374130866757e-02
3.893546554698777527e+03 4.455216404568858590e-01 1.131228663667406889e-02
3.897440101253477678e+03 4.803170670902721096e-01 1.332550423446655051e-02
3.901337541354732366e+03 5.068984377290243204e-01 1.308881603447272120e-02
3.905238878896088409e+03 5.339926377899731902e-01 1.291774746400589993e-02
3.909144117774985716e+03 5.632689352734682187e-01 1.250166443035281849e-02
3.913053261892762293e+03 5.854774951600489885e-01 1.207263553162697158e-02
3.916966315154656058e+03 5.892274538139762319e-01 1.545964961506304976e-02
3.920883281469812118e+03 5.958592015208790116e-01 1.515464652896532545e-02
3.924804164751283224e+03 5.995500853863581225e-01 1.453942097459082726e-02
3.928728968916035683e+03 6.127206573284229574e-01 1.582088068062807024e-02
3.932657697884953450e+03 6.074358906218070286e-01 1.685686075718704699e-02
3.936590355582839493e+03 5.963160780820810913e-01 1.813273744670551579e-02
3.940526945938423523e+03 5.904754183773865961e-01 1.742920717073309297e-02
3.944467472884363360e+03 5.941581982725167022e-01 1.812046053499682605e-02
3.948411940357249023e+03 5.961343007443185016e-01 1.801783123207785497e-02
3.952360352297607733e+03 5.992439286700550483e-01 1.883063614148367329e-02
3.956312712649906643e+03 6.122063607506554872e-01 1.874410915972639022e-02
3.960269025362557841e+03 6.230517806904832812e-01 1.796784180927772992e-02
3.964229294387921527e+03 6.458391038459555533e-01 1.863065643344405040e-02
3.968193523682310570e+03 6.741305336866969533e-01 1.915726834061748027e-02
3.972161717205994591e+03 6.999619968484180887e-01 1.935131883362488370e-02
3.976133878923201792e+03 7.190000771398509238e-01 2.130230415235412691e-02
3.980110012802126221e+03 7.606796557050382601e-01 2.344344005828952887e-02
3.984090122814929600e+03 8.023521249527126864e-01 2.400571238217373907e-02
3.988074212937745870e+03 8.307009089087837861e-01 2.363867715451307625e-02
3.992062287150684824e+03 8.429643195970238922e-01 2.248997143286644157e-02
3.996054349437837118e+03 8.584498850486461663e-01 2.281645413132210240e-02
4.000050403787276082e+03 8.671482188109432832e-01 2.182951479020599564e-02
4.004050454191064546e+03 8.671512640956304807e-01 1.978800041205453289e-02
4.008054504645257111e+03 8.389199381287519852e-01 2.330899276707874487e-02
4.012062559149903791e+03 8.117839266274082810e-01 2.294844170080676676e-02
4.016074621709055009e+03 7.939304992519118365e-01 2.253699586933300553e-02
4.020090696330765240e+03 7.798499552246994648e-01 2.241324866211164696e-02
4.024110787027097558e+03 7.637568630699098637e-01 2.146239795013286586e-02
4.028134897814125907e+03 7.541046679134006947e-01 2.264244009895204773e-02
4.032163032711941469e+03 7.550835483134771264e-01 2.659921602182932499e-02
4.036195195744654484e+03 7.463605214468213012e-01 2.594320374241743110e-02
4.040231390940400615e+03 7.408064722567365701e-01 2.169426765502749724e-02
4.044271622331342314e+03 7.245643443751850210e-01 2.250567573748492312e-02
4.048315893953675186e+03 6.907844053190022038e-01 2.831648605760983192e-02
4.052364209847629809e+03 6.660822237161868609e-01 2.469212272114763157e-02
4.056416574057479011e+03 6.699872989975085291e-01 2.738760457206311505e-02
4.060472990631537868e+03 6.661990439861897872e-01 2.769547675662439867e-02
4.064533463622170530e+03 6.587983107652295445e-01 2.690896564309156608e-02
4.068597997085794304e+03 6.575146129650791815e-01 2.677262339399572380e-02
4.072666595082881486e+03 6.718584967700534927e-01 2.604627362070185276e-02
4.076739261677965715e+03 6.954304360167625765e-01 2.488281085222825151e-02
4.080816000939644709e+03 7.229889011457047987e-01 2.442532715526505444e-02
4.084896816940585722e+03 7.440843475390285233e-01 2.490569909027424630e-02
4.088981713757527814e+03 7.753676018186372865e-01 2.469510956166483251e-02
4.093070695471286854e+03 8.119083012046289793e-01 2.522069281432519350e-02
4.097163766166759160e+03 8.413213134275441263e-01 2.593605262120468255e-02
4.101260929932927866e+03 8.665878570665310754e-01 2.901173036190080740e-02
4.105362190862862008e+03 8.880599445936550040e-01 2.889800547903038919e-02
4.109467553053726078e+03 8.938522177849388406e-01 2.403500250627479962e-02
4.113577020606780934e+03 8.807709174225614168e-01 2.255984560873909583e-02
4.117690597627389252e+03 8.522316934089371188e-01 2.206659063061653173e-02
4.121808288225018259e+03 7.956013794632514902e-01 2.305631622656674137e-02
4.125930096513244280e+03 7.189500519847786819e-01 1.597925173428918488e-02
4.130056026609759101e+03 6.496215477645264080e-01 1.255893683347720016e-02
4.134186082636369974e+03 5.955777016914921562e-01 1.244156891563951740e-02
4.138320268719007800e+03 5.440324588816356499e-01 1.187869090121507383e-02
4.142458588987728035e+03 5.084001131961874975e-01 1.202692995178295671e-02
4.146601047576717065e+03 4.923941415895645157e-01 1.118222465625392202e-02
4.150747648624294925e+03 5.131289673770783599e-01 1.959977037765371979e-02
4.154898396272920763e+03 5.441858698230506164e-01 2.139825500383535709e-02
4.159053294669195566e+03 5.728926304293002758e-01 1.994834671275840660e-02
4.163212347963865795e+03 5.994913548692741845e-01 1.988069299988865640e-02
4.167375560311830668e+03 6.301227783046188247e-01 1.975997870749851212e-02
4.171542935872143971e+03 6.603423007284328072e-01 1.945325448129016713e-02
4.175714478808017702e+03 6.874296062583874489e-01 1.928317262695595363e-02
4.179890193286827525e+03 7.082372169932253936e-01 1.847908819659558124e-02
4.184070083480115500e+03 7.172195927127111847e-01 1.895232875483892146e-02
4.188254153563597356e+03 7.155624156180679929e-01 1.744825232893925868e-02
4.192442407717161586e+03 7.072965965349102824e-01 1.779187016673583130e-02
4.196634850124880359e+03 7.016157942452373453e-01 1.778291993485989556e-02
4.200831484975006788e+03 7.015711174605214762e-01 1.749058391416635772e-02
4.205032316459983122e+03 7.064514234580725471e-01 1.771419608290475400e-02
4.209237348776444378e+03 7.129920946244652225e-01 1.763235838098964336e-02
4.213446586125221984e+03 7.257241474139389803e-01 1.751634892162392404e-02
4.217660032711349231e+03 7.393275276963389153e-01 1.713945912294827581e-02
4.221877692744061278e+03 7.529300649776757837e-01 1.611223340015257438e-02
4.226099570436806971e+03 7.724693501028693232e-01 1.794513177585489033e-02
4.230325670007245208e+03 8.064891076226670119e-01 1.373769995669484219e-02
4.234555995677254032e+03 8.250462333831320993e-01 1.255957660996734858e-02
4.238790551672932452e+03 8.285019965942752584e-01 1.951555805888619682e-02
4.243029342224606808e+03 8.417660081214382028e-01 1.907716402831857033e-02
4.247272371566832589e+03 8.631070324875570465e-01 1.968555493919465701e-02
4.251519643938400804e+03 8.806228977474954700e-01 1.967546245655176981e-02
4.255771163582340705e+03 9.013492359513541885e-01 2.056070231020421316e-02
4.260026934745924336e+03 9.141306820373488184e-01 2.048661735371224216e-02
4.264286961680671993e+03 9.223572083887845441e-01 2.054870503007661872e-02
4.268551248642354039e+03 9.323276384074181689e-01 2.043723561241198375e-02
4.272819799890998183e+03 9.313020166471618344e-01 2.201408860167635914e-02
4.277092619690890388e+03 9.403207693041409909e-01 2.175416197212959660e-02
4.281369712310583054e+03 9.551106546476293424e-01 2.160607825529914025e-02
4.285651082022895025e+03 9.668732255212458826e-01 2.167745140216531877e-02
4.289936733104918858e+03 9.700544678594890113e-01 2.260694100110920840e-02
4.294226669838025373e+03 9.654851230230706571e-01 2.487137392222271357e-02
4.298520896507864563e+03 9.519942677815258492e-01 2.677610586993240185e-02
4.302819417404373780e+03 9.185138068981512083e-01 2.555892924857290638e-02
4.307122236821779552e+03 8.783945338805042580e-01 2.221596681789452660e-02
4.311429359058603040e+03 8.243605869063777014e-01 2.108535470262672823e-02
4.315740788417662770e+03 7.455515645820660620e-01 2.446128672908798665e-02
4.320056529206081905e+03 6.549435601598881940e-01 1.938879836824582842e-02
4.324376585735290064e+03 5.756374487773660009e-01 1.601848976110428063e-02
4.328700962321026054e+03 5.105314450692532979e-01 1.368966195465798341e-02
4.333029663283348782e+03 4.610673652426010016e-01 9.993112524592215329e-03
4.337362692946633615e+03 4.432713205756586561e-01 1.120081872009395622e-02
4.341700055639581478e+03 4.480497237949105926e-01 1.258973767558031406e-02
4.346041755695222491e+03 4.703561347087055200e-01 1.129454413213914869e-02
4.350387797450919606e+03 5.090114314542986129e-01 9.020011392269093597e-03
4.354738185248371337e+03 5.532142748516217790e-01 8.976000469908092944e-03
4.359092923433621763e+03 6.074102624932241623e-01 7.537670246134764267e-03
4.363452016357056891e+03 6.619856616701994545e-01 7.492298221179649782e-03
4.367815468373414660e+03 7.213605677193076771e-01 1.229798034748176040e-02
4.372183283841789489e+03 7.769373032426795112e-01 1.442439585375630308e-02
4.376555467125633186e+03 8.207737063703299807e-01 1.302615878816458690e-02
4.380932022592760404e+03 8.542092311565723239e-01 1.246100277265691642e-02
4.385312954615354101e+03 8.688925516767593837e-01 1.566080600175746504e-02
4.389698267569970994e+03 8.844904079462457824e-01 1.699153306633007302e-02
4.394087965837542470e+03 8.984122056891065133e-01 1.706770548939347265e-02
4.398482053803381859e+03 9.107632628222125382e-01 1.542660852168088043e-02
4.402880535857186260e+03 9.309014625663365461e-01 1.460775324184581704e-02
4.407283416393044718e+03 9.557181211398843024e-01 1.432468175118423864e-02
4.411690699809440048e+03 9.856412826402221050e-01 1.529681437047705067e-02
4.416102390509250654e+03 1.018298922610538559e+00 1.671705711053623339e-02
4.420518492899761441e+03 1.054244227525545918e+00 1.626234688338112216e-02
4.424939011392662906e+03 1.086356492837177612e+00 1.346859379437822732e-02
4.429363950404056595e+03 1.102227181276496548e+00 1.204438131879180703e-02
4.433793314354462382e+03 1.109416548166117567e+00 1.093909395089017432e-02
