# starting wavelength: 3652.500
# ending wavelength: 7397.140
# wav flux eflux
3.655935210469810499e+03 1.053437119061501503e+00 4.480503036567952055e-03
3.659591145680281443e+03 1.057302978293544360e+00 3.199310298297187213e-03
3.663250736825963031e+03 1.058699531498020097e+00 2.375159401469342096e-03
3.666913987562790226e+03 1.058144785482054262e+00 1.813510263605367734e-03
3.670580901550354156e+03 1.056114683078989147e+00 1.421234680580353528e-03
3.674251482451905758e+03 1.052743878386812604e+00 1.351426486485403150e-03
3.677925733934358959e+03 1.048864146629000071e+00 1.172379892303315090e-03
3.681603659668294313e+03 1.044698523820835057e+00 9.388967894334406461e-04
3.685285263327964003e+03 1.040115388562134813e+00 7.774045077380992716e-04
3.688970548591293209e+03 1.035256075749440896e+00 6.622303021075258249e-04
3.692659519139885560e+03 1.030265375547355200e+00 5.735157994200939515e-04
3.696352178659026777e+03 1.025341683066270049e+00 5.124314199523167775e-04
3.700048530837686940e+03 1.020670100712803174e+00 4.926136263648310228e-04
3.703748579368525952e+03 1.016444749353335508e+00 5.578047864728601047e-04
3.707452327947895355e+03 1.012440643583815136e+00 5.622148851095081553e-04
3.711159780275844696e+03 1.008614714832852366e+00 5.362092022311362987e-04
3.714870940056121526e+03 1.005425476146928787e+00 5.904012890537927837e-04
3.718585810996179134e+03 1.002529641633546742e+00 6.094242900820755595e-04
3.722304396807176545e+03 9.998612143708335287e-01 6.108373443455396377e-04
3.726026701203984885e+03 9.977871256169350556e-01 5.776074705294842460e-04
3.729752727905190113e+03 9.960943832601693027e-01 5.537889660139384829e-04
3.733482480633096657e+03 9.948451951080440336e-01 6.045416759473944092e-04
3.737215963113731050e+03 9.942933341979307560e-01 6.670717592377313704e-04
3.740953179076846027e+03 9.942707012156031254e-01 7.386850944701252916e-04
3.744694132255923705e+03 9.946997242038211340e-01 8.566448507265715922e-04
3.748438826388181042e+03 9.960544665029077427e-01 8.644609732882933308e-04
3.752187265214570289e+03 9.982866826069255461e-01 8.254702303321007463e-04
3.755939452479786269e+03 1.001317480265559112e+00 7.438150685585196396e-04
3.759695391932267285e+03 1.005290106015913842e+00 7.306739406893658553e-04
3.763455087324201031e+03 1.010251555859449368e+00 7.342146749940552932e-04
3.767218542411526414e+03 1.016043492031573292e+00 7.822614263846551464e-04
3.770985760953939007e+03 1.022790954137434483e+00 9.062951042594838543e-04
3.774756746714894234e+03 1.029991643058993711e+00 1.020593056793903325e-03
3.778531503461610555e+03 1.037984195583687264e+00 1.147285513939331038e-03
3.782310034965073100e+03 1.046224937404416133e+00 1.222821222351038210e-03
3.786092345000039586e+03 1.054619770290936120e+00 1.198071209666407705e-03
3.789878437345040766e+03 1.063012764259563037e+00 1.147810855683070817e-03
3.793668315782387253e+03 1.071256384699567299e+00 1.061612198064123451e-03
3.797461984098170888e+03 1.079392196100563250e+00 1.005926439178394041e-03
3.801259446082270188e+03 1.087212504274815528e+00 9.097918038208001410e-04
3.805060705528353537e+03 1.094756706011297931e+00 7.791919702562728279e-04
3.808865766233883278e+03 1.101590319197951695e+00 7.503562391803680941e-04
3.812674632000118436e+03 1.107257463637134842e+00 8.216869696452261656e-04
3.816487306632119726e+03 1.112361376849688499e+00 7.890070642321241664e-04
3.820303793938753188e+03 1.116849769968631501e+00 7.179797523350434302e-04
3.824124097732693372e+03 1.120899436290150986e+00 6.666457994938569664e-04
3.827948221830427428e+03 1.124305845529624204e+00 6.345246569437945280e-04
3.831776170052258749e+03 1.127057135750800576e+00 5.683875018453972200e-04
3.835607946222312421e+03 1.129298063986410749e+00 5.643175658886952217e-04
3.839443554168536139e+03 1.131435504478484289e+00 5.257801414387445029e-04
3.843282997722705659e+03 1.133159243651066461e+00 5.092664285103967346e-04
3.847126280720429804e+03 1.134458757478549185e+00 5.166021004230664671e-04
3.850973407001151372e+03 1.135235121191906282e+00 5.377330465864187331e-04
3.854824380408153957e+03 1.135765643167790495e+00 5.541446563594584415e-04
3.858679204788563311e+03 1.135749404006248353e+00 6.534766049207681561e-04
3.862537883993353262e+03 1.135467722923767520e+00 6.240743197009242238e-04
3.866400421877347981e+03 1.135428662180531401e+00 6.145120410605864640e-04
3.870266822299226533e+03 1.135097708935220107e+00 5.728479971490099817e-04
3.874137089121526969e+03 1.134609916491694070e+00 5.260880333119833481e-04
3.878011226210649966e+03 1.134287649667208075e+00 5.161094339273290203e-04
3.881889237436861549e+03 1.134184964622562797e+00 6.147171442141395213e-04
3.885771126674299921e+03 1.134232438552927880e+00 6.958157270132609177e-04
3.889656897800975457e+03 1.134439176779457270e+00 6.304068640307849839e-04
3.893546554698777527e+03 1.134541322331023672e+00 5.883537716060776527e-04
3.897440101253477678e+03 1.134336202738889465e+00 5.389696534383276805e-04
3.901337541354732366e+03 1.133995533105837783e+00 4.914104900517419832e-04
3.905238878896088409e+03 1.133442275594179982e+00 4.832231342228179372e-04
3.909144117774985716e+03 1.132927291926911773e+00 4.703980199439096064e-04
3.913053261892762293e+03 1.132381003007135511e+00 4.574662354427995480e-04
3.916966315154656058e+03 1.131528358332823503e+00 5.272352550487278272e-04
3.920883281469812118e+03 1.130197986538114874e+00 6.653691862530855105e-04
3.924804164751283224e+03 1.129424129411442657e+00 8.575425414820156758e-04
3.928728968916035683e+03 1.129421214079021407e+00 9.974612086717494185e-04
3.932657697884953450e+03 1.130181688762404102e+00 9.920547470220354019e-04
3.936590355582839493e+03 1.132400041889443765e+00 8.681873834116646954e-04
3.940526945938423523e+03 1.136150466079204335e+00 8.072502813304847577e-04
3.944467472884363360e+03 1.141576562150822038e+00 1.023816824153123877e-03
3.948411940357249023e+03 1.147520680076353994e+00 1.076325937562455995e-03
3.952360352297607733e+03 1.154961228430305908e+00 1.237611322192681829e-03
3.956312712649906643e+03 1.162933738541961803e+00 1.249360144752131646e-03
3.960269025362557841e+03 1.171768215004171942e+00 1.234824922592002612e-03
3.964229294387921527e+03 1.180596335129465269e+00 1.046456565661495371e-03
3.968193523682310570e+03 1.188810978171702004e+00 1.014149955930229502e-03
3.972161717205994591e+03 1.196652056380149709e+00 9.887117253449999657e-04
3.976133878923201792e+03 1.203971005933134997e+00 9.404517125763476714e-04
3.980110012802126221e+03 1.210107609256242611e+00 9.413281903521024179e-04
3.984090122814929600e+03 1.214887558084704500e+00 9.325972080008301714e-04
3.988074212937745870e+03 1.218354699733249280e+00 9.514148962817169574e-04
3.992062287150684824e+03 1.220326137062084593e+00 8.485000802566207640e-04
3.996054349437837118e+03 1.221397868334998194e+00 9.333986926293674855e-04
4.000050403787276082e+03 1.221759975103946960e+00 8.081261420535110380e-04
4.004050454191064546e+03 1.220396167669110854e+00 6.715690241425427897e-04
4.008054504645257111e+03 1.216984137223713569e+00 1.008053631998801023e-03
4.012062559149903791e+03 1.212612285184405669e+00 1.071573909351062693e-03
4.016074621709055009e+03 1.207075071304613001e+00 1.033533945356031412e-03
4.020090696330765240e+03 1.200856535787314439e+00 9.736256794339682779e-04
4.024110787027097558e+03 1.193537026434216886e+00 9.809910930888240434e-04
4.028134897814125907e+03 1.186153380737848373e+00 1.009060696195527868e-03
4.032163032711941469e+03 1.178919658142930871e+00 1.072539480261021231e-03
4.036195195744654484e+03 1.171149447173002178e+00 1.031406853487703158e-03
4.040231390940400615e+03 1.163118066147051266e+00 1.175267485582188413e-03
4.044271622331342314e+03 1.155840246961227447e+00 1.369733259645295430e-03
4.048315893953675186e+03 1.149638652656032045e+00 1.417847131501000051e-03
4.052364209847629809e+03 1.144497713053511001e+00 1.436185431558277808e-03
4.056416574057479011e+03 1.141508657841588947e+00 1.343261015896518151e-03
4.060472990631537868e+03 1.140678444161472793e+00 1.247863789604525091e-03
4.064533463622170530e+03 1.142318998551122178e+00 1.176683012392056331e-03
4.068597997085794304e+03 1.146035375380226373e+00 1.124173736681712389e-03
4.072666595082881486e+03 1.152228982410999691e+00 1.305530652569345624e-03
4.076739261677965715e+03 1.160344401960400340e+00 1.328258774438726385e-03
4.080816000939644709e+03 1.169397764157915631e+00 1.240866111950118421e-03
4.084896816940585722e+03 1.177565919585043419e+00 9.823339936802497931e-04
4.088981713757527814e+03 1.183691209293635360e+00 1.014366291578311244e-03
4.093070695471286854e+03 1.188071465986332509e+00 9.375414249936381153e-04
4.097163766166759160e+03 1.189367521147456364e+00 8.995919691421940543e-04
4.101260929932927866e+03 1.188132348784674663e+00 9.184042720096369803e-04
4.105362190862862008e+03 1.183767195008859963e+00 1.156744739641952634e-03
4.109467553053726078e+03 1.177709947958172521e+00 1.251417200233891861e-03
4.113577020606780934e+03 1.169260469881102438e+00 1.290299376606925293e-03
4.117690597627389252e+03 1.159354604659282417e+00 1.100950807714681226e-03
4.121808288225018259e+03 1.149137321154574787e+00 7.615672775171714558e-04
4.125930096513244280e+03 1.139229305750912857e+00 6.479524154372109240e-04
4.130056026609759101e+03 1.129636985565573681e+00 5.186206100588469908e-04
4.134186082636369974e+03 1.121096609844308034e+00 5.185323054690664252e-04
4.138320268719007800e+03 1.113384678792542992e+00 5.191821127384146093e-04
4.142458588987728035e+03 1.106643348028454765e+00 4.336494789710428760e-04
4.146601047576717065e+03 1.100279223447787391e+00 4.562341587112320055e-04
4.150747648624294925e+03 1.094537755859082084e+00 4.525450398776441536e-04
4.154898396272920763e+03 1.089131518621556660e+00 5.340180686608459251e-04
4.159053294669195566e+03 1.084033111892446000e+00 5.101764550163743941e-04
4.163212347963865795e+03 1.078642306511437887e+00 5.321181061176479161e-04
4.167375560311830668e+03 1.073175003155759422e+00 4.918864788204574314e-04
4.171542935872143971e+03 1.067566670620814229e+00 3.799851408595197422e-04
4.175714478808017702e+03 1.061374341357239626e+00 5.263510425180219698e-04
4.179890193286827525e+03 1.055030397836115519e+00 7.499297326159013030e-04
4.184070083480115500e+03 1.049020650988601755e+00 6.522072838154113024e-04
4.188254153563597356e+03 1.043694749565588609e+00 6.358307857163221803e-04
4.192442407717161586e+03 1.038737163862531565e+00 6.837419597059311242e-04
4.196634850124880359e+03 1.034069058957258314e+00 7.371608719633737346e-04
4.200831484975006788e+03 1.029964671559616907e+00 7.506483089145040300e-04
4.205032316459983122e+03 1.026068767972557527e+00 7.031258899024994289e-04
4.209237348776444378e+03 1.022599055699348725e+00 6.482723846108697126e-04
4.213446586125221984e+03 1.019119429131924326e+00 6.270394385576625413e-04
4.217660032711349231e+03 1.015942104712516558e+00 6.384516630637204152e-04
4.221877692744061278e+03 1.012982678001690617e+00 7.317933875822333484e-04
4.226099570436806971e+03 1.010450063656483710e+00 7.643166481250098431e-04
4.230325670007245208e+03 1.008752390335245774e+00 6.471761232808204058e-04
4.234555995677254032e+03 1.008312245266921092e+00 5.106602814858141699e-04
4.238790551672932452e+03 1.009286876862412363e+00 3.866930589082067824e-04
4.243029342224606808e+03 1.012116736068669143e+00 5.931069860421078104e-04
4.247272371566832589e+03 1.016373327512196001e+00 7.355069495815407064e-04
4.251519643938400804e+03 1.021440523677601409e+00 6.664577590671561013e-04
4.255771163582340705e+03 1.027129868759550479e+00 6.046956396397500577e-04
4.260026934745924336e+03 1.032760041316877819e+00 6.264395039708093227e-04
4.264286961680671993e+03 1.039073763958441310e+00 5.976183650936890690e-04
4.268551248642354039e+03 1.045247910144224468e+00 6.447929245676109911e-04
4.272819799890998183e+03 1.051806593224773545e+00 6.304128717273451560e-04
4.277092619690890388e+03 1.058154049374331773e+00 6.156443602599482191e-04
4.281369712310583054e+03 1.064406872676272542e+00 5.994511899313107817e-04
4.285651082022895025e+03 1.070446208086654583e+00 5.704420408303963533e-04
4.289936733104918858e+03 1.076615366063633505e+00 5.712250741987870547e-04
4.294226669838025373e+03 1.082434282594741504e+00 5.861080341934126478e-04
4.298520896507864563e+03 1.088478472334998060e+00 5.764026752380548707e-04
4.302819417404373780e+03 1.094364558416633937e+00 6.806039235646073890e-04
4.307122236821779552e+03 1.100481986080110941e+00 6.991879050700641274e-04
4.311429359058603040e+03 1.106657559746017094e+00 7.019451859540560158e-04
4.315740788417662770e+03 1.112940356982522028e+00 6.008704845887629818e-04
4.320056529206081905e+03 1.119635897744618802e+00 5.395342715117334943e-04
4.324376585735290064e+03 1.127059136213715007e+00 8.582094047265717779e-04
4.328700962321026054e+03 1.134452629674703728e+00 1.029353394378994735e-03
4.333029663283348782e+03 1.141183944684463158e+00 9.554979038951864857e-04
4.337362692946633615e+03 1.147275747317578309e+00 8.024883367732713437e-04
4.341700055639581478e+03 1.152303896046377174e+00 1.044822159611238444e-03
4.346041755695222491e+03 1.157181097034982065e+00 1.238048035641691478e-03
4.350387797450919606e+03 1.161560904070100486e+00 1.192225108833732707e-03
4.354738185248371337e+03 1.166326390759493625e+00 1.110577374231298039e-03
4.359092923433621763e+03 1.171162839927849975e+00 1.104619132395834140e-03
4.363452016357056891e+03 1.175971031830996383e+00 1.106264362102714165e-03
4.367815468373414660e+03 1.180921607387657168e+00 1.110395444432512842e-03
4.372183283841789489e+03 1.186066484982492009e+00 1.089396991087226898e-03
4.376555467125633186e+03 1.191358280821630977e+00 1.066013963348305194e-03
4.380932022592760404e+03 1.197020945548735504e+00 1.011580022751897359e-03
4.385312954615354101e+03 1.202105725926690072e+00 9.867326125786982007e-04
4.389698267569970994e+03 1.206871607505097144e+00 9.704489326787791009e-04
4.394087965837542470e+03 1.210868935537183333e+00 9.434333491231849294e-04
4.398482053803381859e+03 1.214334365125421700e+00 8.616654321714639370e-04
4.402880535857186260e+03 1.217492024643526793e+00 8.978547563618222540e-04
4.407283416393044718e+03 1.220400985808542726e+00 8.875282533670050605e-04
4.411690699809440048e+03 1.222878481269814577e+00 7.902898523278215027e-04
4.416102390509250654e+03 1.224939231635698178e+00 7.372509252122448750e-04
4.420518492899761441e+03 1.226372642167760318e+00 7.875102732363176324e-04
4.424939011392662906e+03 1.227133284453707063e+00 7.564115676371152824e-04
4.429363950404056595e+03 1.227655070103664814e+00 5.994802695194623035e-04
4.433793314354462382e+03 1.228360593980742044e+00 4.251461644799922873e-04
4.438227107668818462e+03 1.229617530367294265e+00 4.386998211346354072e-04
4.442665334776488635e+03 1.231296920265034345e+00 4.215077565370030214e-04
4.447108000111265937e+03 1.233032187094741605e+00 4.160067670899662146e-04
4.451555108111379013e+03 1.234911274304968165e+00 4.577507194645261362e-04
4.456006663219492111e+03 1.237079582253878485e+00 4.470086351722177059e-04
4.460462669882713271e+03 1.239626416152620481e+00 5.275283242427123050e-04
4.464923132552597053e+03 1.242335185525159647e+00 4.755334712263462353e-04
4.469388055685150903e+03 1.244395790421603865e+00 4.748360660089636135e-04
4.473857443740837880e+03 1.246141920015911619e+00 4.948592205998847676e-04
4.478331301184580298e+03 1.247344561950940456e+00 4.958382391940723910e-04
4.482809632485766087e+03 1.248217137276593558e+00 4.535909217170912408e-04
4.487292442118253348e+03 1.248547760450744670e+00 3.917345853149615652e-04
4.491779734560373072e+03 1.248061595657779632e+00 3.912142315291296073e-04
4.496271514294934605e+03 1.246698164283960741e+00 4.293387938850210645e-04
4.500767785809231100e+03 1.244979342888033580e+00 4.526960224027376956e-04
4.505268553595042249e+03 1.242843347584864588e+00 4.119839048966318987e-04
4.509773822148638828e+03 1.240462087849515838e+00 3.594416802214012900e-04
4.514283595970789065e+03 1.237869902258662558e+00 3.472575452175390978e-04
4.518797879566761367e+03 1.235408759350030250e+00 4.469998750824096998e-04
4.523316677446328868e+03 1.233360622028620179e+00 4.707816118612473551e-04
4.527839994123776705e+03 1.231821197405787771e+00 4.722862541476615045e-04
4.532367834117902021e+03 1.230542917757300181e+00 5.698812144243008528e-04
4.536900201952022144e+03 1.229114762596017041e+00 6.095969454619156900e-04
4.541437102153975502e+03 1.227835013279998000e+00 6.537038169324786404e-04
4.545978539256130716e+03 1.226397202214651871e+00 5.768106054937522254e-04
4.550524517795388419e+03 1.224519357859556346e+00 5.137052436765715850e-04
4.555075042313184895e+03 1.222014032318473831e+00 4.975522531943464121e-04
4.559630117355500261e+03 1.218936367455025094e+00 4.631529083739581790e-04
4.564189747472856652e+03 1.214800242356953941e+00 4.616743470936776096e-04
4.568753937220330954e+03 1.209950679489220526e+00 4.721975655121100597e-04
4.573322691157552981e+03 1.204224150247183767e+00 4.712256523247078431e-04
4.577896013848711846e+03 1.197362021151280542e+00 5.869278282532676199e-04
4.582473909862562323e+03 1.189958099149368786e+00 6.208701330873914051e-04
4.587056383772426670e+03 1.182437160927436892e+00 7.010384292627722114e-04
4.591643440156200086e+03 1.175371014071076470e+00 7.095724411290621004e-04
4.596235083596357981e+03 1.168684286115363458e+00 7.412584650251077866e-04
4.600831318679955984e+03 1.162558023042546296e+00 7.036846844945602013e-04
4.605432149998637215e+03 1.156796620720485613e+00 6.237079376334739387e-04
4.610037582148637739e+03 1.151839556700822165e+00 7.055627112826949252e-04
4.614647619730787483e+03 1.147599947531690479e+00 8.294415033385478054e-04
4.619262267350520233e+03 1.143825746297545631e+00 7.511000562197317661e-04
4.623881529617872729e+03 1.140051785331292811e+00 6.377488790957408027e-04
4.628505411147491941e+03 1.136000909704315109e+00 5.033304416139782085e-04
4.633133916558640522e+03 1.131589506375675791e+00 5.143775573706242622e-04
4.637767050475200449e+03 1.126766689107188579e+00 5.815335947423445288e-04
4.642404817525677572e+03 1.121835306169635782e+00 5.455248347959766250e-04
4.647047222343205249e+03 1.116692310722935177e+00 4.873984124488649899e-04
4.651694269565549803e+03 1.111328259595923740e+00 3.675412378034915626e-04
4.656345963835116891e+03 1.106446540794900457e+00 3.679240793063980877e-04
4.661002309798953320e+03 1.101722085715102661e+00 3.832627805985008677e-04
4.665663312108753416e+03 1.097043179081332420e+00 4.108395334643819095e-04
4.670328975420864481e+03 1.093063734486230842e+00 4.419862663167277374e-04
4.674999304396286789e+03 1.089105445646845416e+00 4.416753513969921136e-04
4.679674303700684504e+03 1.085540775343894593e+00 4.381704812238748094e-04
4.684353978004386590e+03 1.082165167521972116e+00 4.668210540378340710e-04
4.689038331982392265e+03 1.079267858492223064e+00 7.283926232830500785e-04
4.693727370314376458e+03 1.075697380915854984e+00 7.267361301549939492e-04
4.698421097684692540e+03 1.072179706789302411e+00 6.938353054137867768e-04
4.703119518782378691e+03 1.068353697358250365e+00 6.655440114557284112e-04
4.707822638301162442e+03 1.064288514924563556e+00 6.878452976815321732e-04
4.712530460939465229e+03 1.060145566219545143e+00 7.025881383354031125e-04
4.717242991400406027e+03 1.055573921565366335e+00 7.454379767682138905e-04
4.721960234391808626e+03 1.051214026646766664e+00 7.158330039426270700e-04
4.726682194626201635e+03 1.047105262000795012e+00 5.870492143110782931e-04
4.731408876820829391e+03 1.043910253385333275e+00 5.632113555128774769e-04
4.736140285697651962e+03 1.041363199510917603e+00 6.015778652591829371e-04
4.740876425983350600e+03 1.039289430311178819e+00 6.349663679480853492e-04
4.745617302409335934e+03 1.037844127977282094e+00 6.565761773764703605e-04
4.750362919711747054e+03 1.036285259631384958e+00 6.273873083857250260e-04
4.755113282631459697e+03 1.034883466588140122e+00 6.167115160098968511e-04
4.759868395914093526e+03 1.033455801546665942e+00 4.565509427175674863e-04
