# starting wavelength: 3385.320
# ending wavelength: 7164.280
# wav flux eflux
3.388508678303093347e+03 5.568426723265609279e-01 4.161534031731486255e-02
3.391897186981397681e+03 5.369835133247088388e-01 3.185544627567997444e-02
3.395289084168380214e+03 5.164736507273297583e-01 2.502140779614939192e-02
3.398684373252549449e+03 4.991049650076572197e-01 2.017354623196149915e-02
3.402083057625803121e+03 4.809460288513930926e-01 1.644544248879811765e-02
3.405485140683430018e+03 4.633316139342970597e-01 1.345188103378708311e-02
3.408890625824114522e+03 4.466096017356178116e-01 1.160483324910743276e-02
3.412299516449939802e+03 4.307815467536345033e-01 1.023889781015003761e-02
3.415711815966390986e+03 4.178900198773681796e-01 9.078798975366640656e-03
3.419127527782358356e+03 4.075130557513707563e-01 8.225483490406363535e-03
3.422546655310141887e+03 4.011609712166208097e-01 7.570411569734035971e-03
3.425969201965453522e+03 3.996206477865146267e-01 7.179235220356275718e-03
3.429395171167419903e+03 4.006199594515394979e-01 6.788075017580818063e-03
3.432824566338588284e+03 4.041280207934023760e-01 6.515025314752845124e-03
3.436257390904928343e+03 4.132681283642565262e-01 6.338277451120249463e-03
3.439693648295834464e+03 4.283428036185462640e-01 7.213435897163990480e-03
3.443133341944131189e+03 4.415543877596770916e-01 7.313802727392923995e-03
3.446576475286076402e+03 4.619193432477737282e-01 8.282664402661591915e-03
3.450023051761363604e+03 4.858532157319440103e-01 9.697988994007289074e-03
3.453473074813126004e+03 5.116127846645484034e-01 1.037578079241024270e-02
3.456926547887940615e+03 5.359636861633685356e-01 9.583382696695874267e-03
3.460383474435829612e+03 5.615346330644398476e-01 8.649192140401770063e-03
3.463843857910266706e+03 5.839917466194537443e-01 8.444557075834266055e-03
3.467307701768178049e+03 6.057815348373183362e-01 8.903219615541344001e-03
3.470775009469947236e+03 6.236218934305648443e-01 1.063300920275264856e-02
3.474245784479418489e+03 6.408786362095263422e-01 1.160581405514488941e-02
3.477720030263898934e+03 6.629771127306133272e-01 1.168388026982811190e-02
3.481197750294164052e+03 6.862719428526676824e-01 1.144301992921857754e-02
3.484678948044459503e+03 7.115433094868386377e-01 1.160402161288891579e-02
3.488163626992504760e+03 7.359607670849614980e-01 1.085141154360440979e-02
3.491651790619498570e+03 7.643254688825279475e-01 1.132335849794973218e-02
3.495143442410119405e+03 7.953411349755679094e-01 1.273139481916859411e-02
3.498638585852530468e+03 8.246973937479035177e-01 1.368215000677281031e-02
3.502137224438384237e+03 8.528500171780324379e-01 1.436909221699535395e-02
3.505639361662823831e+03 8.774205553020113513e-01 1.450457182022224858e-02
3.509145001024487556e+03 8.984762791549332217e-01 1.450142627502286861e-02
3.512654146025513455e+03 9.196706119308144523e-01 1.353378101804526140e-02
3.516166800171540217e+03 9.364954133355802846e-01 1.336907415664637111e-02
3.519682966971712631e+03 9.499755233491884443e-01 1.375611010528591562e-02
3.523202649938685681e+03 9.660573443731739207e-01 1.402859595956401986e-02
3.526725852588625457e+03 9.745445575417195361e-01 1.481839616687818592e-02
3.530252578441215064e+03 9.821217134702175944e-01 1.517133233961878019e-02
3.533782831019657806e+03 9.886621321941549967e-01 1.527890877536644196e-02
3.537316613850678550e+03 9.874171223715789703e-01 1.542550256111340640e-02
3.540853930464530094e+03 9.902234731410765045e-01 1.477712298656970284e-02
3.544394784394995895e+03 9.908430882422494257e-01 1.384826420605467581e-02
3.547939179179392340e+03 9.897297641319446893e-01 1.344699439341452002e-02
3.551487118358572843e+03 9.910311388456490844e-01 1.479288031577886096e-02
3.555038605476932389e+03 9.935268862716750693e-01 1.594212188000615135e-02
3.558593644082410719e+03 9.896729311108720673e-01 1.604557532551569021e-02
3.562152237726494150e+03 9.898020042648125738e-01 1.443092963761339123e-02
3.565714389964221937e+03 9.867968491110995499e-01 1.230404641924804504e-02
3.569280104354187188e+03 9.764218940693000226e-01 1.158108978414501208e-02
3.572849384458542772e+03 9.644259325756746604e-01 1.220425760126280998e-02
3.576422233843002232e+03 9.419935256259982514e-01 1.448568582589289735e-02
3.579998656076846601e+03 9.156616500835600414e-01 1.480853773453887079e-02
3.583578654732924406e+03 8.890056191464565938e-01 1.391374305918360171e-02
3.587162233387658489e+03 8.673497668054049869e-01 1.275496373887485130e-02
3.590749395621047370e+03 8.458440265108944089e-01 1.140968226344635066e-02
3.594340145016669794e+03 8.266500247089010323e-01 1.110412349731023686e-02
3.597934485161687462e+03 8.086370747652612545e-01 1.150067981277719253e-02
3.601532419646850485e+03 7.972769362436533669e-01 1.182778372479423822e-02
3.605133952066498296e+03 7.881597789186309821e-01 1.191447033627717617e-02
3.608739086018566013e+03 7.889618837440766086e-01 1.124540372183430864e-02
3.612347825104585809e+03 7.884982547988458323e-01 1.046913222182908540e-02
3.615960172929691907e+03 7.918260324927112181e-01 9.942095021555210493e-03
3.619576133102622407e+03 7.944081645182575757e-01 1.014903043626620531e-02
3.623195709235726554e+03 7.990986537967006420e-01 1.047332688830630160e-02
3.626818904944963379e+03 8.042111010975780960e-01 1.096232724706501342e-02
3.630445723849909427e+03 8.125880315153248823e-01 1.095700018651538273e-02
3.634076169573760581e+03 8.218418966875914444e-01 1.022871000678590193e-02
3.637710245743335690e+03 8.320049462837233456e-01 8.280682961757974622e-03
3.641347955989080219e+03 8.512272600948019852e-01 8.875133931297690335e-03
3.644989303945070333e+03 8.732101270541514637e-01 9.996747525283339667e-03
3.648634293249016537e+03 9.001960999038634004e-01 1.052437983512164062e-02
3.652282927542266862e+03 9.311196749137677919e-01 9.966763589886250968e-03
3.655935210469810499e+03 9.571024255057253294e-01 8.685936423643821416e-03
3.659591145680281443e+03 9.820668400241453488e-01 6.583751502355118107e-03
3.663250736825963031e+03 9.996278994360242587e-01 7.406685148772624953e-03
3.666913987562790226e+03 1.013269639178246084e+00 7.886542420192044212e-03
3.670580901550354156e+03 1.021267233545892994e+00 7.849866318260709935e-03
3.674251482451905758e+03 1.028533959688809452e+00 7.299003727016774128e-03
3.677925733934358959e+03 1.033537720121886938e+00 6.430322898833886261e-03
3.681603659668294313e+03 1.040532185315767189e+00 6.431855230633148207e-03
3.685285263327964003e+03 1.041405893730121823e+00 6.754095492042260125e-03
3.688970548591293209e+03 1.045814882603454565e+00 6.502029311550499256e-03
3.692659519139885560e+03 1.051033145740231545e+00 6.598398348587617215e-03
3.696352178659026777e+03 1.058774932590614393e+00 7.065365431574040060e-03
3.700048530837686940e+03 1.064923999430842150e+00 7.047702704875665955e-03
3.703748579368525952e+03 1.069795287575545872e+00 6.293123650058098789e-03
3.707452327947895355e+03 1.072540692554053487e+00 6.495693662915677513e-03
3.711159780275844696e+03 1.076656707516018052e+00 6.517434227247692786e-03
3.714870940056121526e+03 1.075251797585611735e+00 6.784144938825878782e-03
3.718585810996179134e+03 1.072149570878379032e+00 7.282222596036726572e-03
3.722304396807176545e+03 1.066377662107519830e+00 8.364226915272360285e-03
3.726026701203984885e+03 1.056548357489317524e+00 8.613272308760659343e-03
3.729752727905190113e+03 1.040198059164036515e+00 8.377206726409364840e-03
3.733482480633096657e+03 1.016826508502400861e+00 8.434188983123759933e-03
3.737215963113731050e+03 9.862388211344803590e-01 1.018094802429709948e-02
3.740953179076846027e+03 9.569382188548899437e-01 1.058206960117413081e-02
3.744694132255923705e+03 9.244246972105358839e-01 1.087288720786642494e-02
3.748438826388181042e+03 8.958054943828028804e-01 1.118731420794285419e-02
3.752187265214570289e+03 8.762666997729755547e-01 1.038602277666440636e-02
3.755939452479786269e+03 8.681837250483785962e-01 1.014355076100649858e-02
3.759695391932267285e+03 8.699456002755043826e-01 1.066798449664400732e-02
3.763455087324201031e+03 8.777926224516685583e-01 1.079134180530889539e-02
3.767218542411526414e+03 8.986975793264014856e-01 1.109744666177892199e-02
3.770985760953939007e+03 9.258347986652438744e-01 1.008297807894669752e-02
3.774756746714894234e+03 9.574700990516983312e-01 7.040549411930161101e-03
3.778531503461610555e+03 9.856617390191538819e-01 6.491061853799943299e-03
3.782310034965073100e+03 1.010930028542509129e+00 6.617852834186179790e-03
3.786092345000039586e+03 1.031375800188666814e+00 6.927139992659864590e-03
3.789878437345040766e+03 1.045695229866242304e+00 7.078562553521469160e-03
3.793668315782387253e+03 1.051742780931836707e+00 7.061387579105750031e-03
3.797461984098170888e+03 1.053983000010362048e+00 6.988647318284861749e-03
3.801259446082270188e+03 1.049739241699547909e+00 7.158740335738599490e-03
3.805060705528353537e+03 1.040642820751228381e+00 8.116036930095327229e-03
3.808865766233883278e+03 1.026058568420973760e+00 9.077155473972187832e-03
3.812674632000118436e+03 1.014968679692784592e+00 8.777143068777283619e-03
3.816487306632119726e+03 1.007380084204960724e+00 8.770789798075780130e-03
3.820303793938753188e+03 9.998785873588676987e-01 7.505634073400438248e-03
3.824124097732693372e+03 9.979193568260146252e-01 7.716864434649441801e-03
3.827948221830427428e+03 1.004047813730584604e+00 1.060631191963946895e-02
3.831776170052258749e+03 1.009913002721766428e+00 1.008915117053727981e-02
3.835607946222312421e+03 1.012680456110397254e+00 8.901138052192298505e-03
3.839443554168536139e+03 1.013229213155180997e+00 7.922889489351712597e-03
3.843282997722705659e+03 1.009432346567425975e+00 9.083208616537632313e-03
3.847126280720429804e+03 1.003455387845887614e+00 9.370279127407607489e-03
3.850973407001151372e+03 9.941603349343737239e-01 7.911784841262156989e-03
3.854824380408153957e+03 9.910690605651806262e-01 7.549125177186572985e-03
3.858679204788563311e+03 9.900206756829014187e-01 7.407314866514361044e-03
3.862537883993353262e+03 9.909242754688292187e-01 7.586434194995302430e-03
3.866400421877347981e+03 9.939120618810415309e-01 7.904673160954360164e-03
3.870266822299226533e+03 1.000972103536576840e+00 7.003225706429865201e-03
3.874137089121526969e+03 1.006362165485531257e+00 6.852402324687763280e-03
3.878011226210649966e+03 1.012943034080328264e+00 6.758925252957868890e-03
3.881889237436861549e+03 1.018980090178594367e+00 6.716843375185501709e-03
3.885771126674299921e+03 1.024412626694451101e+00 6.703343678824890024e-03
3.889656897800975457e+03 1.025312629839137513e+00 6.546562340556521913e-03
3.893546554698777527e+03 1.022559181044088161e+00 6.530437855121223011e-03
3.897440101253477678e+03 1.018973591407652091e+00 6.582203297142677663e-03
3.901337541354732366e+03 1.014396839152500007e+00 5.451154202232508239e-03
3.905238878896088409e+03 1.004280198390422374e+00 6.221405517232032542e-03
3.909144117774985716e+03 9.925263287697070336e-01 7.603567007347304500e-03
3.913053261892762293e+03 9.801860727819836638e-01 8.651967791836988331e-03
3.916966315154656058e+03 9.706599900370518341e-01 7.845022108843848971e-03
3.920883281469812118e+03 9.669941807398928502e-01 7.472473010126949068e-03
3.924804164751283224e+03 9.647007900196745700e-01 6.785709817413980265e-03
3.928728968916035683e+03 9.692574049344570009e-01 8.149084383211347218e-03
3.932657697884953450e+03 9.773299655432798883e-01 8.959472362740191625e-03
3.936590355582839493e+03 9.856124479524265292e-01 8.113570043509764004e-03
3.940526945938423523e+03 9.918793389183288012e-01 6.105014472559126999e-03
3.944467472884363360e+03 9.945883260518940672e-01 5.388833955879576872e-03
3.948411940357249023e+03 9.915040983994040102e-01 5.769834614562782335e-03
3.952360352297607733e+03 9.866088368757728322e-01 5.696924775836810506e-03
3.956312712649906643e+03 9.782931694619715346e-01 5.651296246121689966e-03
3.960269025362557841e+03 9.691613276387812670e-01 5.023056735418991899e-03
3.964229294387921527e+03 9.651612866032615035e-01 3.867140172571319028e-03
3.968193523682310570e+03 9.659225712205705694e-01 3.469111976444856377e-03
3.972161717205994591e+03 9.740874712232358013e-01 3.609231792860596692e-03
3.976133878923201792e+03 9.883205824059465572e-01 3.505455693590266153e-03
3.980110012802126221e+03 1.005509708331282726e+00 3.703463835695431413e-03
3.984090122814929600e+03 1.024325696624960758e+00 3.729942911654327529e-03
3.988074212937745870e+03 1.043650526164287662e+00 4.748253621292663172e-03
3.992062287150684824e+03 1.062480872092887552e+00 5.996244178502477089e-03
3.996054349437837118e+03 1.075592350314749535e+00 5.206768628306030974e-03
4.000050403787276082e+03 1.078122333827064461e+00 5.734769420456879187e-03
4.004050454191064546e+03 1.077412285216110099e+00 5.688681309453909665e-03
4.008054504645257111e+03 1.070437377621554997e+00 6.079023568601329454e-03
4.012062559149903791e+03 1.058457387973451569e+00 5.948337715139443045e-03
4.016074621709055009e+03 1.039655790266595270e+00 5.329330481885107516e-03
4.020090696330765240e+03 1.019078571110617393e+00 4.643900698477339620e-03
4.024110787027097558e+03 9.983976182021433443e-01 4.401808992241838282e-03
4.028134897814125907e+03 9.803551110510703159e-01 4.435875651459145023e-03
4.032163032711941469e+03 9.642466568746127509e-01 4.292165497013851645e-03
4.036195195744654484e+03 9.522900526682772648e-01 4.426478275342062702e-03
4.040231390940400615e+03 9.446624052361742852e-01 4.207334333025858700e-03
4.044271622331342314e+03 9.382430377766226570e-01 4.332822319226507270e-03
4.048315893953675186e+03 9.369373968491986338e-01 4.260836973297869867e-03
4.052364209847629809e+03 9.385184698732401687e-01 4.213666334920753917e-03
4.056416574057479011e+03 9.435615535018453404e-01 4.494607480131578015e-03
4.060472990631537868e+03 9.502297479990319262e-01 4.974666408483770230e-03
4.064533463622170530e+03 9.604727214865046436e-01 5.499953481983765533e-03
4.068597997085794304e+03 9.705979825974755393e-01 3.916989896786816742e-03
4.072666595082881486e+03 9.765344208663500059e-01 4.591603803766502664e-03
4.076739261677965715e+03 9.793568486904200565e-01 5.497936783202084926e-03
4.080816000939644709e+03 9.846691079585678796e-01 5.640089583354043930e-03
4.084896816940585722e+03 9.916773119594467500e-01 5.221293729038609110e-03
4.088981713757527814e+03 1.002095044045853589e+00 5.614893535196706538e-03
4.093070695471286854e+03 1.010381026260373183e+00 5.562419205481733929e-03
4.097163766166759160e+03 1.019442727946808125e+00 5.701186137837697433e-03
4.101260929932927866e+03 1.027239446275488799e+00 5.809133620226493606e-03
4.105362190862862008e+03 1.034486557018646780e+00 6.008017487542323398e-03
4.109467553053726078e+03 1.039582161411176653e+00 5.637015981652919970e-03
4.113577020606780934e+03 1.042257819883341430e+00 4.966111493102314672e-03
4.117690597627389252e+03 1.041536651304853400e+00 4.822461922648590450e-03
4.121808288225018259e+03 1.035027513448300907e+00 4.953533945919667662e-03
4.125930096513244280e+03 1.025246913571550955e+00 4.691117291988983196e-03
4.130056026609759101e+03 1.014020264113446590e+00 3.876212831499216242e-03
4.134186082636369974e+03 1.001861323683204796e+00 3.590339847732836303e-03
4.138320268719007800e+03 9.919856912762288204e-01 3.839809103250340586e-03
4.142458588987728035e+03 9.845923070434355884e-01 3.129588913854359795e-03
4.146601047576717065e+03 9.750836336666800497e-01 2.941851631881438334e-03
4.150747648624294925e+03 9.651849597253941981e-01 2.923126835157544533e-03
4.154898396272920763e+03 9.549599743650852846e-01 2.824784071219380108e-03
4.159053294669195566e+03 9.461796550263961159e-01 2.742714711904975337e-03
4.163212347963865795e+03 9.399217759161317964e-01 2.861280868156721759e-03
4.167375560311830668e+03 9.376483372339247113e-01 2.830198971080523200e-03
4.171542935872143971e+03 9.363973898053564726e-01 2.335319593929238019e-03
4.175714478808017702e+03 9.406472703126017576e-01 3.000939244991147371e-03
4.179890193286827525e+03 9.468211242727256893e-01 3.465308373222367785e-03
4.184070083480115500e+03 9.550380279598248423e-01 3.512935560546715831e-03
4.188254153563597356e+03 9.622515970166853894e-01 3.595550721854471471e-03
4.192442407717161586e+03 9.680577305072752825e-01 4.141614897810890795e-03
4.196634850124880359e+03 9.705474737400814345e-01 3.242354057608633818e-03
4.200831484975006788e+03 9.656844963306154828e-01 3.805574653386015801e-03
4.205032316459983122e+03 9.568801660692315414e-01 5.038561601454975662e-03
4.209237348776444378e+03 9.475060981062332077e-01 5.374273808461267274e-03
4.213446586125221984e+03 9.348141537280179048e-01 5.310614874808472149e-03
4.217660032711349231e+03 9.256347791292122151e-01 4.890295723013996128e-03
4.221877692744061278e+03 9.193273739510098297e-01 4.290520403249163152e-03
4.226099570436806971e+03 9.169837423088983419e-01 3.710292165181731591e-03
4.230325670007245208e+03 9.207778794558806323e-01 4.130298407938033309e-03
4.234555995677254032e+03 9.273881493908723295e-01 4.053709941274536571e-03
4.238790551672932452e+03 9.387857812150793846e-01 3.854364607728943872e-03
4.243029342224606808e+03 9.537762119895932811e-01 3.683672566142313400e-03
4.247272371566832589e+03 9.723235640722973638e-01 3.870247633300424959e-03
4.251519643938400804e+03 9.901490242728502311e-01 4.235814700630982123e-03
4.255771163582340705e+03 1.007373008544295789e+00 4.170218579988944733e-03
4.260026934745924336e+03 1.019979058432003649e+00 4.255435429413758144e-03
4.264286961680671993e+03 1.028520372914144776e+00 4.393348712423294014e-03
4.268551248642354039e+03 1.032970865772684821e+00 4.538636778154334778e-03
4.272819799890998183e+03 1.033085225181523681e+00 3.636101474974794395e-03
4.277092619690890388e+03 1.026199349051597931e+00 3.809903824699359919e-03
4.281369712310583054e+03 1.012739695380246330e+00 4.952447282441254858e-03
4.285651082022895025e+03 9.970178622102999766e-01 5.439556447109574096e-03
4.289936733104918858e+03 9.819095951029552793e-01 5.625598914576066673e-03
4.294226669838025373e+03 9.677933965900844537e-01 4.325649176055039458e-03
4.298520896507864563e+03 9.600975575080682445e-01 3.163925144792519278e-03
4.302819417404373780e+03 9.614111414290092972e-01 2.957134403515035773e-03
4.307122236821779552e+03 9.708641941406719322e-01 3.111620291631508276e-03
4.311429359058603040e+03 9.882807806602721401e-01 2.949347694359883126e-03
4.315740788417662770e+03 1.010970889560158792e+00 3.266639882044592314e-03
4.320056529206081905e+03 1.039744991238534588e+00 4.317501891623962661e-03
4.324376585735290064e+03 1.070255985723637338e+00 4.431307994137594942e-03
4.328700962321026054e+03 1.100490049031393580e+00 3.263034954259924712e-03
4.333029663283348782e+03 1.129089842365653240e+00 2.879563520945186209e-03
4.337362692946633615e+03 1.154575455283273655e+00 3.212169408192934710e-03
4.341700055639581478e+03 1.177698330920922576e+00 3.043886782051849049e-03
4.346041755695222491e+03 1.197984124964237340e+00 2.904630332942125318e-03
4.350387797450919606e+03 1.217310898417889531e+00 2.944777359964882105e-03
4.354738185248371337e+03 1.234018652091608104e+00 3.088828666355782678e-03
4.359092923433621763e+03 1.246741032574251840e+00 3.076355157873366959e-03
4.363452016357056891e+03 1.256633430880895519e+00 3.048193391943600228e-03
4.367815468373414660e+03 1.263947531905785349e+00 3.136864304026695371e-03
4.372183283841789489e+03 1.268895021106029475e+00 3.722686931356117019e-03
4.376555467125633186e+03 1.272543260632671647e+00 4.227829932157737072e-03
4.380932022592760404e+03 1.276875802855383490e+00 4.220094573066996389e-03
4.385312954615354101e+03 1.284092984469400900e+00 4.176650932982440070e-03
4.389698267569970994e+03 1.290313283095480212e+00 3.600230641846178473e-03
4.394087965837542470e+03 1.298568953656750180e+00 3.751054941463664600e-03
4.398482053803381859e+03 1.308548299308071483e+00 4.831198943191525839e-03
4.402880535857186260e+03 1.319143131419950432e+00 4.472855474133395279e-03
4.407283416393044718e+03 1.326932261229491372e+00 3.457780795714624107e-03
4.411690699809440048e+03 1.330376506386651503e+00 3.183793888419537456e-03
