# starting wavelength: 3652.500
# ending wavelength: 7397.140
# wav flux eflux
3.655935210469810499e+03 9.785986192763930225e-01 1.018974563955180219e-02
3.659591145680281443e+03 9.795650478814101891e-01 7.651994607000027135e-03
3.663250736825963031e+03 9.806632258708634087e-01 6.220336508406980498e-03
3.666913987562790226e+03 9.805121797216089785e-01 4.797675752347748714e-03
3.670580901550354156e+03 9.786840853320011302e-01 3.670670239016478494e-03
3.674251482451905758e+03 9.758944970871216151e-01 2.864874580979303188e-03
3.677925733934358959e+03 9.724648287072860109e-01 2.292715572989331620e-03
3.681603659668294313e+03 9.688889198638208633e-01 1.836007741598495030e-03
3.685285263327964003e+03 9.652644112644657159e-01 1.555544842033397285e-03
3.688970548591293209e+03 9.618600343158525412e-01 1.322742856485311508e-03
3.692659519139885560e+03 9.588718061241159329e-01 1.166101656735411395e-03
3.696352178659026777e+03 9.568216180229209833e-01 1.255187962977584015e-03
3.700048530837686940e+03 9.554908162688112716e-01 1.277711005697544817e-03
3.703748579368525952e+03 9.546282274311901350e-01 1.229453134350768717e-03
3.707452327947895355e+03 9.540230630543132806e-01 1.150790678025566957e-03
3.711159780275844696e+03 9.542567774865529096e-01 1.147773642577819882e-03
3.714870940056121526e+03 9.545870392990793984e-01 1.097562569723200101e-03
3.718585810996179134e+03 9.556332642894224128e-01 1.097903271265160841e-03
3.722304396807176545e+03 9.567852946863090180e-01 1.119107975340984888e-03
3.726026701203984885e+03 9.587093486133819731e-01 1.161624951098435459e-03
3.729752727905190113e+03 9.608729039761788604e-01 1.163676038111048378e-03
3.733482480633096657e+03 9.633169578604332539e-01 1.139275668132805732e-03
3.737215963113731050e+03 9.668500679295450873e-01 1.004381175359584646e-03
3.740953179076846027e+03 9.694822992736831235e-01 8.814043833466359218e-04
3.744694132255923705e+03 9.718918643619439690e-01 9.063341660014943022e-04
3.748438826388181042e+03 9.741541504569471988e-01 1.012548531397032547e-03
3.752187265214570289e+03 9.764758339913285345e-01 1.032592924313801858e-03
3.755939452479786269e+03 9.788508653037271134e-01 9.951417545581435660e-04
3.759695391932267285e+03 9.810367178476844252e-01 9.687628751447781164e-04
3.763455087324201031e+03 9.830736337272405478e-01 8.953708101173196232e-04
3.767218542411526414e+03 9.853722144842035346e-01 8.873313694021773505e-04
3.770985760953939007e+03 9.877967778494403106e-01 9.123121564461979856e-04
3.774756746714894234e+03 9.901623629352827027e-01 9.421108178225167567e-04
3.778531503461610555e+03 9.924157443093853948e-01 9.423862143238824528e-04
3.782310034965073100e+03 9.948552697603239015e-01 9.375441395261794632e-04
3.786092345000039586e+03 9.972875603170200387e-01 9.422495257630633322e-04
3.789878437345040766e+03 9.995394127185566191e-01 1.027820607620069096e-03
3.793668315782387253e+03 1.001873843414169629e+00 1.072987546978918828e-03
3.797461984098170888e+03 1.004811870500533333e+00 1.109586512145034360e-03
3.801259446082270188e+03 1.007595162961925306e+00 1.217506703169907861e-03
3.805060705528353537e+03 1.010728983960197613e+00 1.236791191632691375e-03
3.808865766233883278e+03 1.014328669519439563e+00 1.211801205431675341e-03
3.812674632000118436e+03 1.017833456127380298e+00 1.134811493535806516e-03
3.816487306632119726e+03 1.022455963620727548e+00 1.255329140738207670e-03
3.820303793938753188e+03 1.027711414599166595e+00 1.430337256361801854e-03
3.824124097732693372e+03 1.032422485077160834e+00 1.451477743576145597e-03
3.827948221830427428e+03 1.036506492729347029e+00 1.462498612904017045e-03
3.831776170052258749e+03 1.040569284693172669e+00 1.462968465905280539e-03
3.835607946222312421e+03 1.044761650027898225e+00 1.502763391357362158e-03
3.839443554168536139e+03 1.048515683493107975e+00 1.506231095460648520e-03
3.843282997722705659e+03 1.052528833599066127e+00 1.492113013594296468e-03
3.847126280720429804e+03 1.056443788326532740e+00 1.465407665307985954e-03
3.850973407001151372e+03 1.059645813543934612e+00 1.395191993705834901e-03
3.854824380408153957e+03 1.062006887244856257e+00 1.197845151536811427e-03
3.858679204788563311e+03 1.062401009343588054e+00 1.204027300394184879e-03
3.862537883993353262e+03 1.062006443497404806e+00 1.179777848091609870e-03
3.866400421877347981e+03 1.060621424723833250e+00 1.155139717414237080e-03
3.870266822299226533e+03 1.058402106242894547e+00 1.190176671558150056e-03
3.874137089121526969e+03 1.055799344227940750e+00 1.236568890796097865e-03
3.878011226210649966e+03 1.052158659087444770e+00 1.259036076186302545e-03
3.881889237436861549e+03 1.048458173494694723e+00 1.317290914258951139e-03
3.885771126674299921e+03 1.044654496444186842e+00 1.374245607406021598e-03
3.889656897800975457e+03 1.041126094031518567e+00 1.377607089030296250e-03
3.893546554698777527e+03 1.037690159226815068e+00 1.410114133974892884e-03
3.897440101253477678e+03 1.034254146852977119e+00 1.496131986450522549e-03
3.901337541354732366e+03 1.031424879848979126e+00 1.413838667004420390e-03
3.905238878896088409e+03 1.029485408377228906e+00 1.368582641801990374e-03
3.909144117774985716e+03 1.028130963422662969e+00 1.308747804456499540e-03
3.913053261892762293e+03 1.027363330026110910e+00 1.346038323960466014e-03
3.916966315154656058e+03 1.028222313031619706e+00 1.509776143077793753e-03
3.920883281469812118e+03 1.030885707711431509e+00 1.273345521723796055e-03
3.924804164751283224e+03 1.033793652305654120e+00 7.559643183697293710e-04
3.928728968916035683e+03 1.036044739820835003e+00 1.060535699227686856e-03
3.932657697884953450e+03 1.038448260074039231e+00 1.285705385735491993e-03
3.936590355582839493e+03 1.042128729289522937e+00 1.291902037899420735e-03
3.940526945938423523e+03 1.046835030502839325e+00 1.246442776182222394e-03
3.944467472884363360e+03 1.052330249101304460e+00 1.232026092948650944e-03
3.948411940357249023e+03 1.058329019880410726e+00 1.269273038112474347e-03
3.952360352297607733e+03 1.065343441544302827e+00 1.291765775471863213e-03
3.956312712649906643e+03 1.072855672787458525e+00 1.358078538074373011e-03
3.960269025362557841e+03 1.080973356157897358e+00 1.392876428467631740e-03
3.964229294387921527e+03 1.089502974996879869e+00 1.378448249452893454e-03
3.968193523682310570e+03 1.097962547812902701e+00 1.368714270520691827e-03
3.972161717205994591e+03 1.106149062432296049e+00 1.358363479530696203e-03
3.976133878923201792e+03 1.114244318770287956e+00 1.343276447976777437e-03
3.980110012802126221e+03 1.122044304817231053e+00 1.355973013141108761e-03
3.984090122814929600e+03 1.129328307257701614e+00 1.426377396770606544e-03
3.988074212937745870e+03 1.135961794516244794e+00 1.414264611834832293e-03
3.992062287150684824e+03 1.141310914019806111e+00 1.104371356132506773e-03
3.996054349437837118e+03 1.146886037787698376e+00 1.191532955267760431e-03
4.000050403787276082e+03 1.152533490591526544e+00 1.325324776502444495e-03
4.004050454191064546e+03 1.158300227689599060e+00 1.496348954161697779e-03
4.008054504645257111e+03 1.162660504053397048e+00 1.225518143186292560e-03
4.012062559149903791e+03 1.165264916411444363e+00 1.005784263477410480e-03
4.016074621709055009e+03 1.165560476943741319e+00 1.212146119242770922e-03
4.020090696330765240e+03 1.164801375899007896e+00 1.201678339239482286e-03
4.024110787027097558e+03 1.163176628466069396e+00 1.278636601374032265e-03
4.028134897814125907e+03 1.160434070847064181e+00 1.279626382359337188e-03
4.032163032711941469e+03 1.156135207774013018e+00 1.274640636588347852e-03
4.036195195744654484e+03 1.151394266331294602e+00 1.182321633231016300e-03
4.040231390940400615e+03 1.146715507985581084e+00 1.199315661647556248e-03
4.044271622331342314e+03 1.141782353254933380e+00 1.216748725823739137e-03
4.048315893953675186e+03 1.136848227280823354e+00 1.297892347877953800e-03
4.052364209847629809e+03 1.132846276220963455e+00 1.299641462059496167e-03
4.056416574057479011e+03 1.129503423292816500e+00 1.342778774105965077e-03
4.060472990631537868e+03 1.127224941496060229e+00 1.415913843275267738e-03
4.064533463622170530e+03 1.125909819153519731e+00 1.395666097018780430e-03
4.068597997085794304e+03 1.125893369882501105e+00 1.280939290138046653e-03
4.072666595082881486e+03 1.127157696555660449e+00 1.249973162620253778e-03
4.076739261677965715e+03 1.130217874757321050e+00 1.363091418604638234e-03
4.080816000939644709e+03 1.133617944731682092e+00 1.353654306164579942e-03
4.084896816940585722e+03 1.138550074433379189e+00 1.026404090948894541e-03
4.088981713757527814e+03 1.143035254338428786e+00 1.022902131540177418e-03
4.093070695471286854e+03 1.147479115936317573e+00 1.026338923098003321e-03
4.097163766166759160e+03 1.151401610325319291e+00 1.149535270233950591e-03
4.101260929932927866e+03 1.154637672370141033e+00 1.296793866126282968e-03
4.105362190862862008e+03 1.156097672102282869e+00 1.331077471372775836e-03
4.109467553053726078e+03 1.154789890315313983e+00 1.326475200227670518e-03
4.113577020606780934e+03 1.152183064939206858e+00 1.325434584283764934e-03
4.117690597627389252e+03 1.147520003997619442e+00 1.260711369989982742e-03
4.121808288225018259e+03 1.140862918865279907e+00 1.362746777260062485e-03
4.125930096513244280e+03 1.132077342520769081e+00 1.420431074076219545e-03
4.130056026609759101e+03 1.122366100154432500e+00 1.575929952673448594e-03
4.134186082636369974e+03 1.111916187801231137e+00 1.477871425372251054e-03
4.138320268719007800e+03 1.101246488549200153e+00 1.166190753472685178e-03
4.142458588987728035e+03 1.091143788180795049e+00 9.064935586924563081e-04
4.146601047576717065e+03 1.082279238499812335e+00 9.792213719262629623e-04
4.150747648624294925e+03 1.074786994692861875e+00 1.002156197937900586e-03
4.154898396272920763e+03 1.067905810795395816e+00 8.237245171221545216e-04
4.159053294669195566e+03 1.061643501772248310e+00 8.072815485399282946e-04
4.163212347963865795e+03 1.056380174124849303e+00 7.556246659337203728e-04
4.167375560311830668e+03 1.050921274963213969e+00 7.076427611918733934e-04
4.171542935872143971e+03 1.046632716290525789e+00 7.061214654879044992e-04
4.175714478808017702e+03 1.043119234374166204e+00 8.735597354642729139e-04
4.179890193286827525e+03 1.040126149523121102e+00 1.288851965392647913e-03
4.184070083480115500e+03 1.036468390251348071e+00 1.372820859001643978e-03
4.188254153563597356e+03 1.031545047284363470e+00 1.353352338082852453e-03
4.192442407717161586e+03 1.026348322221345422e+00 1.275231316317230806e-03
4.196634850124880359e+03 1.020342783722287372e+00 1.375767506074854077e-03
4.200831484975006788e+03 1.013858637021249454e+00 1.515619065342423263e-03
4.205032316459983122e+03 1.007311000588296812e+00 1.572056463469676110e-03
4.209237348776444378e+03 1.000811173620622441e+00 1.404601150396999005e-03
4.213446586125221984e+03 9.952483826165317016e-01 1.427803768445220275e-03
4.217660032711349231e+03 9.898345717926880782e-01 1.372360623664673060e-03
4.221877692744061278e+03 9.855401933064853459e-01 1.423091142559270404e-03
4.226099570436806971e+03 9.823209079630219609e-01 1.367753536381133934e-03
4.230325670007245208e+03 9.799997317661801599e-01 1.252104061967208035e-03
4.234555995677254032e+03 9.783428313852907676e-01 1.268755112308787587e-03
4.238790551672932452e+03 9.777418418935799327e-01 1.311591796085506082e-03
4.243029342224606808e+03 9.778263439974758109e-01 1.509490393293475312e-03
4.247272371566832589e+03 9.790135585422958808e-01 1.241436192389627291e-03
4.251519643938400804e+03 9.816248158966487392e-01 1.236827339723402209e-03
4.255771163582340705e+03 9.857174546755874678e-01 1.608241553598098407e-03
4.260026934745924336e+03 9.910387124345426679e-01 1.628461869195503217e-03
4.264286961680671993e+03 9.960532499746244106e-01 1.514960530225559947e-03
4.268551248642354039e+03 1.001280516648352936e+00 1.651042984980795195e-03
4.272819799890998183e+03 1.007194986685827187e+00 1.674597831573312922e-03
4.277092619690890388e+03 1.013603956957184415e+00 1.670647652245992173e-03
4.281369712310583054e+03 1.019587620774235148e+00 1.673920161949815286e-03
4.285651082022895025e+03 1.026331068717772022e+00 1.605072326463350199e-03
4.289936733104918858e+03 1.033714283524949762e+00 1.836804548939328713e-03
4.294226669838025373e+03 1.041317527764535456e+00 1.864238076506142400e-03
4.298520896507864563e+03 1.048140174922771228e+00 1.868255729417156539e-03
4.302819417404373780e+03 1.055554673117013342e+00 1.814509492507749601e-03
4.307122236821779552e+03 1.062748341133305630e+00 2.032253085487829847e-03
4.311429359058603040e+03 1.070319856191715768e+00 2.214439671188665748e-03
4.315740788417662770e+03 1.078655291413626705e+00 2.243893229829726273e-03
4.320056529206081905e+03 1.087673520971252250e+00 2.165191498988313680e-03
4.324376585735290064e+03 1.096987819858182611e+00 2.400135583392610551e-03
4.328700962321026054e+03 1.106685046712498455e+00 2.674955252285190696e-03
4.333029663283348782e+03 1.115876407127969872e+00 2.619290881734164661e-03
4.337362692946633615e+03 1.125512317552684216e+00 2.293377483704639366e-03
4.341700055639581478e+03 1.134249242572852978e+00 2.171381622630161410e-03
4.346041755695222491e+03 1.141392338857096789e+00 2.600531446274694392e-03
4.350387797450919606e+03 1.148807388430095111e+00 2.623162617864369973e-03
4.354738185248371337e+03 1.156595802032907017e+00 2.561520249629961523e-03
4.359092923433621763e+03 1.164034523838156643e+00 2.409452969968517259e-03
4.363452016357056891e+03 1.171174284303635904e+00 2.090156591999540667e-03
4.367815468373414660e+03 1.179593238703583680e+00 2.328948541943687365e-03
4.372183283841789489e+03 1.188497517505456180e+00 2.313487269064807682e-03
4.376555467125633186e+03 1.197027531843176229e+00 2.064366766923533131e-03
4.380932022592760404e+03 1.204589146214333217e+00 1.811274385793874798e-03
4.385312954615354101e+03 1.211281700885260548e+00 1.765607260037405871e-03
4.389698267569970994e+03 1.216163400309472786e+00 2.092549213127620558e-03
4.394087965837542470e+03 1.220506629650522035e+00 1.860887991647592688e-03
4.398482053803381859e+03 1.224879873831748567e+00 1.666708507310370613e-03
4.402880535857186260e+03 1.229334904308839738e+00 1.884113977127743712e-03
4.407283416393044718e+03 1.233856817626935776e+00 1.849948425062637345e-03
4.411690699809440048e+03 1.237941062330707886e+00 1.797186705984487329e-03
4.416102390509250654e+03 1.241855337329294429e+00 1.885978704460801719e-03
4.420518492899761441e+03 1.246618494096861207e+00 1.943741225122965757e-03
4.424939011392662906e+03 1.251046727670837244e+00 2.251732423362106435e-03
4.429363950404056595e+03 1.256350773404695920e+00 2.056291120221261787e-03
4.433793314354462382e+03 1.263647659616412344e+00 2.013161644023360106e-03
4.438227107668818462e+03 1.271797006522016549e+00 2.001772567972950976e-03
4.442665334776488635e+03 1.280867036699857797e+00 2.235412002778862199e-03
4.447108000111265937e+03 1.290844839027341706e+00 2.722181466197560323e-03
4.451555108111379013e+03 1.300453449957569063e+00 2.596049745995168863e-03
4.456006663219492111e+03 1.309221100812582472e+00 2.192277717730156845e-03
4.460462669882713271e+03 1.316114278581975716e+00 1.681850856122283451e-03
4.464923132552597053e+03 1.320426594871525028e+00 1.847138548221042469e-03
4.469388055685150903e+03 1.322217203402776375e+00 2.233850225332303062e-03
4.473857443740837880e+03 1.321911180406307507e+00 1.947389224959856840e-03
4.478331301184580298e+03 1.321612013998228585e+00 1.345375543802417593e-03
4.482809632485766087e+03 1.322124423290212292e+00 1.326048428017338830e-03
4.487292442118253348e+03 1.322306179698907513e+00 1.275642338298596393e-03
4.491779734560373072e+03 1.323108496580233551e+00 1.328401481413737321e-03
4.496271514294934605e+03 1.324675556852748626e+00 1.587891248716122045e-03
4.500767785809231100e+03 1.325997627250555810e+00 1.419354214580430306e-03
4.505268553595042249e+03 1.326850686661653622e+00 1.197652042639955807e-03
4.509773822148638828e+03 1.326496923995204247e+00 1.373626103673987551e-03
4.514283595970789065e+03 1.326259525504943637e+00 1.373670193355050299e-03
4.518797879566761367e+03 1.325458991647279205e+00 1.374278096770389489e-03
4.523316677446328868e+03 1.323676375959217610e+00 1.210087462193553277e-03
4.527839994123776705e+03 1.321721197008437709e+00 1.309033429086509407e-03
4.532367834117902021e+03 1.319377688991772324e+00 1.382690641723140559e-03
4.536900201952022144e+03 1.315623653812759031e+00 1.375977709848791959e-03
4.541437102153975502e+03 1.311566144971759940e+00 1.258425980027992651e-03
4.545978539256130716e+03 1.306402784981641974e+00 1.377073744211749443e-03
4.550524517795388419e+03 1.300709676896309341e+00 1.427521701863043117e-03
4.555075042313184895e+03 1.294086371533385016e+00 1.502639059907269307e-03
4.559630117355500261e+03 1.287397472254481867e+00 1.342239745443581057e-03
4.564189747472856652e+03 1.281467565216975357e+00 1.381080554271093023e-03
4.568753937220330954e+03 1.275645440772765093e+00 1.485123055345176010e-03
4.573322691157552981e+03 1.269116164307765526e+00 1.548636944583577308e-03
4.577896013848711846e+03 1.262946860869627486e+00 1.572225558836633447e-03
4.582473909862562323e+03 1.256938417194473079e+00 1.118396934595299822e-03
4.587056383772426670e+03 1.249833648088684690e+00 9.608340455762117869e-04
4.591643440156200086e+03 1.241873807694757081e+00 1.082729823504746105e-03
4.596235083596357981e+03 1.233110786997570152e+00 1.128367389047647308e-03
4.600831318679955984e+03 1.224433223892788636e+00 1.125707081267197929e-03
4.605432149998637215e+03 1.215459578185775102e+00 8.793928993932377276e-04
4.610037582148637739e+03 1.207500384459023968e+00 7.121243103423478089e-04
4.614647619730787483e+03 1.200222341981712182e+00 6.581501376147769200e-04
4.619262267350520233e+03 1.194140090944969534e+00 6.576952095914089230e-04
4.623881529617872729e+03 1.188896018947286581e+00 6.661475068577210135e-04
4.628505411147491941e+03 1.184876671395769021e+00 7.308650769359729222e-04
4.633133916558640522e+03 1.181008958642872919e+00 7.865273370389425176e-04
4.637767050475200449e+03 1.177497064150555994e+00 8.335541293379938963e-04
4.642404817525677572e+03 1.172387866646346977e+00 8.406767368380287965e-04
4.647047222343205249e+03 1.167125740804698886e+00 9.479500935259138226e-04
4.651694269565549803e+03 1.161109981839579142e+00 9.425637270837448770e-04
4.656345963835116891e+03 1.153544424606416374e+00 8.932504113259430879e-04
4.661002309798953320e+03 1.144730171352236869e+00 1.082287240995386760e-03
4.665663312108753416e+03 1.134948767687828042e+00 1.528847090917316489e-03
4.670328975420864481e+03 1.125201982015703983e+00 1.671800833479747872e-03
4.674999304396286789e+03 1.115989268594165473e+00 1.493118457542992952e-03
4.679674303700684504e+03 1.107755512335352188e+00 1.273894718139149517e-03
4.684353978004386590e+03 1.100927481812560504e+00 1.211826668218676404e-03
4.689038331982392265e+03 1.095741299452062334e+00 1.337930964557070479e-03
4.693727370314376458e+03 1.091662422844797531e+00 1.341060981047743949e-03
4.698421097684692540e+03 1.089241000364615131e+00 1.189593562567876905e-03
4.703119518782378691e+03 1.087618607690776784e+00 1.179993089314292781e-03
4.707822638301162442e+03 1.087133294008629569e+00 1.158538152392148569e-03
4.712530460939465229e+03 1.087261260573191279e+00 1.165623259706678435e-03
4.717242991400406027e+03 1.087974203218487590e+00 1.243911166322801774e-03
4.721960234391808626e+03 1.088340075992955569e+00 1.325456406601231230e-03
4.726682194626201635e+03 1.088337092464459088e+00 1.405094689387633962e-03
4.731408876820829391e+03 1.086582072253899245e+00 1.364180779054906733e-03
4.736140285697651962e+03 1.084887219644077305e+00 1.245864619481449383e-03
4.740876425983350600e+03 1.082120359938117504e+00 1.172070699540834213e-03
4.745617302409335934e+03 1.078319265370567326e+00 1.342896293455135949e-03
4.750362919711747054e+03 1.073480544482436683e+00 1.615398008745124294e-03
4.755113282631459697e+03 1.068213256728655747e+00 1.417235865775757055e-03
4.759868395914093526e+03 1.063232245191611636e+00 1.112884565226894117e-03
