# starting wavelength: 3555.250
# ending wavelength: 8662.660
# wav flux eflux
3.558593644082410719e+03 6.227410160939590433e-01 6.936724211421117607e-03
3.562152237726494150e+03 5.954327576154685442e-01 5.615303746899146138e-03
3.565714389964221937e+03 5.707395964698762647e-01 4.680125721758540344e-03
3.569280104354187188e+03 5.494901250422012939e-01 3.972983414412999820e-03
3.572849384458542772e+03 5.326869276103890494e-01 3.068552239203907548e-03
3.576422233843002232e+03 5.196616930328167294e-01 2.401769002793037715e-03
3.579998656076846601e+03 5.100243511922036843e-01 1.916117910229571354e-03
3.583578654732924406e+03 5.034267148289144345e-01 1.670699843929352715e-03
3.587162233387658489e+03 4.991450480601534179e-01 1.476673256351260710e-03
3.590749395621047370e+03 4.969293975769085714e-01 1.352844556536142873e-03
3.594340145016669794e+03 4.966264512962609845e-01 1.209876977789925770e-03
3.597934485161687462e+03 4.982780056668986157e-01 1.061667384717041723e-03
3.601532419646850485e+03 5.014139567693429722e-01 9.963246356091612615e-04
3.605133952066498296e+03 5.059159560899679775e-01 9.864130801276510454e-04
3.608739086018566013e+03 5.117562162895554767e-01 9.892648970764132688e-04
3.612347825104585809e+03 5.187838016493252491e-01 1.013307501935017388e-03
3.615960172929691907e+03 5.271305270708719348e-01 9.982721978717729212e-04
3.619576133102622407e+03 5.367878422877818689e-01 9.627000358742235494e-04
3.623195709235726554e+03 5.475754653522145743e-01 1.007983938479386273e-03
3.626818904944963379e+03 5.590331737114985211e-01 1.113457244594579388e-03
3.630445723849909427e+03 5.708465030777829519e-01 1.272155166240386765e-03
3.634076169573760581e+03 5.827694879596679867e-01 1.497813666196625825e-03
3.637710245743335690e+03 5.945299186280821324e-01 1.757618640952257269e-03
3.641347955989080219e+03 6.056757354636630453e-01 1.924688494752543975e-03
3.644989303945070333e+03 6.159303109682225941e-01 2.019325241600765635e-03
3.648634293249016537e+03 6.247517641222541940e-01 2.037567148108254938e-03
3.652282927542266862e+03 6.330499491404449897e-01 2.027090582449694433e-03
3.655935210469810499e+03 6.400075823223789762e-01 1.918868410187250274e-03
3.659591145680281443e+03 6.454761073739208044e-01 1.731832376303257858e-03
3.663250736825963031e+03 6.489391099002400631e-01 1.599817370916373476e-03
3.666913987562790226e+03 6.505502399822136184e-01 1.535978876707141689e-03
3.670580901550354156e+03 6.505383057450120354e-01 1.636572574496339590e-03
3.674251482451905758e+03 6.476623826832942354e-01 1.873782289042526727e-03
3.677925733934358959e+03 6.429872351594660973e-01 2.008583872047978516e-03
3.681603659668294313e+03 6.367979502805500847e-01 1.998927238689426900e-03
3.685285263327964003e+03 6.290410166071792597e-01 1.912024222487662206e-03
3.688970548591293209e+03 6.198663045241026293e-01 1.706054973127672878e-03
3.692659519139885560e+03 6.097424672075698604e-01 1.503240359748019223e-03
3.696352178659026777e+03 5.987754233421622718e-01 1.350223499763724983e-03
3.700048530837686940e+03 5.871757614795358737e-01 1.286562899439778508e-03
3.703748579368525952e+03 5.750835950983537170e-01 1.188292031351618214e-03
3.707452327947895355e+03 5.630170286959585990e-01 1.183428470287454203e-03
3.711159780275844696e+03 5.510780463458480050e-01 1.207910797586805385e-03
3.714870940056121526e+03 5.392784410181378218e-01 1.229335563094681580e-03
3.718585810996179134e+03 5.280783265111890223e-01 1.228255481142316238e-03
3.722304396807176545e+03 5.180355523986434063e-01 1.138632020089415473e-03
3.726026701203984885e+03 5.079659074540759933e-01 1.210999465008308698e-03
3.729752727905190113e+03 4.984488751826883224e-01 1.340452885287115323e-03
3.733482480633096657e+03 4.896863106642711516e-01 1.425664299370285170e-03
3.737215963113731050e+03 4.817715548913105161e-01 1.426852490448035854e-03
3.740953179076846027e+03 4.753698958516033302e-01 1.306885847865549939e-03
3.744694132255923705e+03 4.707199232978371839e-01 1.138914380063159098e-03
3.748438826388181042e+03 4.679741127133804079e-01 9.807095555330448775e-04
3.752187265214570289e+03 4.669346977465045900e-01 8.315358843231437924e-04
3.755939452479786269e+03 4.681101988424166693e-01 7.606863566405214780e-04
3.759695391932267285e+03 4.715510511416796113e-01 8.421360769792577685e-04
3.763455087324201031e+03 4.771256117508907435e-01 9.461134537440880378e-04
3.767218542411526414e+03 4.846096971183933566e-01 1.041966241761546402e-03
3.770985760953939007e+03 4.944870050624844415e-01 9.401309013815532323e-04
3.774756746714894234e+03 5.057533641999969465e-01 7.440739524358500664e-04
3.778531503461610555e+03 5.185123326762499651e-01 4.584322704863041356e-04
3.782310034965073100e+03 5.322383552266355400e-01 3.952588011702716747e-04
3.786092345000039586e+03 5.470770573500787215e-01 3.914785096724518747e-04
3.789878437345040766e+03 5.630062929239290082e-01 3.902467042888322951e-04
3.793668315782387253e+03 5.797597477198507265e-01 3.854505650170395752e-04
3.797461984098170888e+03 5.974783530426660549e-01 4.550026857223682972e-04
3.801259446082270188e+03 6.157226811862082094e-01 4.433295615504890077e-04
3.805060705528353537e+03 6.341384175261960410e-01 4.592427916338150378e-04
3.808865766233883278e+03 6.529552403934694160e-01 4.891999817418022766e-04
3.812674632000118436e+03 6.718756795574056806e-01 5.123169887997440887e-04
3.816487306632119726e+03 6.905952646480788548e-01 5.277665702129189168e-04
3.820303793938753188e+03 7.094306500503134716e-01 6.027195920839629540e-04
3.824124097732693372e+03 7.279984682632882897e-01 6.237876844097191070e-04
3.827948221830427428e+03 7.459460802515804900e-01 5.874198826805014390e-04
3.831776170052258749e+03 7.631447235327721845e-01 5.427985936370320445e-04
3.835607946222312421e+03 7.796632229982020101e-01 5.237409041616425528e-04
3.839443554168536139e+03 7.953816604122653233e-01 5.636230429633622184e-04
3.843282997722705659e+03 8.102787922628238437e-01 6.806228455668804876e-04
3.847126280720429804e+03 8.243993481798281842e-01 7.650275920243328155e-04
3.850973407001151372e+03 8.377276597990435114e-01 7.569199069309295478e-04
3.854824380408153957e+03 8.507783608948771281e-01 7.281383885465769930e-04
3.858679204788563311e+03 8.631347198487587802e-01 6.809223364333750117e-04
3.862537883993353262e+03 8.752054345202677776e-01 5.667736971916877533e-04
3.866400421877347981e+03 8.870802639834587389e-01 4.651596574727114020e-04
3.870266822299226533e+03 8.987245261305892852e-01 4.289164679994846496e-04
3.874137089121526969e+03 9.107542328702137313e-01 4.416358515549266800e-04
3.878011226210649966e+03 9.229557479360888106e-01 4.451344067810598156e-04
3.881889237436861549e+03 9.352258365353988134e-01 4.535714305129522712e-04
3.885771126674299921e+03 9.474705232806247546e-01 4.573632584032236419e-04
3.889656897800975457e+03 9.595291881467875594e-01 4.467164657494263817e-04
3.893546554698777527e+03 9.716284016327360051e-01 4.651972547012037432e-04
3.897440101253477678e+03 9.836413306320290761e-01 4.587272823874198450e-04
3.901337541354732366e+03 9.953307854813331357e-01 4.745309113915788767e-04
3.905238878896088409e+03 1.006516646626917755e+00 3.952522979649046651e-04
3.909144117774985716e+03 1.016706018331934969e+00 4.111561056177731317e-04
3.913053261892762293e+03 1.026190765106017144e+00 4.174318510312418512e-04
3.916966315154656058e+03 1.034628073384619595e+00 4.565592090535322881e-04
3.920883281469812118e+03 1.042334516487845253e+00 5.117573101164859303e-04
3.924804164751283224e+03 1.048497483944841990e+00 4.340797911178306714e-04
3.928728968916035683e+03 1.053040687921237284e+00 4.646509637507142618e-04
3.932657697884953450e+03 1.055541953655291243e+00 4.514617481626793851e-04
3.936590355582839493e+03 1.056174171095997538e+00 3.811083613189673240e-04
3.940526945938423523e+03 1.054901296678627753e+00 3.621662950158766113e-04
3.944467472884363360e+03 1.051604985922402591e+00 3.652173069664611848e-04
3.948411940357249023e+03 1.046419755604331980e+00 3.798680039192144022e-04
3.952360352297607733e+03 1.039385848230885312e+00 4.931795857995537784e-04
3.956312712649906643e+03 1.030756091300666366e+00 6.967498800911678912e-04
3.960269025362557841e+03 1.021447494196164874e+00 7.314518844009420618e-04
3.964229294387921527e+03 1.010741837985322134e+00 8.608427574230482267e-04
3.968193523682310570e+03 9.993319805211784423e-01 9.930073881985559438e-04
3.972161717205994591e+03 9.877030728057636377e-01 9.411676479433802884e-04
3.976133878923201792e+03 9.773590057726887492e-01 8.612513900167456226e-04
3.980110012802126221e+03 9.682832882074345893e-01 6.875200195885526264e-04
3.984090122814929600e+03 9.607024272361692763e-01 5.806922138144144730e-04
3.988074212937745870e+03 9.546926718306034676e-01 5.800385545852056179e-04
3.992062287150684824e+03 9.504696582113781878e-01 6.724510510527757388e-04
3.996054349437837118e+03 9.479695349404241300e-01 8.357793577073517307e-04
4.000050403787276082e+03 9.467064099297558544e-01 9.995822802737407923e-04
4.004050454191064546e+03 9.464922315296783184e-01 1.134638168835619626e-03
4.008054504645257111e+03 9.466988660027120250e-01 1.051884743922419435e-03
4.012062559149903791e+03 9.469523090341122051e-01 8.030213781657225946e-04
4.016074621709055009e+03 9.469564263919564295e-01 6.264246810577584661e-04
4.020090696330765240e+03 9.464112808472979754e-01 4.725906126563919813e-04
4.024110787027097558e+03 9.445896875526936798e-01 6.011125216393991026e-04
4.028134897814125907e+03 9.423483212373752194e-01 5.991352120575175848e-04
4.032163032711941469e+03 9.396201570201989650e-01 5.857112012612789541e-04
4.036195195744654484e+03 9.359882576488182115e-01 6.091229480744389697e-04
4.040231390940400615e+03 9.319019741926594103e-01 6.645498006330024512e-04
4.044271622331342314e+03 9.277324119852087270e-01 7.279814935890395900e-04
4.048315893953675186e+03 9.238134869103794555e-01 7.683878357305668231e-04
4.052364209847629809e+03 9.201811727331284940e-01 6.977413703315602173e-04
4.056416574057479011e+03 9.171022350013254831e-01 7.989682677740324920e-04
4.060472990631537868e+03 9.141390401194334769e-01 8.645637041325754304e-04
4.064533463622170530e+03 9.117465620495039946e-01 8.939742290664743013e-04
4.068597997085794304e+03 9.091513455791724319e-01 8.746489454592875799e-04
4.072666595082881486e+03 9.062122726383253779e-01 9.966034949760553541e-04
4.076739261677965715e+03 9.027889614449350342e-01 1.086406007276148698e-03
4.080816000939644709e+03 8.986637647257056383e-01 1.126244641299704950e-03
4.084896816940585722e+03 8.934106547495834771e-01 1.041295345574713184e-03
4.088981713757527814e+03 8.870388451323067969e-01 9.187802722335233849e-04
4.093070695471286854e+03 8.793003031505882694e-01 1.033185089992261739e-03
4.097163766166759160e+03 8.703957914735548362e-01 1.185823057955642150e-03
4.101260929932927866e+03 8.606463793200508361e-01 1.224915459620047565e-03
4.105362190862862008e+03 8.511245463732812766e-01 9.714891548368778792e-04
4.109467553053726078e+03 8.430939660533681712e-01 8.490288378589925166e-04
4.113577020606780934e+03 8.367289964707674832e-01 8.160811881083942804e-04
4.117690597627389252e+03 8.317229807190706925e-01 6.941696068914496526e-04
4.121808288225018259e+03 8.285720243774663540e-01 7.037790663657486970e-04
4.125930096513244280e+03 8.270662491225182489e-01 8.101589681747849766e-04
4.130056026609759101e+03 8.270998785485454974e-01 9.237487619517946880e-04
4.134186082636369974e+03 8.286133099454134898e-01 8.798515938123129768e-04
4.138320268719007800e+03 8.307576815863876307e-01 4.936302116190980065e-04
4.142458588987728035e+03 8.326117221922061384e-01 4.002606677217154774e-04
4.146601047576717065e+03 8.341459131779422886e-01 5.101154153998439756e-04
4.150747648624294925e+03 8.360617087282032900e-01 5.326261811318484720e-04
4.154898396272920763e+03 8.377638358541859009e-01 5.371818148499253468e-04
4.159053294669195566e+03 8.396035673378047237e-01 5.124960696721274226e-04
4.163212347963865795e+03 8.413115371806526577e-01 5.419709086571465042e-04
4.167375560311830668e+03 8.425132173217915188e-01 5.139257878891775487e-04
4.171542935872143971e+03 8.438076768407880568e-01 5.848027216933052034e-04
4.175714478808017702e+03 8.446811501259242627e-01 5.702707761016712106e-04
4.179890193286827525e+03 8.450291036257127075e-01 5.508154851005633065e-04
4.184070083480115500e+03 8.447383431495174566e-01 5.907135302475571056e-04
4.188254153563597356e+03 8.441485017598968632e-01 6.381192929858632524e-04
4.192442407717161586e+03 8.431750034323424181e-01 6.693567136393381274e-04
4.196634850124880359e+03 8.418865805821512671e-01 6.489589224331608229e-04
4.200831484975006788e+03 8.407954301466260549e-01 5.760166337565806845e-04
4.205032316459983122e+03 8.398325052151660586e-01 5.301356329485378124e-04
4.209237348776444378e+03 8.391655749802497954e-01 5.187075286850965482e-04
4.213446586125221984e+03 8.391593050923412678e-01 5.118398613137951783e-04
4.217660032711349231e+03 8.396773459461394085e-01 5.586116709975738918e-04
4.221877692744061278e+03 8.408383372363914532e-01 5.777151593873928450e-04
4.226099570436806971e+03 8.425075813612245001e-01 5.998610109859580557e-04
4.230325670007245208e+03 8.450485329574627391e-01 5.890475337381473071e-04
4.234555995677254032e+03 8.480451677194225102e-01 5.636080931478610083e-04
4.238790551672932452e+03 8.517014400060500812e-01 6.662476522580889227e-04
4.243029342224606808e+03 8.555833068365489291e-01 7.781175693792065882e-04
4.247272371566832589e+03 8.588405913744190379e-01 7.850542693673030759e-04
4.251519643938400804e+03 8.622279046403840130e-01 7.531008529271257740e-04
4.255771163582340705e+03 8.646644124880302762e-01 6.459500453049195996e-04
4.260026934745924336e+03 8.655958886627410642e-01 6.249271436349082770e-04
4.264286961680671993e+03 8.652089060989935909e-01 6.241170996849350989e-04
4.268551248642354039e+03 8.633219722587294198e-01 6.221148116621973059e-04
4.272819799890998183e+03 8.597250711880657370e-01 6.122988985427756103e-04
4.277092619690890388e+03 8.546088497546637797e-01 5.366745100446923588e-04
4.281369712310583054e+03 8.487168814529044703e-01 5.577894179599533720e-04
4.285651082022895025e+03 8.414876808641376105e-01 5.811924601363039657e-04
4.289936733104918858e+03 8.332870718383008635e-01 5.921809465888090577e-04
4.294226669838025373e+03 8.244445193044154241e-01 5.929816320120069855e-04
4.298520896507864563e+03 8.149258863648907170e-01 5.930717849230807701e-04
4.302819417404373780e+03 8.049385255842982367e-01 6.001628634580463868e-04
4.307122236821779552e+03 7.945403620164649405e-01 5.926652448901333775e-04
4.311429359058603040e+03 7.842653637537531086e-01 6.227089608229892338e-04
4.315740788417662770e+03 7.744556406181949404e-01 6.138998951205788942e-04
4.320056529206081905e+03 7.653442189240858839e-01 6.477088683281560007e-04
4.324376585735290064e+03 7.567738302591318078e-01 6.437806359981581563e-04
4.328700962321026054e+03 7.488019089023906227e-01 6.394555887291392604e-04
4.333029663283348782e+03 7.424830033858816902e-01 6.108648957501238395e-04
4.337362692946633615e+03 7.373575937004079872e-01 6.300864844074634393e-04
4.341700055639581478e+03 7.333864389931922245e-01 4.813952058136250619e-04
4.346041755695222491e+03 7.319333614185316028e-01 5.168104604656399356e-04
4.350387797450919606e+03 7.318518805065552524e-01 6.994908249827219877e-04
4.354738185248371337e+03 7.338151115531740265e-01 7.867503962034965662e-04
4.359092923433621763e+03 7.383904419934372854e-01 7.385381841741216549e-04
4.363452016357056891e+03 7.455698063729320202e-01 7.826069434200392822e-04
4.367815468373414660e+03 7.546330694965713848e-01 9.278432500520482134e-04
4.372183283841789489e+03 7.657233956443277867e-01 1.237556359704195365e-03
4.376555467125633186e+03 7.780762001694428998e-01 1.217118793686651664e-03
4.380932022592760404e+03 7.910385474586082433e-01 1.053362453089171178e-03
4.385312954615354101e+03 8.042683853540009142e-01 1.007313351456712389e-03
4.389698267569970994e+03 8.176145789292708077e-01 1.111739349335763702e-03
4.394087965837542470e+03 8.311703518829505200e-01 1.135087139243898431e-03
4.398482053803381859e+03 8.453315672422565541e-01 1.132821377262186553e-03
4.402880535857186260e+03 8.595943414498691260e-01 1.133567533234743942e-03
4.407283416393044718e+03 8.736125496316987649e-01 1.090937670197946125e-03
4.411690699809440048e+03 8.876888078689064709e-01 1.061367941261352624e-03
4.416102390509250654e+03 9.020288535859912749e-01 1.073787193555967353e-03
4.420518492899761441e+03 9.165061200584116996e-01 1.067584825555816961e-03
4.424939011392662906e+03 9.313944249300886158e-01 1.022163243258760552e-03
4.429363950404056595e+03 9.468441735172415941e-01 8.687285200053078372e-04
4.433793314354462382e+03 9.618055238561347142e-01 8.976569437725887652e-04
4.438227107668818462e+03 9.771246377965441265e-01 7.985782889513402686e-04
4.442665334776488635e+03 9.929740229525124695e-01 6.986801631383684000e-04
4.447108000111265937e+03 1.009436048633623351e+00 5.684020241977996582e-04
4.451555108111379013e+03 1.027132256775634245e+00 7.241759431898452072e-04
4.456006663219492111e+03 1.045941417295105369e+00 6.668836135319131586e-04
4.460462669882713271e+03 1.065197946664633077e+00 5.389442925825163426e-04
4.464923132552597053e+03 1.085056709874749004e+00 5.972921514806138867e-04
4.469388055685150903e+03 1.105442628244580172e+00 9.067279978497979828e-04
4.473857443740837880e+03 1.126793346168124543e+00 9.096456173670273418e-04
4.478331301184580298e+03 1.149566655353549294e+00 7.808119365430624646e-04
4.482809632485766087e+03 1.173837906719753077e+00 7.363757312741389498e-04
4.487292442118253348e+03 1.199296877214317547e+00 7.639283927400118256e-04
4.491779734560373072e+03 1.225670697222374761e+00 8.143500749744478004e-04
4.496271514294934605e+03 1.253058932292620442e+00 9.485655855058459105e-04
4.500767785809231100e+03 1.280650496329147181e+00 9.342658274307776359e-04
4.505268553595042249e+03 1.307707927161856798e+00 8.200990476537218122e-04
4.509773822148638828e+03 1.333860280190394265e+00 6.527444485351505598e-04
4.514283595970789065e+03 1.358550657688051500e+00 5.561406678894187904e-04
4.518797879566761367e+03 1.381483033530332305e+00 5.503869292862312301e-04
4.523316677446328868e+03 1.402356084102988287e+00 6.426788418563854268e-04
4.527839994123776705e+03 1.421017677074748686e+00 6.568174426167932298e-04
4.532367834117902021e+03 1.437996756338570714e+00 4.085009415047763316e-04
4.536900201952022144e+03 1.453756253414510535e+00 4.195511384837777172e-04
4.541437102153975502e+03 1.467702185159382999e+00 4.228681905699705748e-04
4.545978539256130716e+03 1.479546006825360971e+00 4.566807588370844760e-04
4.550524517795388419e+03 1.489611009802065178e+00 4.631111649806053947e-04
4.555075042313184895e+03 1.497492674099703214e+00 4.220868841522828650e-04
4.559630117355500261e+03 1.503455422606954528e+00 4.936807147288837464e-04
4.564189747472856652e+03 1.507101259829720652e+00 5.194444961970790670e-04
4.568753937220330954e+03 1.508090268860815986e+00 5.266431710053266855e-04
4.573322691157552981e+03 1.506148514657458692e+00 5.639154628573798218e-04
4.577896013848711846e+03 1.500935763055438521e+00 6.458148272691427091e-04
4.582473909862562323e+03 1.492612447364668027e+00 6.389150613065327578e-04
4.587056383772426670e+03 1.480489751918216745e+00 5.709014222053692593e-04
4.591643440156200086e+03 1.464844614055386796e+00 6.655970149013267856e-04
4.596235083596357981e+03 1.446203392045442016e+00 8.239361089473908701e-04
4.600831318679955984e+03 1.425041593029101161e+00 9.538846172248399268e-04
4.605432149998637215e+03 1.402075749581384478e+00 9.783356339759683926e-04
4.610037582148637739e+03 1.377364397187901712e+00 9.168512857129164275e-04
4.614647619730787483e+03 1.351863654515756963e+00 6.566189055666251393e-04
4.619262267350520233e+03 1.326724247562864889e+00 5.093604183646116600e-04
4.623881529617872729e+03 1.302574666421711491e+00 4.719715842774504892e-04
4.628505411147491941e+03 1.279287731519924254e+00 4.551663609039364685e-04
4.633133916558640522e+03 1.257312131572079661e+00 5.255525585092766811e-04
