# starting wavelength: 4012.320
# ending wavelength: 9993.720
# wav flux eflux
4.016074621709055009e+03 5.896364165392392609e-01 3.095075287662257466e-02
4.020090696330765240e+03 5.965353597854016199e-01 2.269137445960129479e-02
4.024110787027097558e+03 6.079571202444353784e-01 1.704355048933202041e-02
4.028134897814125907e+03 6.247926473040634754e-01 1.877232433041994136e-02
4.032163032711941469e+03 6.381589564183658414e-01 1.682334805692688520e-02
4.036195195744654484e+03 6.467158889413965328e-01 1.400888512850013458e-02
4.040231390940400615e+03 6.510663669663745434e-01 1.232923761333083214e-02
4.044271622331342314e+03 6.503375508397222227e-01 1.151013307575543022e-02
4.048315893953675186e+03 6.448821226578436150e-01 1.052018320705458421e-02
4.052364209847629809e+03 6.372013926674200412e-01 9.138521386397301452e-03
4.056416574057479011e+03 6.282251011469454083e-01 8.109864428807983527e-03
4.060472990631537868e+03 6.173388523132273820e-01 7.311800804477465790e-03
4.064533463622170530e+03 6.030014363920002118e-01 7.043665162369313476e-03
4.068597997085794304e+03 5.878541141293274208e-01 6.869389178350034444e-03
4.072666595082881486e+03 5.732591032414036114e-01 6.642267201993332093e-03
4.076739261677965715e+03 5.589377775883649369e-01 6.546986374144197693e-03
4.080816000939644709e+03 5.455001224588698072e-01 6.577370915270873766e-03
4.084896816940585722e+03 5.355920448148847601e-01 6.361929057027011260e-03
4.088981713757527814e+03 5.252742877014935363e-01 5.875868883448419691e-03
4.093070695471286854e+03 5.167985704774340494e-01 5.332767861990077816e-03
4.097163766166759160e+03 5.111154694894670669e-01 5.111969463433157362e-03
4.101260929932927866e+03 5.083058620646301318e-01 5.258848951546789274e-03
4.105362190862862008e+03 5.087403879478642477e-01 5.614640969245981821e-03
4.109467553053726078e+03 5.125639663742762586e-01 6.464511942338083475e-03
4.113577020606780934e+03 5.194382603839535761e-01 6.845800921385859078e-03
4.117690597627389252e+03 5.276231130134950709e-01 6.435589583389613767e-03
4.121808288225018259e+03 5.343462177117631606e-01 6.079183983915476160e-03
4.125930096513244280e+03 5.433693364916294399e-01 5.495185883044248487e-03
4.130056026609759101e+03 5.524695795174424662e-01 4.482806325645904977e-03
4.134186082636369974e+03 5.592722241368680569e-01 4.279519190042322015e-03
4.138320268719007800e+03 5.633178001124243828e-01 4.330509804028549216e-03
4.142458588987728035e+03 5.663462258062388344e-01 4.452360899721718827e-03
4.146601047576717065e+03 5.681040522623033162e-01 4.921892099212976136e-03
4.150747648624294925e+03 5.687868980564935173e-01 5.057900923790090153e-03
4.154898396272920763e+03 5.693056885545443313e-01 5.022237239591383767e-03
4.159053294669195566e+03 5.684158278512085882e-01 4.989328928594953007e-03
4.163212347963865795e+03 5.668106211406062078e-01 4.953537860140888247e-03
4.167375560311830668e+03 5.662090685998826256e-01 4.959488131593159724e-03
4.171542935872143971e+03 5.627056223195953111e-01 4.972195660883059649e-03
4.175714478808017702e+03 5.562078254345851347e-01 4.694636475666052848e-03
4.179890193286827525e+03 5.522510824463190415e-01 4.719251896053166390e-03
4.184070083480115500e+03 5.481552370424329634e-01 4.641334264922756039e-03
4.188254153563597356e+03 5.444012534881692567e-01 4.386504223896523988e-03
4.192442407717161586e+03 5.413606084595494750e-01 4.300131899454238092e-03
4.196634850124880359e+03 5.399638722212894981e-01 4.364969761716239356e-03
4.200831484975006788e+03 5.402433491838183333e-01 3.894889683535321129e-03
4.205032316459983122e+03 5.400340278687147944e-01 3.883259965803605943e-03
4.209237348776444378e+03 5.400388628903384225e-01 4.044301005272666998e-03
4.213446586125221984e+03 5.412428526279599028e-01 4.143744880717615577e-03
4.217660032711349231e+03 5.431853375666556571e-01 4.091177834029879543e-03
4.221877692744061278e+03 5.466820174621428441e-01 4.046927352783371602e-03
4.226099570436806971e+03 5.519450211521168548e-01 4.064297213362915578e-03
4.230325670007245208e+03 5.592689739122619352e-01 5.133706751834051646e-03
4.234555995677254032e+03 5.659005519320376987e-01 5.724978186558632616e-03
4.238790551672932452e+03 5.714268152820797253e-01 5.910776823164764181e-03
4.243029342224606808e+03 5.753591178654615668e-01 6.104742913550687163e-03
4.247272371566832589e+03 5.801508598866351729e-01 6.070651435288176856e-03
4.251519643938400804e+03 5.855355593694268057e-01 5.661711869047453619e-03
4.255771163582340705e+03 5.899785244313809907e-01 5.379574211908712614e-03
4.260026934745924336e+03 5.922717689692714726e-01 5.442328762834961614e-03
4.264286961680671993e+03 5.945766462591325352e-01 5.965399545147780785e-03
4.268551248642354039e+03 5.947805194996746980e-01 6.652488046757163917e-03
4.272819799890998183e+03 5.952065776215900161e-01 6.473357689040652556e-03
4.277092619690890388e+03 5.966981344155488642e-01 6.218209688137082622e-03
4.281369712310583054e+03 5.964550908394434803e-01 5.889080998981187365e-03
4.285651082022895025e+03 5.975873226806118765e-01 5.973576199523151012e-03
4.289936733104918858e+03 6.004066261543812288e-01 6.092359482152540431e-03
4.294226669838025373e+03 6.057150705647769140e-01 5.769246504014706282e-03
4.298520896507864563e+03 6.161965779943932020e-01 6.055838005668256682e-03
4.302819417404373780e+03 6.268515112041981308e-01 6.262570946304027615e-03
4.307122236821779552e+03 6.405690588721058010e-01 6.862229992444010725e-03
4.311429359058603040e+03 6.547607674392013077e-01 7.018216967348658505e-03
4.315740788417662770e+03 6.717070823953973369e-01 6.803801751297243981e-03
4.320056529206081905e+03 6.917573963432183115e-01 6.359474737229526935e-03
4.324376585735290064e+03 7.148175220412635866e-01 5.312051451710996658e-03
4.328700962321026054e+03 7.329895198806857248e-01 5.091982389275395877e-03
4.333029663283348782e+03 7.491513527537371209e-01 5.074813913743538366e-03
4.337362692946633615e+03 7.640938038167761626e-01 5.077981763050742024e-03
4.341700055639581478e+03 7.763002913746743783e-01 5.064108813467804726e-03
4.346041755695222491e+03 7.871573853879094695e-01 5.364062195164490641e-03
4.350387797450919606e+03 7.944077273362868397e-01 5.456761566249679167e-03
4.354738185248371337e+03 7.985797257904965196e-01 5.483338374648907311e-03
4.359092923433621763e+03 8.004627393836186711e-01 5.018681471321048693e-03
4.363452016357056891e+03 7.990554468966544199e-01 5.204840486232884325e-03
4.367815468373414660e+03 7.933199743165364470e-01 5.406977155869691597e-03
4.372183283841789489e+03 7.852818620577715070e-01 5.700311331032985318e-03
4.376555467125633186e+03 7.756319431393319253e-01 6.211712090214848922e-03
4.380932022592760404e+03 7.667644819595134109e-01 6.183038229633696682e-03
4.385312954615354101e+03 7.544529587170295537e-01 5.761846061600574623e-03
4.389698267569970994e+03 7.433922636276254492e-01 5.822434437867951562e-03
4.394087965837542470e+03 7.350012942598982413e-01 6.125284317247142556e-03
4.398482053803381859e+03 7.287620911824868042e-01 6.406723831276382383e-03
4.402880535857186260e+03 7.236377920792227414e-01 5.917074935105646159e-03
4.407283416393044718e+03 7.230681916165260237e-01 5.236733092837827196e-03
4.411690699809440048e+03 7.265814904396736829e-01 5.074128812710044026e-03
4.416102390509250654e+03 7.352021104236916571e-01 5.454266602522218899e-03
4.420518492899761441e+03 7.497458433999893979e-01 5.128898903494363316e-03
4.424939011392662906e+03 7.651389067416465295e-01 4.699725046292636474e-03
4.429363950404056595e+03 7.821547804148165639e-01 4.903799797877229048e-03
4.433793314354462382e+03 8.004729726327124428e-01 5.208945730685893283e-03
4.438227107668818462e+03 8.204256725618246371e-01 4.714775159694448679e-03
4.442665334776488635e+03 8.392526781273752512e-01 4.474973391457350187e-03
4.447108000111265937e+03 8.534215768692958726e-01 4.433171661475068803e-03
4.451555108111379013e+03 8.659808136415595436e-01 4.292851283110369655e-03
4.456006663219492111e+03 8.735639405258104340e-01 5.134070082999444250e-03
4.460462669882713271e+03 8.796973275736450493e-01 6.671912498167252570e-03
4.464923132552597053e+03 8.849006513428243625e-01 7.525080347795034923e-03
4.469388055685150903e+03 8.914568902261653660e-01 7.572081068391485655e-03
4.473857443740837880e+03 8.984589579044893748e-01 6.846524061698785503e-03
4.478331301184580298e+03 9.100900399853359968e-01 6.000063170233999564e-03
4.482809632485766087e+03 9.228281510567946100e-01 5.325492508013025990e-03
4.487292442118253348e+03 9.405756447245572360e-01 4.997105903643218362e-03
4.491779734560373072e+03 9.653535612336927585e-01 4.853716078645846886e-03
4.496271514294934605e+03 9.940185921794117974e-01 4.692776409629607209e-03
4.500767785809231100e+03 1.026423575340599248e+00 5.416833413043611704e-03
4.505268553595042249e+03 1.061192959516491063e+00 6.100390250084655047e-03
4.509773822148638828e+03 1.093818772519855820e+00 5.637288362074084971e-03
4.514283595970789065e+03 1.125806504554057064e+00 4.708742751780489559e-03
4.518797879566761367e+03 1.154893677904864413e+00 4.419734098978158818e-03
4.523316677446328868e+03 1.180499778581471926e+00 4.408167979440567007e-03
4.527839994123776705e+03 1.201863536415682443e+00 4.396072568962354661e-03
4.532367834117902021e+03 1.218353327824717836e+00 4.279104152730721020e-03
4.536900201952022144e+03 1.228518717405294280e+00 4.563419440930525581e-03
4.541437102153975502e+03 1.235116383635248560e+00 5.022310619826618298e-03
4.545978539256130716e+03 1.241985001441568315e+00 5.266721833067944739e-03
4.550524517795388419e+03 1.244913141625516140e+00 6.511602023584139864e-03
4.555075042313184895e+03 1.248820181340404289e+00 7.309262078907319445e-03
4.559630117355500261e+03 1.250002298501065034e+00 5.998393092620970223e-03
4.564189747472856652e+03 1.258731332942050196e+00 7.714464439428395451e-03
4.568753937220330954e+03 1.266307166480524549e+00 8.530546504831541116e-03
4.573322691157552981e+03 1.272437926512385520e+00 8.938336165745942863e-03
4.577896013848711846e+03 1.276959389170385650e+00 7.902401340865993287e-03
4.582473909862562323e+03 1.275535451650641194e+00 7.526562119562642435e-03
4.587056383772426670e+03 1.266060328365583354e+00 7.616815378384839824e-03
4.591643440156200086e+03 1.250801795793640148e+00 8.192177386414133469e-03
4.596235083596357981e+03 1.232829381301874694e+00 8.532262067940500974e-03
4.600831318679955984e+03 1.210858658429582846e+00 8.987908010815131091e-03
4.605432149998637215e+03 1.185427058762095198e+00 8.499589174001162539e-03
4.610037582148637739e+03 1.156237506929430170e+00 7.017818344758174585e-03
4.614647619730787483e+03 1.129394824815358689e+00 5.442579209686137717e-03
4.619262267350520233e+03 1.108266436661231147e+00 6.459376377898650920e-03
4.623881529617872729e+03 1.090771481463907344e+00 6.890342217071692039e-03
4.628505411147491941e+03 1.076921761230568375e+00 5.741515350153775753e-03
4.633133916558640522e+03 1.061647357950824544e+00 4.567333253570284371e-03
4.637767050475200449e+03 1.045384926511082391e+00 4.493333468371184247e-03
4.642404817525677572e+03 1.026793789678055457e+00 5.105838048228021099e-03
4.647047222343205249e+03 1.008817804586920941e+00 4.371381247625556049e-03
4.651694269565549803e+03 9.950310684834651198e-01 4.255289782388306692e-03
4.656345963835116891e+03 9.846151794354407460e-01 4.620773858960496375e-03
4.661002309798953320e+03 9.732734571946177748e-01 4.583847575628270145e-03
4.665663312108753416e+03 9.629732040528010684e-01 4.700651677291039360e-03
4.670328975420864481e+03 9.558965971719916022e-01 4.823557305055305687e-03
4.674999304396286789e+03 9.542271627204845785e-01 4.632327639269745966e-03
4.679674303700684504e+03 9.535012114719285670e-01 4.813651068859775041e-03
4.684353978004386590e+03 9.531056086414987361e-01 4.760745126101893071e-03
4.689038331982392265e+03 9.527752095149276679e-01 4.838631928760482939e-03
4.693727370314376458e+03 9.519967799323341140e-01 5.057505918569043211e-03
4.698421097684692540e+03 9.521921849059377108e-01 4.663193660655264375e-03
4.703119518782378691e+03 9.557109893225231856e-01 4.461957282999966246e-03
4.707822638301162442e+03 9.633635238529147937e-01 4.831360472180181061e-03
4.712530460939465229e+03 9.710690171711551244e-01 4.870048001631172713e-03
4.717242991400406027e+03 9.804313698017006473e-01 4.574758557226949428e-03
4.721960234391808626e+03 9.859743296881724461e-01 4.700776990708950033e-03
4.726682194626201635e+03 9.898092112824362632e-01 4.866380715221631063e-03
4.731408876820829391e+03 9.924444906427312141e-01 5.050530767391614786e-03
4.736140285697651962e+03 9.966028251318047593e-01 4.901116702990445002e-03
4.740876425983350600e+03 1.004414016051567771e+00 5.114658548349710482e-03
4.745617302409335934e+03 1.012739247487966177e+00 5.262630057923638020e-03
4.750362919711747054e+03 1.018825458878682699e+00 5.309704272956143091e-03
4.755113282631459697e+03 1.020022384359871248e+00 5.127258719137107491e-03
4.759868395914093526e+03 1.021133457506847364e+00 5.075333336710798580e-03
4.764628264310008490e+03 1.023342127330106655e+00 5.008329075377265793e-03
4.769392892574320285e+03 1.024454644414648952e+00 4.328128558647690270e-03
4.774162285466896719e+03 1.020523785487015944e+00 4.334092501203023855e-03
4.778936447752364984e+03 1.012559184376546906e+00 5.355650964775554579e-03
4.783715384200118933e+03 1.002733586784546826e+00 5.650175533133129126e-03
4.788499099584319993e+03 9.939538162376515551e-01 4.738191607012954762e-03
4.793287598683906253e+03 9.877389821666601177e-01 4.090595281457285251e-03
4.798080886282591564e+03 9.848314423631242542e-01 4.232432900023790252e-03
4.802878967168876443e+03 9.845884350832931897e-01 4.709209421755194795e-03
4.807681846136046261e+03 9.872244806737531242e-01 4.336938254624176162e-03
4.812489527982183972e+03 9.880577157843367653e-01 4.343655311086568917e-03
4.817302017510168298e+03 9.880950283871716699e-01 3.899975387844618370e-03
4.822119319527679181e+03 9.837186324737189347e-01 3.921131561387993826e-03
4.826941438847208701e+03 9.773398539352111669e-01 4.071939758014883615e-03
4.831768380286057436e+03 9.707315240701912540e-01 4.009010912785490773e-03
4.836600148666345376e+03 9.614895954561281100e-01 4.478088061101064173e-03
4.841436748815013743e+03 9.510675195664476389e-01 4.312789803082721883e-03
4.846278185563829538e+03 9.390097678699840245e-01 2.605363028125683936e-03
4.851124463749395545e+03 9.314391674030512158e-01 2.096275034677156420e-03
4.855975588213146693e+03 9.271402458900669385e-01 2.309211316976797924e-03
4.860831563801360971e+03 9.272982517765606669e-01 2.776496858424786808e-03
4.865692395365163975e+03 9.264796014640955812e-01 2.738257952038261177e-03
4.870558087760530725e+03 9.252655565270422322e-01 2.608972982293152401e-03
4.875428645848292945e+03 9.246511747096319844e-01 2.570348710441653067e-03
4.880304074494142696e+03 9.242396961487260310e-01 2.920112098741694390e-03
4.885184378568638749e+03 9.243908075771236632e-01 3.131702675127374675e-03
4.890069562947209306e+03 9.251194051816322705e-01 3.127375732027923901e-03
4.894959632510157462e+03 9.275973644933643847e-01 2.804065287345793977e-03
4.899854592142669389e+03 9.327747762102350793e-01 3.654064662414103874e-03
4.904754446734813428e+03 9.385114501248498220e-01 4.437884369412891349e-03
4.909659201181550088e+03 9.434482899855695104e-01 4.423727055288036863e-03
4.914568860382732964e+03 9.458331461082988278e-01 4.275501472951110694e-03
4.919483429243117826e+03 9.467948704603648125e-01 4.256220737195852769e-03
4.924402912672362618e+03 9.472671279321357440e-01 4.224795876306373758e-03
4.929327315585036558e+03 9.456217237955368837e-01 4.400575325148829188e-03
4.934256642900622865e+03 9.428840796763624521e-01 4.508082424273997073e-03
4.939190899543525120e+03 9.386063485970888021e-01 3.789285697979116220e-03
4.944130090443070912e+03 9.364832371560611879e-01 3.501850823951436088e-03
4.949074220533515472e+03 9.343747855884603215e-01 3.129134999217619666e-03
4.954023294754050767e+03 9.364285137944329263e-01 3.801667968474122406e-03
4.958977318048806410e+03 9.375704928353089107e-01 3.704200725293471923e-03
4.963936295366856939e+03 9.386185015156126576e-01 3.416373234239772870e-03
4.968900231662225451e+03 9.393752207135875887e-01 2.616840426459643692e-03
4.973869131893889062e+03 9.366140684938115690e-01 3.886727733915620528e-03
4.978843001025784361e+03 9.339957711154697195e-01 4.091352240006319863e-03
4.983821844026811959e+03 9.306746039250979319e-01 3.385340273117506179e-03
4.988805665870840130e+03 9.283133019563221122e-01 3.290823578690746376e-03
4.993794471536712990e+03 9.278218441452388277e-01 4.219400528846599212e-03
4.998788266008251412e+03 9.261888138586926722e-01 4.414445539251628942e-03
5.003787054274261209e+03 9.220788818677636556e-01 4.133072996656679716e-03
5.008790841328536771e+03 9.165908658485196758e-01 4.012708570026646791e-03
5.013799632169867436e+03 9.093619078290802182e-01 4.347640937313807137e-03
5.018813431802038394e+03 9.022600830388285420e-01 4.888836014412371173e-03
5.023832245233842514e+03 8.959279548464925691e-01 5.305735732748873522e-03
5.028856077479077612e+03 8.910922850016684826e-01 5.150171625763464746e-03
5.033884933556558281e+03 8.897534454775009038e-01 4.326411781211347840e-03
5.038918818490116792e+03 8.937098886588230595e-01 4.305506956614578093e-03
5.043957737308608557e+03 9.016255039186644726e-01 5.248750019304896167e-03
5.049001695045918495e+03 9.134657563077110964e-01 5.233097901654104600e-03
5.054050696740966487e+03 9.270784310622406377e-01 4.922980662536553809e-03
5.059104747437709193e+03 9.424940732495474816e-01 3.528794482962915348e-03
5.064163852185148244e+03 9.562913851878819260e-01 2.133170886661958036e-03
5.069228016037335692e+03 9.653984210018242695e-01 2.653811598089998811e-03
5.074297244053374015e+03 9.732522716620304326e-01 2.935003347800598916e-03
5.079371541297429758e+03 9.797989838247000982e-01 2.596749916432520774e-03
5.084450912838728073e+03 9.867068089690758104e-01 2.207349229102023320e-03
5.089535363751569093e+03 9.948869364193664300e-01 2.004617539229743093e-03
5.094624899115322478e+03 1.004208534196338043e+00 1.837177764324693114e-03
5.099719524014439230e+03 1.014924623647803337e+00 1.598553903897891818e-03
5.104819243538455339e+03 1.029943990824005340e+00 1.694014697179779816e-03
5.109924062781995417e+03 1.047254726893780852e+00 2.017640279321413019e-03
5.115033986844779065e+03 1.065409002054340304e+00 1.870797129061915016e-03
5.120149020831625421e+03 1.083737616210751042e+00 1.839569458249801486e-03
5.125269169852458617e+03 1.102255043929108336e+00 1.812358236629807136e-03
5.130394439022313236e+03 1.121889211627012717e+00 2.114348843010992879e-03
5.135524833461337039e+03 1.142498001661615081e+00 3.024613952391950675e-03
5.140660358294800062e+03 1.160320913837984858e+00 2.584392834838212909e-03
5.145801018653096435e+03 1.174680511054424059e+00 2.804336612217778798e-03
5.150946819671751655e+03 1.188296701100247432e+00 2.959198922569484472e-03
5.156097766491425318e+03 1.200742083577172936e+00 3.595564190763316913e-03
5.161253864257918394e+03 1.213454243983880243e+00 3.770381141638382179e-03
5.166415118122177773e+03 1.226270964828223509e+00 3.554443933355851386e-03
5.171581533240301724e+03 1.241511033295337851e+00 3.156155907938950050e-03
5.176753114773543530e+03 1.259663845768729473e+00 3.147332760203815343e-03
5.181929867888318768e+03 1.279736565701791395e+00 3.431277599997672578e-03
5.187111797756208944e+03 1.301515408322612144e+00 4.213158377092024974e-03
5.192298909553966951e+03 1.322435710561735478e+00 4.793918201833198903e-03
5.197491208463522526e+03 1.340876470615283811e+00 5.080153940313180197e-03
5.202688699671987706e+03 1.355557020241184185e+00 3.979972255960443836e-03
5.207891388371661378e+03 1.365219421353518481e+00 2.780333694132905951e-03
5.213099279760034733e+03 1.367524549330689565e+00 4.105372695609765463e-03
5.218312379039796724e+03 1.364658453267791893e+00 5.012763142686997575e-03
5.223530691418837705e+03 1.360201700953163284e+00 4.349004874872428039e-03
5.228754222110258524e+03 1.356113715938313646e+00 3.755097299595516139e-03
