# starting wavelength: 3678.150
# ending wavelength: 9669.450
# wav flux eflux
3.681603659668294313e+03 4.854758748682623248e-01 1.900789080722137953e-02
3.685285263327964003e+03 4.884074449260704665e-01 1.386544787601005913e-02
3.688970548591293209e+03 4.906893725840258402e-01 1.086552731838887759e-02
3.692659519139885560e+03 4.959558566570871907e-01 8.422200091793279053e-03
3.696352178659026777e+03 5.014421128885159229e-01 6.464349553277518728e-03
3.700048530837686940e+03 5.076346969210543403e-01 5.104342149876708694e-03
3.703748579368525952e+03 5.134090944053117944e-01 4.164631064991513275e-03
3.707452327947895355e+03 5.200452671805121385e-01 3.388770419928604193e-03
3.711159780275844696e+03 5.267760116095443479e-01 2.904600407598807374e-03
3.714870940056121526e+03 5.331887439762217351e-01 2.497265019269412703e-03
3.718585810996179134e+03 5.393784470495217587e-01 2.181370912058348301e-03
3.722304396807176545e+03 5.457090377236141210e-01 1.942929884823750650e-03
3.726026701203984885e+03 5.518442633858392510e-01 1.751322615044284417e-03
3.729752727905190113e+03 5.574559832809562465e-01 1.649772895896847681e-03
3.733482480633096657e+03 5.638214059367084863e-01 1.609863931424051391e-03
3.737215963113731050e+03 5.691439943316288774e-01 1.552281776524292323e-03
3.740953179076846027e+03 5.740050301299111091e-01 1.578531831183951732e-03
3.744694132255923705e+03 5.786825032463256413e-01 1.655822489508266323e-03
3.748438826388181042e+03 5.836579474964853631e-01 1.676430984055787615e-03
3.752187265214570289e+03 5.884663530873497361e-01 1.849076394436781042e-03
3.755939452479786269e+03 5.939281906199788130e-01 1.812955053780206842e-03
3.759695391932267285e+03 5.999098571037401184e-01 1.797618621902966800e-03
3.763455087324201031e+03 6.058439799703640993e-01 1.765318943542744032e-03
3.767218542411526414e+03 6.123365021089435256e-01 1.891080435354604208e-03
3.770985760953939007e+03 6.185314568964679349e-01 1.934638967093104626e-03
3.774756746714894234e+03 6.247686816263076093e-01 1.970531353616760198e-03
3.778531503461610555e+03 6.309695106508301787e-01 1.954142395439323505e-03
3.782310034965073100e+03 6.373395024034729239e-01 1.935216681329556595e-03
3.786092345000039586e+03 6.436595667116669084e-01 1.983650288277314776e-03
3.789878437345040766e+03 6.499948059806466283e-01 1.973769277024998211e-03
3.793668315782387253e+03 6.570022535841879563e-01 1.850543256953637687e-03
3.797461984098170888e+03 6.638443069150221643e-01 1.745652803213545252e-03
3.801259446082270188e+03 6.699973814275212991e-01 1.776790393771558643e-03
3.805060705528353537e+03 6.753030533943847891e-01 1.842935132927043911e-03
3.808865766233883278e+03 6.808718081615448003e-01 1.846914425067172497e-03
3.812674632000118436e+03 6.867795770979839842e-01 1.906429054677650061e-03
3.816487306632119726e+03 6.928320749760387143e-01 1.910901809358361153e-03
3.820303793938753188e+03 6.988745969198200125e-01 1.900783822142776674e-03
3.824124097732693372e+03 7.053044306173420486e-01 1.902601960622758498e-03
3.827948221830427428e+03 7.116053978239985645e-01 1.909069143850865898e-03
3.831776170052258749e+03 7.183565403833422902e-01 2.135805041010323778e-03
3.835607946222312421e+03 7.246387958750496461e-01 2.251210395064031852e-03
3.839443554168536139e+03 7.308934571586355178e-01 2.276685345784801480e-03
3.843282997722705659e+03 7.359932440943771637e-01 2.296652933906468373e-03
3.847126280720429804e+03 7.408937984721343240e-01 2.383992869750710397e-03
3.850973407001151372e+03 7.459977553986675280e-01 2.380043532253651398e-03
3.854824380408153957e+03 7.508936338159987178e-01 2.321267665414957198e-03
3.858679204788563311e+03 7.558410668331907445e-01 2.136587044097677020e-03
3.862537883993353262e+03 7.597210724662909476e-01 2.116584617609146030e-03
3.866400421877347981e+03 7.634941306503097991e-01 2.038099560815364881e-03
3.870266822299226533e+03 7.658197050087579560e-01 2.153245965421711136e-03
3.874137089121526969e+03 7.672610621562861999e-01 2.065871834904216449e-03
3.878011226210649966e+03 7.685317095942112431e-01 1.901582229200090950e-03
3.881889237436861549e+03 7.696067187757169581e-01 1.507861683478742667e-03
3.885771126674299921e+03 7.722480366990638334e-01 1.778186583717041242e-03
3.889656897800975457e+03 7.744920249020250669e-01 1.976708141994743418e-03
3.893546554698777527e+03 7.764008263647713681e-01 2.084837634326582555e-03
3.897440101253477678e+03 7.778578637415849428e-01 2.013502911376830254e-03
3.901337541354732366e+03 7.787000222388019699e-01 2.013543547718868107e-03
3.905238878896088409e+03 7.798534221041847347e-01 1.994918329214273502e-03
3.909144117774985716e+03 7.809919280733721436e-01 2.057530020243909970e-03
3.913053261892762293e+03 7.827810621063594487e-01 2.018139942105921444e-03
3.916966315154656058e+03 7.842750146408939971e-01 1.955367977289807629e-03
3.920883281469812118e+03 7.857962793661237288e-01 1.939575193991625304e-03
3.924804164751283224e+03 7.869043261388087851e-01 2.233905934311884809e-03
3.928728968916035683e+03 7.880203944115954373e-01 2.500604015705947415e-03
3.932657697884953450e+03 7.888933856738312711e-01 2.542834212104997955e-03
3.936590355582839493e+03 7.910393351417226437e-01 2.363890670722980630e-03
3.940526945938423523e+03 7.944585603064167056e-01 2.108362973845720554e-03
3.944467472884363360e+03 7.990500873126586967e-01 1.982670293415173413e-03
3.948411940357249023e+03 8.050960128387254500e-01 2.167401037011631830e-03
3.952360352297607733e+03 8.126370926046243559e-01 2.420470560942349515e-03
3.956312712649906643e+03 8.209703332575326584e-01 2.596454203985508382e-03
3.960269025362557841e+03 8.293970335652409709e-01 2.626279642995838891e-03
3.964229294387921527e+03 8.380931278863708034e-01 2.567631918441986866e-03
3.968193523682310570e+03 8.466883286443892542e-01 2.601317795952136792e-03
3.972161717205994591e+03 8.562069954454510912e-01 2.298663751822076651e-03
3.976133878923201792e+03 8.652334713073089878e-01 2.058453458505298851e-03
3.980110012802126221e+03 8.737987188133253813e-01 1.908855052419413095e-03
3.984090122814929600e+03 8.810063409441529769e-01 2.123677796771008142e-03
3.988074212937745870e+03 8.876640287722423750e-01 2.223338062129013356e-03
3.992062287150684824e+03 8.938391996315702137e-01 2.139449962183655532e-03
3.996054349437837118e+03 8.996094935603029530e-01 1.872984249282437421e-03
4.000050403787276082e+03 9.055792536924219815e-01 1.857183008150408180e-03
4.004050454191064546e+03 9.117008780449274985e-01 1.920856581226231723e-03
4.008054504645257111e+03 9.168848566846742321e-01 1.962942330468378863e-03
4.012062559149903791e+03 9.210264190469900081e-01 1.952470380417249554e-03
4.016074621709055009e+03 9.245050334854959528e-01 1.927809447508121434e-03
4.020090696330765240e+03 9.278084861185414978e-01 1.955224503171223635e-03
4.024110787027097558e+03 9.308624514820263984e-01 1.757594767322379374e-03
4.028134897814125907e+03 9.338651218998360592e-01 1.378700932050187528e-03
4.032163032711941469e+03 9.354245471827127290e-01 1.377031004132931325e-03
4.036195195744654484e+03 9.362077765757019776e-01 1.410589580376887028e-03
4.040231390940400615e+03 9.358359127033675229e-01 1.464197091116570650e-03
4.044271622331342314e+03 9.348240203317651487e-01 1.414276040038081909e-03
4.048315893953675186e+03 9.322468345335670481e-01 1.204635516051072008e-03
4.052364209847629809e+03 9.302142772120979286e-01 1.110396951090760441e-03
4.056416574057479011e+03 9.283509147085816648e-01 1.069984793743985422e-03
4.060472990631537868e+03 9.264587139593056797e-01 1.069330994757724607e-03
4.064533463622170530e+03 9.251134067757260659e-01 1.191055600661653988e-03
4.068597997085794304e+03 9.239989256795575479e-01 1.306305030677151801e-03
4.072666595082881486e+03 9.223339706660530490e-01 1.299573547976527266e-03
4.076739261677965715e+03 9.204679560476891620e-01 1.268912088642327064e-03
4.080816000939644709e+03 9.188121157773273540e-01 1.253683978784888870e-03
4.084896816940585722e+03 9.173069022831215058e-01 1.270419676608091882e-03
4.088981713757527814e+03 9.158081987397149737e-01 1.337551646288253357e-03
4.093070695471286854e+03 9.137136393924408795e-01 1.183155626035864395e-03
4.097163766166759160e+03 9.122481655017568025e-01 1.107554034103327111e-03
4.101260929932927866e+03 9.114288720462375704e-01 1.114424315151227307e-03
4.105362190862862008e+03 9.105543185438371712e-01 1.237936296624531389e-03
4.109467553053726078e+03 9.109107357562163942e-01 1.317771254452919805e-03
4.113577020606780934e+03 9.121704774152625816e-01 1.339235253892477389e-03
4.117690597627389252e+03 9.151971970869895445e-01 1.217641782388099178e-03
4.121808288225018259e+03 9.199726457856536310e-01 1.304570059679239537e-03
4.125930096513244280e+03 9.261509500489182312e-01 1.547210630177786725e-03
4.130056026609759101e+03 9.332128501503131890e-01 1.961458618413348433e-03
4.134186082636369974e+03 9.403738738013464049e-01 2.100296042835498363e-03
4.138320268719007800e+03 9.466052834463849486e-01 2.031311830905588312e-03
4.142458588987728035e+03 9.523663741698712437e-01 2.325876693432757120e-03
4.146601047576717065e+03 9.587064230426718403e-01 2.435805515903060811e-03
4.150747648624294925e+03 9.653733412379169598e-01 2.516503978546633710e-03
4.154898396272920763e+03 9.718036647724370702e-01 2.468510874343249860e-03
4.159053294669195566e+03 9.785572426427939785e-01 2.518735961615077741e-03
4.163212347963865795e+03 9.846342775700410721e-01 2.593772419890767820e-03
4.167375560311830668e+03 9.907534772048744998e-01 2.767026694308205234e-03
4.171542935872143971e+03 9.948326554468243099e-01 2.771951176009204969e-03
4.175714478808017702e+03 9.971352369013910533e-01 2.770837109380415268e-03
4.179890193286827525e+03 9.987717617632817513e-01 2.775480404951151912e-03
4.184070083480115500e+03 1.000447523849974374e+00 2.754591292058595868e-03
4.188254153563597356e+03 1.000734611922986295e+00 2.697719346701721050e-03
4.192442407717161586e+03 1.000178681155006410e+00 2.680263082116716641e-03
4.196634850124880359e+03 9.983038629043377021e-01 2.844504981112119368e-03
4.200831484975006788e+03 9.952405239611931131e-01 2.919850333715101869e-03
4.205032316459983122e+03 9.928441267738884468e-01 2.768468179728134342e-03
4.209237348776444378e+03 9.901009433346265043e-01 2.512326005574544788e-03
4.213446586125221984e+03 9.871822370657850065e-01 2.536701422055748570e-03
4.217660032711349231e+03 9.856241828875164090e-01 2.642880972660962852e-03
4.221877692744061278e+03 9.856334250281004739e-01 2.631483863274281486e-03
4.226099570436806971e+03 9.875970363705542931e-01 1.765576641032156214e-03
4.230325670007245208e+03 9.862661105361114622e-01 2.736687256915657819e-03
4.234555995677254032e+03 9.861338848935726764e-01 2.745305522630980561e-03
4.238790551672932452e+03 9.886464573174117421e-01 2.598335678114005714e-03
4.243029342224606808e+03 9.929781127555702414e-01 2.923400706834886672e-03
4.247272371566832589e+03 9.984602834549112238e-01 3.333432694091900596e-03
4.251519643938400804e+03 1.003150854180467677e+00 3.292120035289025116e-03
4.255771163582340705e+03 1.008361271176219098e+00 3.195535293280667329e-03
4.260026934745924336e+03 1.012516656805577231e+00 3.176218199695752739e-03
4.264286961680671993e+03 1.016636657077116146e+00 3.200347440597379415e-03
4.268551248642354039e+03 1.019626672862489869e+00 3.137131351857449027e-03
4.272819799890998183e+03 1.022520617977878077e+00 3.135186034307819915e-03
4.277092619690890388e+03 1.022532131553372414e+00 3.410689448692363381e-03
4.281369712310583054e+03 1.021932777923981073e+00 3.385084760214726683e-03
4.285651082022895025e+03 1.020497592359998373e+00 3.233742720982038348e-03
4.289936733104918858e+03 1.018124600708053551e+00 3.235287777133670235e-03
4.294226669838025373e+03 1.016359981443226257e+00 3.417828111393840691e-03
4.298520896507864563e+03 1.013740227925186810e+00 3.302124137689294893e-03
4.302819417404373780e+03 1.010883277847832495e+00 3.712193548917182891e-03
4.307122236821779552e+03 1.009619939149734247e+00 4.234481320826061906e-03
4.311429359058603040e+03 1.008974706748319017e+00 4.684926114745509816e-03
4.315740788417662770e+03 1.010162308388345753e+00 3.941391695365659836e-03
4.320056529206081905e+03 1.016440899660929764e+00 3.458393555330458412e-03
4.324376585735290064e+03 1.027610483730039270e+00 4.369742852700649050e-03
4.328700962321026054e+03 1.041200193775638105e+00 4.755493512310914571e-03
4.333029663283348782e+03 1.056089397709539801e+00 4.587805487907576675e-03
4.337362692946633615e+03 1.070561292147298893e+00 4.466943223209412887e-03
4.341700055639581478e+03 1.085557589838662018e+00 4.071835177870019272e-03
4.346041755695222491e+03 1.098080398440682393e+00 3.653355072090858080e-03
4.350387797450919606e+03 1.107899112617737769e+00 3.166024072418850352e-03
4.354738185248371337e+03 1.112646708390617745e+00 3.612488284846645040e-03
4.359092923433621763e+03 1.113382690997841484e+00 3.301091593737188242e-03
4.363452016357056891e+03 1.113148718597386733e+00 2.493871906639484777e-03
4.367815468373414660e+03 1.113022028288786602e+00 2.284628251449557276e-03
4.372183283841789489e+03 1.112798025931326817e+00 2.325252759194275896e-03
4.376555467125633186e+03 1.112944877280387601e+00 2.246916735109277981e-03
4.380932022592760404e+03 1.113322434176682529e+00 2.514590180753370745e-03
4.385312954615354101e+03 1.114346821335408855e+00 2.793782365394943765e-03
4.389698267569970994e+03 1.117469520087515322e+00 2.786598924095636323e-03
4.394087965837542470e+03 1.122462588403225991e+00 2.769353498687151041e-03
4.398482053803381859e+03 1.129062351481105564e+00 3.306132139978140011e-03
4.402880535857186260e+03 1.137407494315279211e+00 3.484080388510950050e-03
4.407283416393044718e+03 1.146069739542739274e+00 3.112238790692493928e-03
4.411690699809440048e+03 1.152962558376367630e+00 3.067743726555775124e-03
4.416102390509250654e+03 1.159381467487171191e+00 3.087432235287347528e-03
4.420518492899761441e+03 1.165407306440424229e+00 3.138270684625953880e-03
4.424939011392662906e+03 1.171917234461702373e+00 3.166832787441120189e-03
4.429363950404056595e+03 1.178247444768099506e+00 3.183136956956641572e-03
4.433793314354462382e+03 1.183785420989263759e+00 3.158865666660840097e-03
4.438227107668818462e+03 1.189443970210384283e+00 2.663539150067265396e-03
4.442665334776488635e+03 1.196304274425450842e+00 2.313325500392878799e-03
4.447108000111265937e+03 1.205198018273520244e+00 2.415464227920772079e-03
4.451555108111379013e+03 1.216186802180929227e+00 2.238754096633958565e-03
4.456006663219492111e+03 1.227933680176847231e+00 1.618821848205288230e-03
4.460462669882713271e+03 1.238654946800982204e+00 1.349520824116167339e-03
4.464923132552597053e+03 1.248210784407805862e+00 1.576677229864431378e-03
4.469388055685150903e+03 1.257126993451815888e+00 1.373657599126544950e-03
4.473857443740837880e+03 1.265828630806810517e+00 1.052036585979783260e-03
4.478331301184580298e+03 1.275479748902161203e+00 1.479916356371378978e-03
4.482809632485766087e+03 1.284316879146446544e+00 1.381294226098014367e-03
4.487292442118253348e+03 1.292395651252643329e+00 1.444065179655936197e-03
4.491779734560373072e+03 1.300398016887949870e+00 1.469704458748904595e-03
4.496271514294934605e+03 1.307450064338174345e+00 1.455115064417758551e-03
4.500767785809231100e+03 1.315524429140702001e+00 1.475293074283675916e-03
4.505268553595042249e+03 1.323938237262361817e+00 1.441530769317256712e-03
4.509773822148638828e+03 1.332893461639532040e+00 1.412753560141680100e-03
4.514283595970789065e+03 1.342902104253541617e+00 1.507022503382527074e-03
4.518797879566761367e+03 1.352548018967922649e+00 1.520984482014167477e-03
4.523316677446328868e+03 1.362395955975603146e+00 1.513485049142664074e-03
4.527839994123776705e+03 1.372549089004645451e+00 1.476869797980531925e-03
4.532367834117902021e+03 1.382472891454570973e+00 1.446884483995297243e-03
4.536900201952022144e+03 1.392469248967966866e+00 1.315652226009462935e-03
4.541437102153975502e+03 1.401731947286770863e+00 1.185448030830800990e-03
4.545978539256130716e+03 1.408828953629308822e+00 1.212350397223057891e-03
4.550524517795388419e+03 1.414489585125022542e+00 1.062904586826068790e-03
4.555075042313184895e+03 1.419157032764447379e+00 1.069077265524822490e-03
4.559630117355500261e+03 1.422476884958394638e+00 1.069306769837544743e-03
4.564189747472856652e+03 1.425284151639586661e+00 8.378937154675914585e-04
4.568753937220330954e+03 1.426162225119568694e+00 8.544681870247036043e-04
4.573322691157552981e+03 1.425924226308531217e+00 8.391120464400604953e-04
4.577896013848711846e+03 1.424778544254840407e+00 8.305507287966463993e-04
4.582473909862562323e+03 1.422183643262587838e+00 7.790693724906123203e-04
4.587056383772426670e+03 1.419018655409494345e+00 7.515375225387928727e-04
4.591643440156200086e+03 1.415227131140949224e+00 7.386783474811825989e-04
4.596235083596357981e+03 1.410660545289180723e+00 7.869853367055318653e-04
4.600831318679955984e+03 1.406744137741922973e+00 7.054279802554045244e-04
4.605432149998637215e+03 1.402660578490127374e+00 6.809885741471463768e-04
4.610037582148637739e+03 1.398129095410118428e+00 6.693750652826697262e-04
4.614647619730787483e+03 1.393956624456353044e+00 6.837582319591870147e-04
4.619262267350520233e+03 1.389420392765306156e+00 8.249653473763175846e-04
4.623881529617872729e+03 1.385941346269662588e+00 8.198908882393695198e-04
4.628505411147491941e+03 1.383181584530096986e+00 8.219377348223734286e-04
4.633133916558640522e+03 1.380690941440795738e+00 8.002225933340003771e-04
4.637767050475200449e+03 1.379146644565214075e+00 8.119834556143246508e-04
4.642404817525677572e+03 1.377880551497536743e+00 7.513881190579678807e-04
4.647047222343205249e+03 1.376264490834322007e+00 7.945996065790700670e-04
4.651694269565549803e+03 1.375057413751751723e+00 7.985220289193954929e-04
4.656345963835116891e+03 1.374111482597324629e+00 8.209618915759155696e-04
4.661002309798953320e+03 1.373131480208910737e+00 8.278152787793794385e-04
4.665663312108753416e+03 1.371751270625052532e+00 8.551846136163180657e-04
4.670328975420864481e+03 1.369885676587896839e+00 9.118701819219351534e-04
4.674999304396286789e+03 1.367450247803265295e+00 8.997561219809706084e-04
4.679674303700684504e+03 1.363666554317473079e+00 9.261252701951735002e-04
4.684353978004386590e+03 1.358703222932120314e+00 9.065402680180599526e-04
4.689038331982392265e+03 1.353535298229786132e+00 9.011913171039131944e-04
4.693727370314376458e+03 1.347710968634032946e+00 9.078507464107358213e-04
4.698421097684692540e+03 1.341441362710307228e+00 9.029333334602921172e-04
4.703119518782378691e+03 1.334881694722896306e+00 9.191225117969609041e-04
4.707822638301162442e+03 1.327221419817901538e+00 8.702810552187944734e-04
4.712530460939465229e+03 1.320857999821947182e+00 8.113218830253515626e-04
4.717242991400406027e+03 1.315177516922126921e+00 8.487542162894964708e-04
4.721960234391808626e+03 1.310080936224704118e+00 8.444949056836836441e-04
4.726682194626201635e+03 1.306072085797464366e+00 8.077153097222782886e-04
4.731408876820829391e+03 1.302723980147927341e+00 7.793205613190829157e-04
4.736140285697651962e+03 1.299667632832435027e+00 7.823354055030885693e-04
4.740876425983350600e+03 1.297132750966944359e+00 1.003455156583117017e-03
4.745617302409335934e+03 1.296514440086317776e+00 1.106611671176099473e-03
4.750362919711747054e+03 1.296463668833259142e+00 1.208928790543932355e-03
4.755113282631459697e+03 1.296485101869567780e+00 1.196636614985569468e-03
4.759868395914093526e+03 1.297421749935734336e+00 1.216866934155522509e-03
4.764628264310008490e+03 1.298391711149494032e+00 1.177949503807240684e-03
4.769392892574320285e+03 1.298552063268112455e+00 1.159725095419479948e-03
4.774162285466896719e+03 1.298274970823046548e+00 1.089571776064900827e-03
4.778936447752364984e+03 1.297268774323231844e+00 1.027104304063824938e-03
4.783715384200118933e+03 1.295525934595151307e+00 1.059226187812840935e-03
4.788499099584319993e+03 1.293675777245768543e+00 1.026377006928082649e-03
4.793287598683906253e+03 1.291417121963338577e+00 9.472781449195485492e-04
