# starting wavelength: 3491.860
# ending wavelength: 7171.440
# wav flux eflux
3.495143442410119405e+03 1.101380233394162023e+00 1.694789813885150612e-02
3.498638585852530468e+03 1.107960242643235338e+00 1.399013024585345037e-02
3.502137224438384237e+03 1.111944626885381648e+00 1.094127447848068299e-02
3.505639361662823831e+03 1.115120780453774829e+00 8.446038313843362219e-03
3.509145001024487556e+03 1.117758329574536580e+00 6.605953984568275345e-03
3.512654146025513455e+03 1.119700525905724220e+00 5.294175353056779915e-03
3.516166800171540217e+03 1.121298406931248159e+00 4.317752183475400893e-03
3.519682966971712631e+03 1.122557075001481053e+00 3.617597020744151362e-03
3.523202649938685681e+03 1.123575278063959404e+00 3.024463786108048252e-03
3.526725852588625457e+03 1.124549672885328810e+00 2.640677222860559562e-03
3.530252578441215064e+03 1.125576605614036829e+00 2.373643680486650035e-03
3.533782831019657806e+03 1.126767476412104285e+00 2.213855776936163658e-03
3.537316613850678550e+03 1.127763307516780555e+00 2.072969430639919151e-03
3.540853930464530094e+03 1.128513685859588778e+00 1.955616163147013559e-03
3.544394784394995895e+03 1.128477300027618258e+00 1.871480268740361363e-03
3.547939179179392340e+03 1.128420766948490916e+00 1.795286376831916469e-03
3.551487118358572843e+03 1.128573261573984299e+00 1.729282746089602597e-03
3.555038605476932389e+03 1.128798263916977573e+00 1.708495803972758789e-03
3.558593644082410719e+03 1.128607005271457853e+00 1.753369879723463629e-03
3.562152237726494150e+03 1.128979201895707440e+00 1.593662624661685038e-03
3.565714389964221937e+03 1.128925980959181841e+00 1.455940075399593655e-03
3.569280104354187188e+03 1.127949926003157355e+00 1.451960883446010543e-03
3.572849384458542772e+03 1.126515688012819982e+00 1.453749472304625154e-03
3.576422233843002232e+03 1.124352463560768900e+00 1.367431571036715641e-03
3.579998656076846601e+03 1.122807449565753846e+00 1.450362829705165646e-03
3.583578654732924406e+03 1.121281032841906722e+00 1.582511276485688281e-03
3.587162233387658489e+03 1.118981650143836770e+00 1.479299583058591317e-03
3.590749395621047370e+03 1.115567931409279900e+00 1.466844887121597019e-03
3.594340145016669794e+03 1.112299374595545842e+00 1.471607213569891366e-03
3.597934485161687462e+03 1.109025573690652244e+00 1.451164159110406504e-03
3.601532419646850485e+03 1.105819367318242152e+00 1.386543453640312878e-03
3.605133952066498296e+03 1.101601791658961327e+00 1.382250937419452408e-03
3.608739086018566013e+03 1.096472267256342947e+00 1.369025735415126208e-03
3.612347825104585809e+03 1.091007625891992072e+00 1.420426754156459744e-03
3.615960172929691907e+03 1.085015968247844187e+00 1.530621794156540247e-03
3.619576133102622407e+03 1.079820249711638924e+00 1.588375589646125055e-03
3.623195709235726554e+03 1.075356105516026117e+00 1.582818864372331682e-03
3.626818904944963379e+03 1.070975342430848354e+00 1.578301317479259298e-03
3.630445723849909427e+03 1.066808242092008197e+00 1.601381835998873454e-03
3.634076169573760581e+03 1.062309334855290777e+00 1.622252692514346024e-03
3.637710245743335690e+03 1.058408576975267801e+00 1.641767041007104536e-03
3.641347955989080219e+03 1.054818336479441898e+00 1.718967759714218899e-03
3.644989303945070333e+03 1.051845395754055668e+00 1.812843978567454462e-03
3.648634293249016537e+03 1.049592565102751118e+00 1.859957372100800015e-03
3.652282927542266862e+03 1.047164828798337499e+00 1.710615466660450699e-03
3.655935210469810499e+03 1.044195043140198731e+00 1.773511661967948740e-03
3.659591145680281443e+03 1.041199644492085685e+00 2.006973757784364341e-03
3.663250736825963031e+03 1.038115447971450944e+00 2.286888267070257344e-03
3.666913987562790226e+03 1.036136950241956622e+00 2.451703788934404740e-03
3.670580901550354156e+03 1.035931311914565667e+00 2.541873479805971912e-03
3.674251482451905758e+03 1.036161219185664617e+00 2.546699252859337560e-03
3.677925733934358959e+03 1.036756085705039077e+00 2.477363280372945134e-03
3.681603659668294313e+03 1.038136522272502527e+00 2.330539710873076511e-03
3.685285263327964003e+03 1.040138288356340812e+00 2.105705507362012462e-03
3.688970548591293209e+03 1.044585432287351567e+00 2.314965244519067312e-03
3.692659519139885560e+03 1.049863862541092763e+00 2.335939648768157670e-03
3.696352178659026777e+03 1.055988999617810897e+00 2.415323965166978493e-03
3.700048530837686940e+03 1.062663758764480271e+00 2.681957777067292461e-03
3.703748579368525952e+03 1.070292191258948034e+00 2.893539905214466412e-03
3.707452327947895355e+03 1.077331426828415539e+00 2.555247335990168053e-03
3.711159780275844696e+03 1.084514540533866089e+00 2.016096158459789768e-03
3.714870940056121526e+03 1.090316185463342746e+00 1.777035262686837936e-03
3.718585810996179134e+03 1.094868862743719307e+00 1.369049038492975521e-03
3.722304396807176545e+03 1.096991633948217748e+00 1.372620084538992520e-03
3.726026701203984885e+03 1.096936277586805453e+00 1.506801190270105765e-03
3.729752727905190113e+03 1.095149477084344847e+00 1.763210766145732441e-03
3.733482480633096657e+03 1.092302355433622640e+00 1.758423123292836071e-03
3.737215963113731050e+03 1.087691773931052985e+00 2.029633754070309104e-03
3.740953179076846027e+03 1.082316893602564445e+00 2.163428817529647070e-03
3.744694132255923705e+03 1.078685825457757819e+00 2.095185554509581324e-03
3.748438826388181042e+03 1.075014317665339059e+00 2.165566828691891862e-03
3.752187265214570289e+03 1.073266127201845999e+00 2.123552414588158847e-03
3.755939452479786269e+03 1.071668742059569857e+00 1.980720482425245635e-03
3.759695391932267285e+03 1.071972521465361261e+00 1.979069158342173541e-03
3.763455087324201031e+03 1.073885978586870404e+00 2.236252455814444120e-03
3.767218542411526414e+03 1.077443359009243373e+00 2.546492605569342094e-03
3.770985760953939007e+03 1.081513143625417284e+00 2.346696822021711662e-03
3.774756746714894234e+03 1.085635870460921248e+00 2.232919628946706224e-03
3.778531503461610555e+03 1.090170423170361946e+00 2.088807321970557237e-03
3.782310034965073100e+03 1.094683000745563684e+00 1.772836762342111386e-03
3.786092345000039586e+03 1.098274845493982355e+00 1.572437634962550734e-03
3.789878437345040766e+03 1.099584414043174974e+00 1.826115486223553724e-03
3.793668315782387253e+03 1.101138843145059276e+00 1.885612676633746697e-03
3.797461984098170888e+03 1.102028571220398989e+00 1.913537979074718095e-03
3.801259446082270188e+03 1.101039565117309715e+00 1.741104427740401738e-03
3.805060705528353537e+03 1.100011053574265096e+00 1.878072538617416021e-03
3.808865766233883278e+03 1.097380424781133401e+00 1.868409461070343926e-03
3.812674632000118436e+03 1.094228045093045942e+00 1.852077261165657176e-03
3.816487306632119726e+03 1.090435212726821979e+00 1.876204813933433479e-03
3.820303793938753188e+03 1.087147797218213752e+00 1.926681687011335374e-03
3.824124097732693372e+03 1.083673157959891942e+00 1.991235512183850507e-03
3.827948221830427428e+03 1.078755587027080187e+00 1.883983463171664098e-03
3.831776170052258749e+03 1.075209627356466191e+00 1.764258883644168789e-03
3.835607946222312421e+03 1.073402341752822231e+00 1.746381313012816379e-03
3.839443554168536139e+03 1.073575952377794351e+00 1.453077920285855869e-03
3.843282997722705659e+03 1.076337555415246783e+00 1.422388367752556613e-03
3.847126280720429804e+03 1.081528128480403694e+00 1.435134497699967412e-03
3.850973407001151372e+03 1.088950483049772044e+00 1.344411225268125334e-03
3.854824380408153957e+03 1.098453642948564291e+00 1.464882059379292532e-03
3.858679204788563311e+03 1.109040663911600610e+00 1.407565523928717196e-03
3.862537883993353262e+03 1.121168051013605060e+00 1.262816823033201643e-03
3.866400421877347981e+03 1.131907219306826473e+00 1.234570712989830525e-03
3.870266822299226533e+03 1.140956962364059635e+00 1.188801348825834067e-03
3.874137089121526969e+03 1.149482862991259013e+00 1.090888985185221958e-03
3.878011226210649966e+03 1.156098543454375127e+00 1.321497424359522168e-03
3.881889237436861549e+03 1.159205426333131506e+00 1.359273600277578547e-03
3.885771126674299921e+03 1.159567438573707143e+00 1.087972469423097817e-03
3.889656897800975457e+03 1.154889500077199260e+00 1.404545885698005921e-03
3.893546554698777527e+03 1.147845745443968779e+00 1.450367668397869320e-03
3.897440101253477678e+03 1.137616419479606789e+00 1.622157349667498454e-03
3.901337541354732366e+03 1.125257260299181050e+00 1.877604455475214785e-03
3.905238878896088409e+03 1.112555798699707887e+00 1.810823080509044126e-03
3.909144117774985716e+03 1.099172535385104510e+00 1.835886887262324274e-03
3.913053261892762293e+03 1.087582308747397475e+00 1.469084042844810440e-03
3.916966315154656058e+03 1.078138993452799399e+00 1.403541283029710682e-03
3.920883281469812118e+03 1.071694772226338577e+00 1.385733630612279730e-03
3.924804164751283224e+03 1.068311684063973033e+00 1.320064170934204424e-03
3.928728968916035683e+03 1.068280052583518769e+00 1.471985733481194492e-03
3.932657697884953450e+03 1.071905039109074753e+00 1.666228783546712172e-03
3.936590355582839493e+03 1.077582426860701270e+00 1.447867400459337817e-03
3.940526945938423523e+03 1.083805013822040086e+00 1.347470347605364549e-03
3.944467472884363360e+03 1.090605545869931747e+00 1.329287621527775170e-03
3.948411940357249023e+03 1.097997822472279728e+00 1.324937825752642902e-03
3.952360352297607733e+03 1.106108558183734880e+00 1.512984455233481757e-03
3.956312712649906643e+03 1.112832381888519073e+00 1.656331171678270594e-03
3.960269025362557841e+03 1.117667674076608053e+00 1.505022752503300297e-03
3.964229294387921527e+03 1.118907795959611873e+00 1.768590129678817170e-03
3.968193523682310570e+03 1.119355451547883407e+00 1.869520872283255124e-03
3.972161717205994591e+03 1.118078538735009397e+00 1.896049452807766888e-03
3.976133878923201792e+03 1.115493109953582973e+00 1.853079281655637713e-03
3.980110012802126221e+03 1.112614581597817009e+00 1.861831607952539862e-03
3.984090122814929600e+03 1.108572570932201407e+00 1.726078760557903796e-03
3.988074212937745870e+03 1.105632376499535940e+00 1.745764351158518623e-03
3.992062287150684824e+03 1.101862744196379085e+00 1.646516085146113896e-03
3.996054349437837118e+03 1.098895272710736837e+00 1.732733638809401183e-03
4.000050403787276082e+03 1.096345454036278033e+00 1.784998810162301925e-03
4.004050454191064546e+03 1.094161869793919051e+00 1.679786577578082103e-03
4.008054504645257111e+03 1.092791653120265938e+00 1.365037504936364790e-03
4.012062559149903791e+03 1.090974502466445673e+00 1.217233468887681577e-03
4.016074621709055009e+03 1.088166175369585931e+00 1.445017965198161459e-03
4.020090696330765240e+03 1.085048426672345023e+00 1.610241653290612682e-03
4.024110787027097558e+03 1.083535011346462351e+00 1.276786431684836121e-03
4.028134897814125907e+03 1.084276867296450453e+00 1.426646322245299185e-03
4.032163032711941469e+03 1.086309139285621672e+00 1.643788326220698218e-03
4.036195195744654484e+03 1.088457471018257738e+00 1.604282840043184596e-03
4.040231390940400615e+03 1.090332076593624855e+00 1.611462366302287685e-03
4.044271622331342314e+03 1.093777346667601291e+00 1.585251953734078453e-03
4.048315893953675186e+03 1.097753222687892105e+00 1.548550670456199339e-03
4.052364209847629809e+03 1.101997949157668799e+00 1.527977694034938702e-03
4.056416574057479011e+03 1.106397014338108109e+00 1.539660847370787457e-03
4.060472990631537868e+03 1.110263852699151510e+00 1.630060704152009286e-03
4.064533463622170530e+03 1.113598779948194339e+00 1.670984784215100117e-03
4.068597997085794304e+03 1.115104719011970058e+00 1.671861303008027920e-03
4.072666595082881486e+03 1.115776438457255049e+00 1.605242599381855127e-03
4.076739261677965715e+03 1.114685000515452939e+00 1.633421775913994432e-03
4.080816000939644709e+03 1.112746102225737443e+00 1.619738111122961651e-03
4.084896816940585722e+03 1.110041821474055945e+00 1.517898464722547934e-03
4.088981713757527814e+03 1.105519803431393333e+00 1.932569641790966809e-03
4.093070695471286854e+03 1.099927529850008412e+00 2.022268447231571464e-03
4.097163766166759160e+03 1.094390586961824674e+00 1.311074690076962767e-03
4.101260929932927866e+03 1.090425463846505849e+00 1.281601566290294656e-03
4.105362190862862008e+03 1.087621471812132645e+00 1.503138831828735884e-03
4.109467553053726078e+03 1.085660061564983625e+00 1.476768361864773437e-03
4.113577020606780934e+03 1.083540789302289697e+00 1.426450117735127317e-03
4.117690597627389252e+03 1.081155826682395293e+00 1.361355029421984454e-03
4.121808288225018259e+03 1.079065488736290490e+00 1.231286469817326592e-03
4.125930096513244280e+03 1.076277268083399186e+00 1.507478054749679212e-03
4.130056026609759101e+03 1.073897582300818554e+00 1.498550080761153159e-03
4.134186082636369974e+03 1.072156375925233718e+00 1.442319690165867014e-03
4.138320268719007800e+03 1.071089411361794141e+00 1.467389019646714093e-03
4.142458588987728035e+03 1.070562639421635875e+00 1.705592265331012285e-03
4.146601047576717065e+03 1.069815568750721813e+00 1.789498778849144510e-03
4.150747648624294925e+03 1.068863102491044881e+00 1.768098125007383200e-03
4.154898396272920763e+03 1.068041155338059545e+00 1.753859398858156329e-03
4.159053294669195566e+03 1.068004568318057679e+00 1.668184472777107684e-03
4.163212347963865795e+03 1.067986740558754644e+00 2.062192489401131184e-03
4.167375560311830668e+03 1.068076473510262581e+00 2.093029215275591347e-03
4.171542935872143971e+03 1.069794355233963046e+00 1.765493735036607458e-03
4.175714478808017702e+03 1.072778805998700014e+00 1.626775463516632854e-03
4.179890193286827525e+03 1.077287995132873544e+00 1.791359776080103574e-03
4.184070083480115500e+03 1.082772250987564799e+00 2.003070570729369171e-03
4.188254153563597356e+03 1.088870676131220128e+00 1.987658942799704846e-03
4.192442407717161586e+03 1.095050925992802959e+00 1.700177002933946037e-03
4.196634850124880359e+03 1.100294433042463549e+00 1.372655371068905606e-03
4.200831484975006788e+03 1.104287008081755062e+00 1.406170452731959333e-03
4.205032316459983122e+03 1.106897327947270471e+00 1.384538561017505066e-03
4.209237348776444378e+03 1.108490589006672300e+00 1.340878715446190347e-03
4.213446586125221984e+03 1.108571490200917831e+00 1.221680131519848993e-03
4.217660032711349231e+03 1.107572928588472116e+00 1.151268973889584425e-03
4.221877692744061278e+03 1.106182042953555378e+00 1.140854715319331719e-03
4.226099570436806971e+03 1.104023871377886934e+00 1.317827256923011009e-03
4.230325670007245208e+03 1.102050429131292253e+00 1.460994879937195772e-03
4.234555995677254032e+03 1.100704408242286547e+00 1.615148668101156924e-03
4.238790551672932452e+03 1.100224401532968077e+00 1.588867190232410870e-03
4.243029342224606808e+03 1.100518077572472553e+00 1.436295320956477084e-03
4.247272371566832589e+03 1.101807217951527251e+00 1.439802535569884457e-03
4.251519643938400804e+03 1.104639647179991746e+00 1.598998189211319702e-03
4.255771163582340705e+03 1.107909776607096664e+00 1.664387403447711898e-03
4.260026934745924336e+03 1.111703729461434920e+00 1.561220107053871075e-03
4.264286961680671993e+03 1.116018657199572273e+00 1.465443598675783077e-03
4.268551248642354039e+03 1.120791649316423610e+00 1.448778113914458553e-03
4.272819799890998183e+03 1.125798006649947336e+00 1.505928215985881001e-03
4.277092619690890388e+03 1.130597609042231833e+00 1.417097957005509752e-03
4.281369712310583054e+03 1.135622968407194566e+00 1.212643570243851932e-03
4.285651082022895025e+03 1.141011077536227436e+00 1.285507082832547865e-03
4.289936733104918858e+03 1.146574902346650493e+00 1.354353630864554804e-03
4.294226669838025373e+03 1.151916692983016022e+00 1.292971072700493593e-03
4.298520896507864563e+03 1.157248485173661079e+00 1.147944802235198545e-03
4.302819417404373780e+03 1.161980687761085429e+00 1.039124853705094675e-03
4.307122236821779552e+03 1.165884828055281597e+00 1.073147008294642523e-03
4.311429359058603040e+03 1.169191279354774071e+00 1.061000447544598263e-03
4.315740788417662770e+03 1.171254614207399625e+00 9.434108230147709127e-04
4.320056529206081905e+03 1.173378537386527976e+00 9.143460008666029221e-04
4.324376585735290064e+03 1.175052277782374421e+00 9.214781325732037060e-04
4.328700962321026054e+03 1.176353509927732244e+00 9.310869269409314782e-04
4.333029663283348782e+03 1.177531113018896125e+00 8.644873356595944580e-04
4.337362692946633615e+03 1.178480027974898148e+00 8.489055582258654394e-04
4.341700055639581478e+03 1.178942347489689180e+00 1.030588554125207775e-03
4.346041755695222491e+03 1.179572417039841836e+00 1.011225163706355474e-03
4.350387797450919606e+03 1.180253907141725289e+00 9.593720972159011304e-04
4.354738185248371337e+03 1.180921421154651929e+00 9.657956974662509648e-04
4.359092923433621763e+03 1.181576192443326123e+00 1.065046793122435397e-03
4.363452016357056891e+03 1.182216141727761016e+00 9.968030829451970335e-04
4.367815468373414660e+03 1.182514758066546712e+00 9.618170093504052262e-04
4.372183283841789489e+03 1.182927382145124273e+00 9.210742778848313812e-04
4.376555467125633186e+03 1.182419414095194021e+00 9.228346334729174401e-04
4.380932022592760404e+03 1.181791435340115992e+00 9.058878388472893419e-04
4.385312954615354101e+03 1.179927266289271026e+00 8.961286441782466026e-04
4.389698267569970994e+03 1.177630508779645035e+00 8.936264869305828897e-04
4.394087965837542470e+03 1.174633595761724658e+00 8.848877473494881759e-04
4.398482053803381859e+03 1.170595355076132549e+00 9.052473743010311163e-04
4.402880535857186260e+03 1.167147624845142673e+00 9.614333722138355270e-04
4.407283416393044718e+03 1.163838682005652325e+00 9.600415750350278603e-04
4.411690699809440048e+03 1.161105178617045430e+00 9.671709451993942830e-04
4.416102390509250654e+03 1.158427345509470685e+00 9.811734482445344865e-04
4.420518492899761441e+03 1.155557349639832143e+00 9.688753660385119020e-04
4.424939011392662906e+03 1.152898029180731143e+00 1.011223376513574338e-03
4.429363950404056595e+03 1.150617867812780970e+00 1.153521198417066648e-03
4.433793314354462382e+03 1.148262283153029584e+00 1.177778685048233185e-03
4.438227107668818462e+03 1.145471757351401498e+00 9.854208912986202849e-04
4.442665334776488635e+03 1.142136508516359505e+00 1.121682623800160762e-03
4.447108000111265937e+03 1.138363588961901929e+00 1.335732396196004671e-03
4.451555108111379013e+03 1.134897425545971617e+00 1.274086003632077507e-03
4.456006663219492111e+03 1.132166569616341212e+00 1.218121336683477282e-03
4.460462669882713271e+03 1.129568625856535169e+00 9.265944095034674708e-04
4.464923132552597053e+03 1.128663351669585868e+00 9.420735306191899486e-04
4.469388055685150903e+03 1.128439597445692222e+00 9.391091142213880277e-04
4.473857443740837880e+03 1.129846157440436372e+00 1.211382629993179366e-03
4.478331301184580298e+03 1.131274172021437652e+00 1.114857711889808084e-03
4.482809632485766087e+03 1.132040448190617443e+00 1.069769447617246799e-03
4.487292442118253348e+03 1.132611698729080629e+00 1.028286809953763998e-03
4.491779734560373072e+03 1.132976649571663774e+00 9.988862658510907523e-04
4.496271514294934605e+03 1.132691872043593451e+00 1.025861576079704430e-03
4.500767785809231100e+03 1.130677628765405895e+00 1.020240033480662419e-03
4.505268553595042249e+03 1.127063899546904890e+00 9.399949171249443337e-04
4.509773822148638828e+03 1.123001125528650057e+00 9.684242958742476926e-04
4.514283595970789065e+03 1.117741474558486603e+00 1.039240475673100170e-03
4.518797879566761367e+03 1.112064463698326344e+00 1.108736440852773480e-03
4.523316677446328868e+03 1.105641049855885072e+00 1.298219354326999144e-03
4.527839994123776705e+03 1.099303338737175562e+00 1.278039033280967953e-03
4.532367834117902021e+03 1.093724998743623500e+00 1.163491032403950838e-03
4.536900201952022144e+03 1.089143589768574616e+00 1.133571150752937795e-03
4.541437102153975502e+03 1.085405457821295716e+00 1.135270422327113674e-03
4.545978539256130716e+03 1.082228442240405597e+00 1.106149248580000398e-03
4.550524517795388419e+03 1.080258838397305299e+00 1.152320080471333887e-03
