# starting wavelength: 3433.020
# ending wavelength: 7171.440
# wav flux eflux
3.436257390904928343e+03 1.181295729406366402e+00 2.175328068879560373e-02
3.439693648295834464e+03 1.187984270174830659e+00 1.790939131539726406e-02
3.443133341944131189e+03 1.188544384227794293e+00 1.495390285899295471e-02
3.446576475286076402e+03 1.186478499483035298e+00 1.225024728085811164e-02
3.450023051761363604e+03 1.182483710448710035e+00 1.150623755851169425e-02
3.453473074813126004e+03 1.179491548059454109e+00 9.488614354587488961e-03
3.456926547887940615e+03 1.176499192611653477e+00 7.751454679094090493e-03
3.460383474435829612e+03 1.172469130906390156e+00 6.906330733378789576e-03
3.463843857910266706e+03 1.167582546288747025e+00 5.770261705414361959e-03
3.467307701768178049e+03 1.161461063371622027e+00 5.136444858345539169e-03
3.470775009469947236e+03 1.154708816110401326e+00 4.670072891619152580e-03
3.474245784479418489e+03 1.148020403990395177e+00 4.277613549547293510e-03
3.477720030263898934e+03 1.141941127168139225e+00 3.950193443214572962e-03
3.481197750294164052e+03 1.136930479885553513e+00 3.728195073037131151e-03
3.484678948044459503e+03 1.131556216227862066e+00 3.538807527523827288e-03
3.488163626992504760e+03 1.127046685539973891e+00 3.379907647212149029e-03
3.491651790619498570e+03 1.123453591516975880e+00 3.252025307593855736e-03
3.495143442410119405e+03 1.120802438541405932e+00 3.161395592865027474e-03
3.498638585852530468e+03 1.118687374398760204e+00 3.149759087711154117e-03
3.502137224438384237e+03 1.118002965899918211e+00 3.189163624336825795e-03
3.505639361662823831e+03 1.117867142720440521e+00 3.167157418132903173e-03
3.509145001024487556e+03 1.118670839996304345e+00 3.188734485930784252e-03
3.512654146025513455e+03 1.119410124354034419e+00 3.147050763385006878e-03
3.516166800171540217e+03 1.120665555078035558e+00 3.156316473424207979e-03
3.519682966971712631e+03 1.123016049841015107e+00 3.524656346487794762e-03
3.523202649938685681e+03 1.126501238986615361e+00 3.500609073666369891e-03
3.526725852588625457e+03 1.129997725800085506e+00 3.428352543269598107e-03
3.530252578441215064e+03 1.133539599774724627e+00 3.279377469222921788e-03
3.533782831019657806e+03 1.136360785448295774e+00 3.187031545590653277e-03
3.537316613850678550e+03 1.139318244435706617e+00 3.062328155267819013e-03
3.540853930464530094e+03 1.143394053195661231e+00 2.870219512235499485e-03
3.544394784394995895e+03 1.145269028458542282e+00 3.061575687997835759e-03
3.547939179179392340e+03 1.147074113581138644e+00 3.147003086732372799e-03
3.551487118358572843e+03 1.148315194807933093e+00 3.052325322594241514e-03
3.555038605476932389e+03 1.148299527725726188e+00 2.826533637751814463e-03
3.558593644082410719e+03 1.149220760284465070e+00 2.728512016190551715e-03
3.562152237726494150e+03 1.149927628200386076e+00 2.758134382354842425e-03
3.565714389964221937e+03 1.150214805128203732e+00 2.770056846784961068e-03
3.569280104354187188e+03 1.150371515329595029e+00 2.748317895291084879e-03
3.572849384458542772e+03 1.150996194836114261e+00 2.491001376199672174e-03
3.576422233843002232e+03 1.151287094153466306e+00 2.553557820871897935e-03
3.579998656076846601e+03 1.150870991555322798e+00 2.558969365617460266e-03
3.583578654732924406e+03 1.149481814742293606e+00 2.417645792501949865e-03
3.587162233387658489e+03 1.148903428837290130e+00 2.449867357928772662e-03
3.590749395621047370e+03 1.148094612638396184e+00 2.525413034034618663e-03
3.594340145016669794e+03 1.147148088220912632e+00 2.430548541704893872e-03
3.597934485161687462e+03 1.145699159217194119e+00 2.310240075168003629e-03
3.601532419646850485e+03 1.143647767427396156e+00 2.368538239899737122e-03
3.605133952066498296e+03 1.140665747561140364e+00 2.351771481527845705e-03
3.608739086018566013e+03 1.136790322910585349e+00 2.396463528657658600e-03
3.612347825104585809e+03 1.131672774858730746e+00 2.578907586170909629e-03
3.615960172929691907e+03 1.126443581460842003e+00 2.381767684703380277e-03
3.619576133102622407e+03 1.121143487870416511e+00 2.256033611003709170e-03
3.623195709235726554e+03 1.116979221930084476e+00 2.261205151472915880e-03
3.626818904944963379e+03 1.113075482080295053e+00 2.341286778177159144e-03
3.630445723849909427e+03 1.109873981027412526e+00 2.247342816877139545e-03
3.634076169573760581e+03 1.106685912490943835e+00 2.273339703989348242e-03
3.637710245743335690e+03 1.104034366194670769e+00 2.322144584828312892e-03
3.641347955989080219e+03 1.101702495873342791e+00 2.365720564615350543e-03
3.644989303945070333e+03 1.099355320703024663e+00 2.160504664925288164e-03
3.648634293249016537e+03 1.098291096908035058e+00 1.934040129356993584e-03
3.652282927542266862e+03 1.097747840107435202e+00 1.868967705196856446e-03
3.655935210469810499e+03 1.099020146284368948e+00 2.073195131924048841e-03
3.659591145680281443e+03 1.101040633599000174e+00 2.110495085688431170e-03
3.663250736825963031e+03 1.103683270389932858e+00 2.032889941764129318e-03
3.666913987562790226e+03 1.109128781063536184e+00 1.712124005827213476e-03
3.670580901550354156e+03 1.112532930918159746e+00 1.708000430410995573e-03
3.674251482451905758e+03 1.115473253132214682e+00 1.821682027596874687e-03
3.677925733934358959e+03 1.117703836226992431e+00 1.961666550477646036e-03
3.681603659668294313e+03 1.118848616703647769e+00 1.890274866062786538e-03
3.685285263327964003e+03 1.119216013242223751e+00 1.847136179537833258e-03
3.688970548591293209e+03 1.117461041772899177e+00 2.084085265563678964e-03
3.692659519139885560e+03 1.115616483986800578e+00 2.179397128167932882e-03
3.696352178659026777e+03 1.112317399259486805e+00 2.340671902040232337e-03
3.700048530837686940e+03 1.108200304265254843e+00 2.780827447284346752e-03
3.703748579368525952e+03 1.104060859607217226e+00 2.833980325318243964e-03
3.707452327947895355e+03 1.100232891559200787e+00 2.529832206606823751e-03
3.711159780275844696e+03 1.096291901009981862e+00 1.978190027127933910e-03
3.714870940056121526e+03 1.094620446393651747e+00 1.894832669655522380e-03
3.718585810996179134e+03 1.095369350712199763e+00 2.269611575547522773e-03
3.722304396807176545e+03 1.096479782067296016e+00 2.319142099755660495e-03
3.726026701203984885e+03 1.098292661911388413e+00 2.316855752293951135e-03
3.729752727905190113e+03 1.101476557392355060e+00 2.391759533791985252e-03
3.733482480633096657e+03 1.105499846141518638e+00 2.363536510462639455e-03
3.737215963113731050e+03 1.111082884746309452e+00 2.420759324510570951e-03
3.740953179076846027e+03 1.116620587747066073e+00 2.192411790925979671e-03
3.744694132255923705e+03 1.121844197359620710e+00 2.084091547927815254e-03
3.748438826388181042e+03 1.126540965289432927e+00 2.406949095244283188e-03
3.752187265214570289e+03 1.129480918384678789e+00 2.654164118952883223e-03
3.755939452479786269e+03 1.130780991982431871e+00 2.555364282473147810e-03
3.759695391932267285e+03 1.129566473665284843e+00 2.553118489241107750e-03
3.763455087324201031e+03 1.127068217064974620e+00 2.536815711287752212e-03
3.767218542411526414e+03 1.123759549902283439e+00 2.608809533941245946e-03
3.770985760953939007e+03 1.118275740523851924e+00 2.792298748511831859e-03
3.774756746714894234e+03 1.111378163354919790e+00 3.006576238581570252e-03
3.778531503461610555e+03 1.104203930089009411e+00 3.060076128231092527e-03
3.782310034965073100e+03 1.096910058174727975e+00 2.564439708428342853e-03
3.786092345000039586e+03 1.090943796496536056e+00 2.401232116711536375e-03
3.789878437345040766e+03 1.086192979548224136e+00 2.280105644310778494e-03
3.793668315782387253e+03 1.084386426239317913e+00 2.475399078079029876e-03
3.797461984098170888e+03 1.085105560914465306e+00 2.687983278909617316e-03
3.801259446082270188e+03 1.088044541893781192e+00 2.034420790883421579e-03
3.805060705528353537e+03 1.091477553591820415e+00 1.940340425255204348e-03
3.808865766233883278e+03 1.095517817560157425e+00 1.844075098868293685e-03
3.812674632000118436e+03 1.099934467834738250e+00 1.848815332127715051e-03
3.816487306632119726e+03 1.104095161396434932e+00 2.311823230340268303e-03
3.820303793938753188e+03 1.108589532070377581e+00 1.963297077280892321e-03
3.824124097732693372e+03 1.114131765161279874e+00 2.220398275125353219e-03
3.827948221830427428e+03 1.120792307299339319e+00 2.647568682422948762e-03
3.831776170052258749e+03 1.125448561387837776e+00 2.542641626057685726e-03
3.835607946222312421e+03 1.128131016081125537e+00 2.545415854013534894e-03
3.839443554168536139e+03 1.130530639160922224e+00 2.470529107070083222e-03
3.843282997722705659e+03 1.131275958398760828e+00 2.494604936494127564e-03
3.847126280720429804e+03 1.130416253983961727e+00 2.839918445800706116e-03
3.850973407001151372e+03 1.129646075189785437e+00 2.848392654309632455e-03
3.854824380408153957e+03 1.129010858751048563e+00 2.816449269643291151e-03
3.858679204788563311e+03 1.129175830286366367e+00 2.727561112189015331e-03
3.862537883993353262e+03 1.129566138710251577e+00 2.431721496199314679e-03
3.866400421877347981e+03 1.131285811023768240e+00 2.020332541972669985e-03
3.870266822299226533e+03 1.136769909950433588e+00 2.006557536996946868e-03
3.874137089121526969e+03 1.143706347734592343e+00 1.939353544269963297e-03
3.878011226210649966e+03 1.152752026119419737e+00 1.878488240442636060e-03
3.881889237436861549e+03 1.161949022146138821e+00 1.850269115294762108e-03
3.885771126674299921e+03 1.171523532956543656e+00 1.868347418038245750e-03
3.889656897800975457e+03 1.180103416716927311e+00 1.400037268609718045e-03
3.893546554698777527e+03 1.189892123661312917e+00 2.111469327688127867e-03
3.897440101253477678e+03 1.198911440913048354e+00 2.599778849589334719e-03
3.901337541354732366e+03 1.206050935104977517e+00 3.169600322358689069e-03
3.905238878896088409e+03 1.207010508172121410e+00 2.968303260192450745e-03
3.909144117774985716e+03 1.203761696396169256e+00 2.813792028728655595e-03
3.913053261892762293e+03 1.196061141332008138e+00 3.259156505509168411e-03
3.916966315154656058e+03 1.183988556105391332e+00 3.964386650220434218e-03
3.920883281469812118e+03 1.169864876494991268e+00 3.720540863899648044e-03
3.924804164751283224e+03 1.155071279340026402e+00 3.555041111489176935e-03
3.928728968916035683e+03 1.139059793594355829e+00 3.349691193638278715e-03
3.932657697884953450e+03 1.122682007779427060e+00 3.365567708515385115e-03
3.936590355582839493e+03 1.107603764986525352e+00 3.376961581042247675e-03
3.940526945938423523e+03 1.095914024957541422e+00 3.348844753691823922e-03
3.944467472884363360e+03 1.088989917606218105e+00 3.332070813996611345e-03
3.948411940357249023e+03 1.086331518158563103e+00 3.378982810515182306e-03
3.952360352297607733e+03 1.087959451525522203e+00 3.393857225519527222e-03
3.956312712649906643e+03 1.090299154380808044e+00 3.453633185891124766e-03
3.960269025362557841e+03 1.094009235600868157e+00 3.501517350219489691e-03
3.964229294387921527e+03 1.098407073402796863e+00 3.658520216278121889e-03
3.968193523682310570e+03 1.103570898382949306e+00 3.724683101103434119e-03
3.972161717205994591e+03 1.108673262689433558e+00 3.727548400066546964e-03
3.976133878923201792e+03 1.112669121218782475e+00 2.630391823232161846e-03
3.980110012802126221e+03 1.111483158675831140e+00 3.077522364820036663e-03
3.984090122814929600e+03 1.108283523290438222e+00 3.600580431094409662e-03
3.988074212937745870e+03 1.101734794955964603e+00 3.554533610060696316e-03
3.992062287150684824e+03 1.095470980087510204e+00 2.462447815852992789e-03
3.996054349437837118e+03 1.090749193697538644e+00 2.255363770463820593e-03
4.000050403787276082e+03 1.087354722429413778e+00 2.247157061232585469e-03
4.004050454191064546e+03 1.085535231170552173e+00 2.240685294010621477e-03
4.008054504645257111e+03 1.084435643951533468e+00 2.370735942378460973e-03
4.012062559149903791e+03 1.085991660590268415e+00 2.319546851767399255e-03
4.016074621709055009e+03 1.089877224049007998e+00 2.535117191370818424e-03
4.020090696330765240e+03 1.095650560644486182e+00 2.954521623666404861e-03
4.024110787027097558e+03 1.101563124549851613e+00 2.828812377120079949e-03
4.028134897814125907e+03 1.106903710761372173e+00 2.526486637938552774e-03
4.032163032711941469e+03 1.110919077665972088e+00 2.504463960881296580e-03
4.036195195744654484e+03 1.113640901832438024e+00 2.495928699555756761e-03
4.040231390940400615e+03 1.115058403939498621e+00 2.511341476604070280e-03
4.044271622331342314e+03 1.114671042478121876e+00 2.505431605901805529e-03
4.048315893953675186e+03 1.113501102834719925e+00 2.403204814661916416e-03
4.052364209847629809e+03 1.110829112702488519e+00 2.398832875509640528e-03
4.056416574057479011e+03 1.105120493739820464e+00 2.345392433610488190e-03
4.060472990631537868e+03 1.099169193655683330e+00 2.097910535488931548e-03
4.064533463622170530e+03 1.093203911878264600e+00 1.633410960900102829e-03
4.068597997085794304e+03 1.089039252734512964e+00 1.623712834863585410e-03
4.072666595082881486e+03 1.085324365099251898e+00 1.525772500184051405e-03
4.076739261677965715e+03 1.081323445257232230e+00 1.506380130828831147e-03
4.080816000939644709e+03 1.077262219190634918e+00 1.554129582508383340e-03
4.084896816940585722e+03 1.072052286294760570e+00 1.496716497316328458e-03
4.088981713757527814e+03 1.067424306893636210e+00 1.678594236403964379e-03
4.093070695471286854e+03 1.062882371553767191e+00 1.790485003607272764e-03
4.097163766166759160e+03 1.056484222107577642e+00 1.454162690255926364e-03
4.101260929932927866e+03 1.048455341267759744e+00 1.928456366100412406e-03
4.105362190862862008e+03 1.039523017647046688e+00 2.174361530754178543e-03
4.109467553053726078e+03 1.032075305253217667e+00 1.991858461684130593e-03
4.113577020606780934e+03 1.026044405904080525e+00 2.015479320913593150e-03
4.117690597627389252e+03 1.020529794117024380e+00 2.047098942791688268e-03
4.121808288225018259e+03 1.016493404420393709e+00 2.100731897721789046e-03
4.125930096513244280e+03 1.015452290472251384e+00 2.054909641664156000e-03
4.130056026609759101e+03 1.018048086763134297e+00 2.273705087023312598e-03
4.134186082636369974e+03 1.021419306556615947e+00 2.277157264789232780e-03
4.138320268719007800e+03 1.027805832504451455e+00 2.268777683392710510e-03
4.142458588987728035e+03 1.035859154238043311e+00 2.258410514347311462e-03
4.146601047576717065e+03 1.045792811301466285e+00 2.244345116700407171e-03
4.150747648624294925e+03 1.056788877088653100e+00 2.332335068216576969e-03
4.154898396272920763e+03 1.067667803257445147e+00 2.421302211406448513e-03
4.159053294669195566e+03 1.078285155834179498e+00 2.641651532245041512e-03
4.163212347963865795e+03 1.087234780975246284e+00 2.722449195719286747e-03
4.167375560311830668e+03 1.095233097991259896e+00 2.618474858705151231e-03
4.171542935872143971e+03 1.100346082660308866e+00 1.856932205284316613e-03
4.175714478808017702e+03 1.100140758124793505e+00 2.410583981356315651e-03
4.179890193286827525e+03 1.097381691216879451e+00 2.580280484728374093e-03
4.184070083480115500e+03 1.092414756802796205e+00 2.429436591513435550e-03
4.188254153563597356e+03 1.087288405010174985e+00 2.407960501101534621e-03
4.192442407717161586e+03 1.081627991587596371e+00 2.397265965258854603e-03
4.196634850124880359e+03 1.074386221450733370e+00 2.099056388174510516e-03
4.200831484975006788e+03 1.067193606222736291e+00 1.834833115767975842e-03
4.205032316459983122e+03 1.061890740458553584e+00 1.885107846932019106e-03
4.209237348776444378e+03 1.059522303314456737e+00 1.866841625823983724e-03
4.213446586125221984e+03 1.058456254404265717e+00 1.993870847980867833e-03
4.217660032711349231e+03 1.061481672989883052e+00 2.013711893857993325e-03
4.221877692744061278e+03 1.066412442948215133e+00 2.088678177202819754e-03
4.226099570436806971e+03 1.073691784558743034e+00 2.237634463522954024e-03
4.230325670007245208e+03 1.082346992245469597e+00 2.249451335965406071e-03
4.234555995677254032e+03 1.092294286637395473e+00 2.308077907784112596e-03
4.238790551672932452e+03 1.103271705384550216e+00 2.253943699493354304e-03
4.243029342224606808e+03 1.114844482678106319e+00 2.230909470106298177e-03
4.247272371566832589e+03 1.126407397116072628e+00 1.589981077262781753e-03
4.251519643938400804e+03 1.135646443523148363e+00 1.474729887690160671e-03
4.255771163582340705e+03 1.142459817342787121e+00 1.397134044891300058e-03
4.260026934745924336e+03 1.147251555560712344e+00 1.348768186227723535e-03
4.264286961680671993e+03 1.150529836002190276e+00 1.457218774827653352e-03
4.268551248642354039e+03 1.151818487430845250e+00 1.454075993431439961e-03
4.272819799890998183e+03 1.151435858588095718e+00 1.611362911911772304e-03
4.277092619690890388e+03 1.150002492629821793e+00 2.000517877351794347e-03
4.281369712310583054e+03 1.147426681053974384e+00 2.911447973946249771e-03
4.285651082022895025e+03 1.145640281602670951e+00 3.067269388110502575e-03
4.289936733104918858e+03 1.145858105248314773e+00 2.671382625434769436e-03
4.294226669838025373e+03 1.148049324711418961e+00 3.141600595481624115e-03
4.298520896507864563e+03 1.151959045422590755e+00 3.828389567688933372e-03
4.302819417404373780e+03 1.155780062761531557e+00 3.839476068429431913e-03
4.307122236821779552e+03 1.158694459692259038e+00 3.555889072027178070e-03
4.311429359058603040e+03 1.160287840021477335e+00 3.538845849637852359e-03
4.315740788417662770e+03 1.161758193858983823e+00 3.436765109075899400e-03
4.320056529206081905e+03 1.161748396784987536e+00 3.431016636685061717e-03
4.324376585735290064e+03 1.160683110795919459e+00 3.413400842911274661e-03
4.328700962321026054e+03 1.156960500596059038e+00 3.480874362674231046e-03
4.333029663283348782e+03 1.152211404902176994e+00 3.118763481744538883e-03
4.337362692946633615e+03 1.148061104896552553e+00 3.170233234690340678e-03
4.341700055639581478e+03 1.143098116515986140e+00 3.181303302468486364e-03
4.346041755695222491e+03 1.139348534218622477e+00 3.034162188243626820e-03
4.350387797450919606e+03 1.134949735178913732e+00 2.759935652834580484e-03
4.354738185248371337e+03 1.130122261472946699e+00 2.744020599281555596e-03
4.359092923433621763e+03 1.125088155994493633e+00 2.911309062872678363e-03
4.363452016357056891e+03 1.118837925846384307e+00 2.681670298536774442e-03
4.367815468373414660e+03 1.113877811795883188e+00 2.016024669412733086e-03
4.372183283841789489e+03 1.111167713546201030e+00 2.277270749200504662e-03
4.376555467125633186e+03 1.110354991643786482e+00 2.311033813140803486e-03
4.380932022592760404e+03 1.110106616529367818e+00 2.221322282909839619e-03
4.385312954615354101e+03 1.110979225590762232e+00 2.365449704248876166e-03
4.389698267569970994e+03 1.112936827512545523e+00 2.512738052907588504e-03
4.394087965837542470e+03 1.116613696581445714e+00 2.412126553490896892e-03
4.398482053803381859e+03 1.123106075657183789e+00 2.533509275388610982e-03
4.402880535857186260e+03 1.130518961533437450e+00 2.731050126013886883e-03
4.407283416393044718e+03 1.137604070024095915e+00 2.740959244921421095e-03
4.411690699809440048e+03 1.143556403466142957e+00 2.820899659762836353e-03
4.416102390509250654e+03 1.149268406733076286e+00 2.999840789161636791e-03
4.420518492899761441e+03 1.154191666747168776e+00 2.684213210514598338e-03
4.424939011392662906e+03 1.155625391152148129e+00 2.568513354905964559e-03
4.429363950404056595e+03 1.155138283703662339e+00 2.514719944483686902e-03
4.433793314354462382e+03 1.151743498181763803e+00 2.677942748836455947e-03
4.438227107668818462e+03 1.145900591107457789e+00 2.583358903007868575e-03
4.442665334776488635e+03 1.138302430609812621e+00 2.217084738934153258e-03
4.447108000111265937e+03 1.129319070426070271e+00 1.561537070198159780e-03
4.451555108111379013e+03 1.121139854185703166e+00 1.530682777170189971e-03
4.456006663219492111e+03 1.113922699971185315e+00 1.456731730369992739e-03
4.460462669882713271e+03 1.107098257547263209e+00 2.026018366276300612e-03
4.464923132552597053e+03 1.101964111964769844e+00 2.083752959398667195e-03
4.469388055685150903e+03 1.098573774160194194e+00 2.120104133836538465e-03
4.473857443740837880e+03 1.097725864408170438e+00 1.927340302074882728e-03
