# starting wavelength: 3652.500
# ending wavelength: 7397.140
# wav flux eflux
3.655935210469810499e+03 1.041195704921601184e+00 9.745239152195554061e-03
3.659591145680281443e+03 1.024337825725476936e+00 6.966140689411526137e-03
3.663250736825963031e+03 1.013018775753808498e+00 5.305332118145857090e-03
3.666913987562790226e+03 1.005863795345792511e+00 4.190362724617406436e-03
3.670580901550354156e+03 1.002165773893405332e+00 3.968775257743448887e-03
3.674251482451905758e+03 9.997495341559042847e-01 3.392976348429220610e-03
3.677925733934358959e+03 9.986171299305733884e-01 3.418866523502953232e-03
3.681603659668294313e+03 9.969854269762724597e-01 2.738080043508916029e-03
3.685285263327964003e+03 9.959672088675503021e-01 2.396919581194212074e-03
3.688970548591293209e+03 9.949586605295525077e-01 2.146738289773593173e-03
3.692659519139885560e+03 9.939305835727897387e-01 1.960559858759672921e-03
3.696352178659026777e+03 9.932617688739188155e-01 1.737738375509621184e-03
3.700048530837686940e+03 9.929144907978332268e-01 1.568546332159826860e-03
3.703748579368525952e+03 9.927219579815561579e-01 1.443135695781856079e-03
3.707452327947895355e+03 9.927945947519560832e-01 1.345958566260153748e-03
3.711159780275844696e+03 9.932901266543235907e-01 1.290889992147947925e-03
3.714870940056121526e+03 9.937629240930192509e-01 1.238556610072148213e-03
3.718585810996179134e+03 9.939878675262575625e-01 1.197177908422905916e-03
3.722304396807176545e+03 9.941508103371777816e-01 1.166762737325650629e-03
3.726026701203984885e+03 9.944310124024742237e-01 1.127791687737835164e-03
3.729752727905190113e+03 9.947063494484450485e-01 1.112582314535575084e-03
3.733482480633096657e+03 9.949523403272824140e-01 1.112661430682752731e-03
3.737215963113731050e+03 9.953453758669228435e-01 1.129273934186043275e-03
3.740953179076846027e+03 9.956537595260624984e-01 1.113949604157204011e-03
3.744694132255923705e+03 9.959202408230802828e-01 1.130714180096775495e-03
3.748438826388181042e+03 9.964680856180931912e-01 1.133488877509120909e-03
3.752187265214570289e+03 9.967183433013722116e-01 1.320783518949034639e-03
3.755939452479786269e+03 9.971693014541928024e-01 1.493346487546520513e-03
3.759695391932267285e+03 9.985788098223227216e-01 1.527654384870942442e-03
3.763455087324201031e+03 9.998174943960235206e-01 1.629639647073640330e-03
3.767218542411526414e+03 1.001669828294762032e+00 1.640702185535186566e-03
3.770985760953939007e+03 1.003821752627761521e+00 1.624214946182481233e-03
3.774756746714894234e+03 1.005582612453914448e+00 1.316869998798547150e-03
3.778531503461610555e+03 1.008992246991243347e+00 9.585884702586140770e-04
3.782310034965073100e+03 1.014044549990403388e+00 1.074170212030446745e-03
3.786092345000039586e+03 1.021085933422514636e+00 1.831633044336199471e-03
3.789878437345040766e+03 1.028308465581468489e+00 2.335299569353756731e-03
3.793668315782387253e+03 1.035632682620871936e+00 2.457999765008104815e-03
3.797461984098170888e+03 1.042402849316419244e+00 2.399244685508026675e-03
3.801259446082270188e+03 1.049514045601743328e+00 2.307743160405531426e-03
3.805060705528353537e+03 1.056508640589324921e+00 2.134676242814256397e-03
3.808865766233883278e+03 1.062411823998028249e+00 2.046073480079272158e-03
3.812674632000118436e+03 1.068431701637226894e+00 1.894732163404845744e-03
3.816487306632119726e+03 1.073022150808446096e+00 1.870085184935818459e-03
3.820303793938753188e+03 1.076647887057831765e+00 1.903609166064348587e-03
3.824124097732693372e+03 1.079379682959714870e+00 1.943626785267775882e-03
3.827948221830427428e+03 1.080847243475810959e+00 2.031150003393464559e-03
3.831776170052258749e+03 1.081467409557042236e+00 2.123972103276559192e-03
3.835607946222312421e+03 1.082144991807360013e+00 2.144990091401273967e-03
3.839443554168536139e+03 1.081618787231053203e+00 2.003996743955675352e-03
3.843282997722705659e+03 1.080762923883778148e+00 1.750277946345393061e-03
3.847126280720429804e+03 1.080206789835494785e+00 1.667610512434013984e-03
3.850973407001151372e+03 1.080201336594675876e+00 1.643561440549487496e-03
3.854824380408153957e+03 1.081117473420546649e+00 1.829011915482166165e-03
3.858679204788563311e+03 1.081777848824129196e+00 1.825739610079237614e-03
3.862537883993353262e+03 1.082643444537079169e+00 1.794188292303117204e-03
3.866400421877347981e+03 1.083988274024006770e+00 1.700263760782002535e-03
3.870266822299226533e+03 1.085074663126745609e+00 1.805107220356269929e-03
3.874137089121526969e+03 1.087304019370397112e+00 1.850632812877087748e-03
3.878011226210649966e+03 1.089563145799524735e+00 1.856625289765985497e-03
3.881889237436861549e+03 1.091748959272186292e+00 1.897576939766457572e-03
3.885771126674299921e+03 1.092352189664125728e+00 1.427068635682470507e-03
3.889656897800975457e+03 1.095195691120923520e+00 1.531033788046730739e-03
3.893546554698777527e+03 1.099316656359567324e+00 2.104729929939484854e-03
3.897440101253477678e+03 1.103744752505823712e+00 2.291991200833604254e-03
3.901337541354732366e+03 1.106793942795140762e+00 2.193728833279241439e-03
3.905238878896088409e+03 1.109021957187481977e+00 2.164709198178800965e-03
3.909144117774985716e+03 1.110629967595185397e+00 2.157757005492066168e-03
3.913053261892762293e+03 1.111264507715597594e+00 2.124043524777077634e-03
3.916966315154656058e+03 1.110524320964805689e+00 2.120517908961601448e-03
3.920883281469812118e+03 1.109315275822721825e+00 2.319155630956515595e-03
3.924804164751283224e+03 1.106413180040480171e+00 2.681883219715411153e-03
3.928728968916035683e+03 1.103147951267038795e+00 3.044051947722474158e-03
3.932657697884953450e+03 1.099783728328611820e+00 2.971592952393405790e-03
3.936590355582839493e+03 1.097066172854503252e+00 2.603385592124317621e-03
3.940526945938423523e+03 1.095564630958590024e+00 2.211148217687609711e-03
3.944467472884363360e+03 1.095680998623516533e+00 1.952178821661431762e-03
3.948411940357249023e+03 1.097153232566779879e+00 1.999681947873818179e-03
3.952360352297607733e+03 1.101192732333720725e+00 2.298428337100845865e-03
3.956312712649906643e+03 1.107344607598635733e+00 2.146144248555171673e-03
3.960269025362557841e+03 1.114991879662350138e+00 1.902587018025347345e-03
3.964229294387921527e+03 1.122991005095484995e+00 1.662614190117919864e-03
3.968193523682310570e+03 1.131023154594114954e+00 1.584954630660805226e-03
3.972161717205994591e+03 1.139266642205687630e+00 1.482433471263475090e-03
3.976133878923201792e+03 1.146347203338746734e+00 1.449364003157558494e-03
3.980110012802126221e+03 1.152996425131478597e+00 1.273296782381573523e-03
3.984090122814929600e+03 1.159808231649924526e+00 1.386601063833467918e-03
3.988074212937745870e+03 1.165347162858517693e+00 1.430312590684426925e-03
3.992062287150684824e+03 1.169566444676586991e+00 1.430002310342161137e-03
3.996054349437837118e+03 1.172407869035410499e+00 1.367122152172859945e-03
4.000050403787276082e+03 1.175493780858615445e+00 1.086774926046015898e-03
4.004050454191064546e+03 1.176268389215117338e+00 1.000571494524546325e-03
4.008054504645257111e+03 1.174775077469358830e+00 1.409517254358458446e-03
4.012062559149903791e+03 1.172204126445125061e+00 1.512094588242805663e-03
4.016074621709055009e+03 1.168389645239545693e+00 1.386518491490537934e-03
4.020090696330765240e+03 1.164258525960878643e+00 1.248130008327696244e-03
4.024110787027097558e+03 1.159477707452336359e+00 1.181636458696238125e-03
4.028134897814125907e+03 1.154297609869717967e+00 1.121502648579505556e-03
4.032163032711941469e+03 1.150869744716627396e+00 1.789610128660431339e-03
4.036195195744654484e+03 1.147117527422322203e+00 1.815271001599400979e-03
4.040231390940400615e+03 1.142504749570272260e+00 1.830336486371532574e-03
4.044271622331342314e+03 1.137159717176309037e+00 1.747364783107901174e-03
4.048315893953675186e+03 1.131511693805513641e+00 1.639085079981896084e-03
4.052364209847629809e+03 1.124880495881701803e+00 2.134489842752293563e-03
4.056416574057479011e+03 1.118582364494041581e+00 2.530108730868984787e-03
4.060472990631537868e+03 1.113881268905857258e+00 2.346954943595393282e-03
4.064533463622170530e+03 1.111285839749851956e+00 2.238428762146181007e-03
4.068597997085794304e+03 1.110575227349912097e+00 2.089879266383420746e-03
4.072666595082881486e+03 1.112001948213015901e+00 1.750261541976671142e-03
4.076739261677965715e+03 1.116839500539254182e+00 1.940467246810069317e-03
4.080816000939644709e+03 1.124629191398135442e+00 2.041456154497499949e-03
4.084896816940585722e+03 1.133095742727706412e+00 1.934705855517239838e-03
4.088981713757527814e+03 1.141833475013748433e+00 1.923992198924583423e-03
4.093070695471286854e+03 1.150537951133770109e+00 1.665095947709716593e-03
4.097163766166759160e+03 1.156721537489401097e+00 1.454072695306561072e-03
4.101260929932927866e+03 1.160722938812927207e+00 1.411060867440642541e-03
4.105362190862862008e+03 1.161081595209854100e+00 1.190061023983111357e-03
4.109467553053726078e+03 1.160671254245313921e+00 1.374092034455619065e-03
4.113577020606780934e+03 1.155818315182586931e+00 1.379427869205141583e-03
4.117690597627389252e+03 1.148657839195610375e+00 1.362397838465632645e-03
4.121808288225018259e+03 1.138497659930620243e+00 1.600301066992134650e-03
4.125930096513244280e+03 1.126401654019657306e+00 1.932730640749959943e-03
4.130056026609759101e+03 1.112510943220701876e+00 1.992660203994788340e-03
4.134186082636369974e+03 1.098906211075883821e+00 1.763857214753284568e-03
4.138320268719007800e+03 1.086810955459239114e+00 1.722839794273399753e-03
4.142458588987728035e+03 1.075743372594661462e+00 1.644965442156179044e-03
4.146601047576717065e+03 1.065782796727978710e+00 1.505854612591328839e-03
4.150747648624294925e+03 1.058442098266788589e+00 1.573117611499086571e-03
4.154898396272920763e+03 1.053599294604705916e+00 1.785411619428333915e-03
4.159053294669195566e+03 1.050050060723922929e+00 1.686011565385072157e-03
4.163212347963865795e+03 1.047846967465221324e+00 1.673059194953162732e-03
4.167375560311830668e+03 1.046936699871402476e+00 1.454966661063940379e-03
4.171542935872143971e+03 1.046094673603223058e+00 1.155440847826563712e-03
4.175714478808017702e+03 1.044066844156510188e+00 1.155901947202555300e-03
4.179890193286827525e+03 1.042219152063343035e+00 1.148424020514076001e-03
4.184070083480115500e+03 1.039652925204349820e+00 1.086013440724024589e-03
4.188254153563597356e+03 1.037492475299756300e+00 9.896260757950728695e-04
4.192442407717161586e+03 1.033775796430679295e+00 9.783934117946660024e-04
4.196634850124880359e+03 1.029945581449640768e+00 8.149555473388904849e-04
4.200831484975006788e+03 1.024530709238953952e+00 1.017239774791362655e-03
4.205032316459983122e+03 1.018797185596428623e+00 1.081851882416551931e-03
4.209237348776444378e+03 1.012947210499193007e+00 9.902350752712977752e-04
4.213446586125221984e+03 1.007583506753134905e+00 9.941879429468949373e-04
4.217660032711349231e+03 1.002454007698309946e+00 9.955626428004623468e-04
4.221877692744061278e+03 9.976153903996831662e-01 1.022569862421398917e-03
4.226099570436806971e+03 9.926938247842572727e-01 9.428588946775313647e-04
4.230325670007245208e+03 9.889926179568149234e-01 9.986706914147419796e-04
4.234555995677254032e+03 9.864461419280955434e-01 1.125444155538918951e-03
4.238790551672932452e+03 9.847979968626530134e-01 1.175329128095527371e-03
4.243029342224606808e+03 9.856635082612105192e-01 1.167415024886744998e-03
4.247272371566832589e+03 9.880647295656935780e-01 1.176237344725240873e-03
4.251519643938400804e+03 9.922345274942064863e-01 1.194594042084726757e-03
4.255771163582340705e+03 9.979849502563827857e-01 1.502149664111346794e-03
4.260026934745924336e+03 1.004874755106248241e+00 1.611215507306617981e-03
4.264286961680671993e+03 1.012533691024526838e+00 1.654875131650221636e-03
4.268551248642354039e+03 1.020415682404273605e+00 1.385804982560992233e-03
4.272819799890998183e+03 1.027903367663856704e+00 1.203842365952238237e-03
4.277092619690890388e+03 1.035052931967872514e+00 1.143109661174848170e-03
4.281369712310583054e+03 1.040914810167879789e+00 1.278899720160471412e-03
4.285651082022895025e+03 1.046503344705960847e+00 1.189135867355059972e-03
4.289936733104918858e+03 1.051973435972503923e+00 9.890970833359785056e-04
4.294226669838025373e+03 1.057599478876638521e+00 8.565050493279819386e-04
4.298520896507864563e+03 1.063419318647192080e+00 8.280291861804369357e-04
4.302819417404373780e+03 1.070000979323277646e+00 8.458106991989399652e-04
4.307122236821779552e+03 1.076789390309366379e+00 8.272176558652055613e-04
4.311429359058603040e+03 1.083027042840385645e+00 9.205653339588265550e-04
4.315740788417662770e+03 1.089806240224871381e+00 8.922857544435176813e-04
4.320056529206081905e+03 1.096368974066675106e+00 9.447216579767732554e-04
4.324376585735290064e+03 1.103266903297766888e+00 1.039079568668134545e-03
4.328700962321026054e+03 1.110132068347662093e+00 7.743106811315103024e-04
4.333029663283348782e+03 1.118206699172383356e+00 6.816062900785681191e-04
4.337362692946633615e+03 1.127364441621299340e+00 7.234732884350995657e-04
4.341700055639581478e+03 1.137219297464027168e+00 9.525096858931114425e-04
4.346041755695222491e+03 1.147600040954284584e+00 9.438211407567943106e-04
4.350387797450919606e+03 1.157727441818826808e+00 8.802692943009145145e-04
4.354738185248371337e+03 1.167756954856145946e+00 8.369815904018608520e-04
4.359092923433621763e+03 1.177412153650442717e+00 7.129598612948275481e-04
4.363452016357056891e+03 1.185850455570356399e+00 7.743023740417883608e-04
4.367815468373414660e+03 1.193903621346002808e+00 7.933968962707086152e-04
4.372183283841789489e+03 1.200707433222193421e+00 7.901265932614609435e-04
4.376555467125633186e+03 1.206617185412798277e+00 8.055124635762820522e-04
4.380932022592760404e+03 1.211304355262964760e+00 7.952970868695367771e-04
4.385312954615354101e+03 1.215214968964899889e+00 7.858244344894078481e-04
4.389698267569970994e+03 1.218331548294175448e+00 7.450594542280173510e-04
4.394087965837542470e+03 1.219917227860485065e+00 8.620141995674887592e-04
4.398482053803381859e+03 1.222064840040387956e+00 8.247318590814068035e-04
4.402880535857186260e+03 1.223569376492219529e+00 9.155140984445479541e-04
4.407283416393044718e+03 1.225185698203614004e+00 8.789690008555841108e-04
4.411690699809440048e+03 1.226932142860621910e+00 8.800680449295359125e-04
4.416102390509250654e+03 1.229725023426552655e+00 7.160090895300311566e-04
4.420518492899761441e+03 1.234424066605057657e+00 9.416817393841775668e-04
4.424939011392662906e+03 1.240358171472513149e+00 1.053043104280390130e-03
4.429363950404056595e+03 1.246491928568588259e+00 1.131979211612365623e-03
4.433793314354462382e+03 1.253795362457293727e+00 1.142135048470044019e-03
4.438227107668818462e+03 1.262531173277407381e+00 1.161241826380546164e-03
4.442665334776488635e+03 1.271559181898998858e+00 1.199172244745420630e-03
4.447108000111265937e+03 1.280357866985908810e+00 1.263525118323805983e-03
4.451555108111379013e+03 1.289043331126093150e+00 1.219456923989664350e-03
4.456006663219492111e+03 1.296671794523782451e+00 1.231623794473567278e-03
4.460462669882713271e+03 1.303145572646503769e+00 1.241832417138878783e-03
4.464923132552597053e+03 1.308612186726401561e+00 1.237919960815691200e-03
4.469388055685150903e+03 1.312802620699222711e+00 1.247191836856498303e-03
4.473857443740837880e+03 1.315941675167899838e+00 1.274229830904795475e-03
4.478331301184580298e+03 1.317127918886799032e+00 1.262948386074798065e-03
4.482809632485766087e+03 1.317077221023161826e+00 1.232672865186958729e-03
4.487292442118253348e+03 1.315210566035575512e+00 1.230634987020562485e-03
4.491779734560373072e+03 1.312102481185952074e+00 1.225933051377780733e-03
4.496271514294934605e+03 1.307183290635926642e+00 1.168644542361508719e-03
4.500767785809231100e+03 1.301691059594781485e+00 1.160900809887399198e-03
4.505268553595042249e+03 1.296156241524832220e+00 1.065480142887697277e-03
4.509773822148638828e+03 1.289867384054265154e+00 1.270842973189230700e-03
4.514283595970789065e+03 1.282553377451399301e+00 1.366378388820071966e-03
4.518797879566761367e+03 1.276667844444291600e+00 1.098631924250554649e-03
4.523316677446328868e+03 1.272832458964804569e+00 1.197731396655805696e-03
4.527839994123776705e+03 1.269915143470003782e+00 1.303235878391133728e-03
4.532367834117902021e+03 1.268160014315274253e+00 1.420579529005296104e-03
4.536900201952022144e+03 1.267161404885169596e+00 1.425487676900093073e-03
4.541437102153975502e+03 1.266556698768901645e+00 1.334833575339629350e-03
4.545978539256130716e+03 1.264908703496443243e+00 1.271875172767213081e-03
4.550524517795388419e+03 1.262677938714994452e+00 1.128146855088125967e-03
4.555075042313184895e+03 1.258905838629861496e+00 1.118076758525126573e-03
4.559630117355500261e+03 1.254182976784192549e+00 1.110631095907503888e-03
4.564189747472856652e+03 1.247944752232889254e+00 1.180734535563204369e-03
4.568753937220330954e+03 1.240329834289609634e+00 1.202106230393982633e-03
4.573322691157552981e+03 1.232419156228010237e+00 9.847332083464915408e-04
4.577896013848711846e+03 1.224447692316558811e+00 9.416308562877147206e-04
4.582473909862562323e+03 1.216539477110108791e+00 1.117212589530622475e-03
4.587056383772426670e+03 1.208284798188189679e+00 1.116781220187782571e-03
4.591643440156200086e+03 1.200135665594273648e+00 1.267091449666796991e-03
4.596235083596357981e+03 1.192458504376731954e+00 1.318129342201788089e-03
4.600831318679955984e+03 1.184858513821005710e+00 1.146915362646793758e-03
4.605432149998637215e+03 1.178523735093020219e+00 1.169234738212362448e-03
4.610037582148637739e+03 1.173284012424826717e+00 1.217322021210942139e-03
4.614647619730787483e+03 1.167645134922259853e+00 1.214421099079950441e-03
4.619262267350520233e+03 1.162870155832680386e+00 1.377259752116560690e-03
4.623881529617872729e+03 1.157806044681709334e+00 1.365641910493817397e-03
4.628505411147491941e+03 1.153026138949570623e+00 1.303319655217073788e-03
4.633133916558640522e+03 1.147935147301170966e+00 1.290156073750156141e-03
4.637767050475200449e+03 1.142468134828417803e+00 1.176433809678482196e-03
4.642404817525677572e+03 1.135699562737104928e+00 1.258236717859711595e-03
4.647047222343205249e+03 1.128361233722038115e+00 1.341526942596263632e-03
4.651694269565549803e+03 1.120478768544931114e+00 1.315481046916963225e-03
4.656345963835116891e+03 1.112187018216255652e+00 1.027120607407764783e-03
4.661002309798953320e+03 1.104892035334716249e+00 1.013346216350744866e-03
4.665663312108753416e+03 1.098413241079366109e+00 1.103283979217832295e-03
4.670328975420864481e+03 1.092563389206079538e+00 9.112805681466103680e-04
4.674999304396286789e+03 1.085875056004610428e+00 1.204519211926792120e-03
4.679674303700684504e+03 1.080213997669540404e+00 1.256414797126859063e-03
4.684353978004386590e+03 1.076174093243270624e+00 1.259674998738375762e-03
4.689038331982392265e+03 1.072953666626730751e+00 1.251469728123311056e-03
4.693727370314376458e+03 1.070857821234555418e+00 1.239963999496580729e-03
4.698421097684692540e+03 1.069667761395704186e+00 1.236442926264528326e-03
4.703119518782378691e+03 1.068907116205339625e+00 1.238182528231153044e-03
4.707822638301162442e+03 1.069269703531270599e+00 1.238487651320260233e-03
4.712530460939465229e+03 1.068948357364517543e+00 1.227024061737556860e-03
4.717242991400406027e+03 1.069360386337682156e+00 1.338626787748433420e-03
4.721960234391808626e+03 1.069434019062803110e+00 1.190194320656940774e-03
4.726682194626201635e+03 1.068627841832928027e+00 1.012232195577198813e-03
4.731408876820829391e+03 1.066140826640936901e+00 1.204035334166558141e-03
4.736140285697651962e+03 1.063183816504772672e+00 1.203761575235023484e-03
4.740876425983350600e+03 1.059260682526895536e+00 1.153843072924026726e-03
4.745617302409335934e+03 1.054987282147488159e+00 1.006926731706664661e-03
4.750362919711747054e+03 1.050674699986066996e+00 1.005311410166152396e-03
4.755113282631459697e+03 1.046616108756402319e+00 9.813778168528848860e-04
4.759868395914093526e+03 1.042502059874660381e+00 9.931310638207448745e-04
