# starting wavelength: 3094.070
# ending wavelength: 9993.720
# wav flux eflux
3.097003021827323209e+03 -6.753561764552770130e-01 1.181893917458162052e-01
3.100100024849151396e+03 -3.458517705546541032e-01 1.012057902886204230e-01
3.103200124874001631e+03 -1.087737408715228893e-01 7.409848510551628187e-02
3.106303324998876633e+03 5.196460642061249968e-02 5.728712164024179349e-02
3.109409628323876859e+03 1.596080254273847809e-01 4.461636338185238221e-02
3.112519037952201415e+03 2.043550524399766199e-01 6.150979901629215207e-02
3.115631556990154877e+03 2.410242762853010423e-01 5.612130754267671134e-02
3.118747188547145925e+03 2.712158281010993988e-01 4.689403102856502109e-02
3.121865935735694165e+03 2.915827773532762013e-01 3.890182767000124192e-02
3.124987801671431043e+03 2.987193185969124753e-01 3.392215631423815131e-02
3.128112789473103476e+03 3.018612853465028611e-01 3.156872601397009426e-02
3.131240902262577492e+03 3.050752565431009700e-01 3.133804339164764780e-02
3.134372143164840963e+03 3.035266653406944459e-01 2.926992523921751951e-02
3.137506515308006783e+03 2.940856757090303808e-01 2.690216006975507460e-02
3.140644021823316052e+03 2.720799479865071424e-01 2.521168277095997209e-02
3.143784665845140353e+03 2.365597247667023395e-01 2.594975479563296078e-02
3.146928450510986750e+03 2.023683805649985346e-01 2.553393153257931328e-02
3.150075378961498700e+03 1.762398801550625893e-01 2.516734288650968737e-02
3.153225454340461056e+03 1.471923828911991250e-01 2.466647065253715215e-02
3.156378679794802792e+03 1.257719496066053155e-01 2.409981938424972728e-02
3.159535058474598372e+03 1.082973933007959633e-01 2.378591190195300173e-02
3.162694593533074112e+03 9.633847665077815980e-02 2.363312703559858341e-02
3.165857288126608182e+03 9.261342776534403631e-02 2.356390522013473640e-02
3.169023145414736064e+03 9.381717349177347287e-02 2.362334153056423747e-02
3.172192168560151458e+03 9.420130595564051024e-02 2.346634807912071144e-02
3.175364360728712654e+03 9.881511090325663382e-02 2.300237634448919211e-02
3.178539725089442527e+03 1.113545280946101612e-01 2.402909129585970374e-02
3.181718264814533086e+03 1.301805527678535079e-01 2.646927658258637489e-02
3.184899983079348658e+03 1.522602764687092658e-01 2.814115279775656481e-02
3.188084883062429071e+03 1.726530094986957753e-01 2.834932538569491164e-02
3.191272967945492383e+03 1.953038324951487104e-01 2.834234844371511658e-02
3.194464240913438971e+03 2.175299143607458685e-01 2.761191576209119994e-02
3.197658705154353811e+03 2.414694457264768279e-01 2.618214875142178127e-02
3.200856363859509202e+03 2.596953777806881303e-01 2.552794086324001316e-02
3.204057220223369768e+03 2.792961575863938672e-01 2.440206415701542259e-02
3.207261277443593826e+03 2.983007648508867460e-01 2.304943685633649778e-02
3.210468538721038840e+03 3.112594850643662925e-01 2.244601782222351016e-02
3.213679007259760965e+03 3.127216848768409330e-01 2.331287430835040156e-02
3.216892686267021418e+03 3.132859312427517251e-01 2.412204147684268024e-02
3.220109578953289656e+03 3.087534952866121118e-01 2.373090419139297150e-02
3.223329688532243836e+03 2.953830467328022458e-01 2.394027500732337499e-02
3.226553018220777176e+03 2.818693347074123778e-01 2.317779206384485216e-02
3.229779571238999324e+03 2.755609788299456242e-01 2.329774981628350908e-02
3.233009350810239084e+03 2.632235072410068488e-01 2.111395530860767089e-02
3.236242360161050783e+03 2.503375045384411690e-01 1.739798721414167332e-02
3.239478602521212906e+03 2.408482647789069175e-01 1.391565675739131307e-02
3.242718081123734919e+03 2.444719375114235427e-01 1.470147538755554179e-02
3.245960799204859995e+03 2.563176677412553617e-01 1.513425059274214196e-02
3.249206760004065927e+03 2.797057529086470762e-01 1.196472179981021740e-02
3.252455966764071036e+03 2.931685906761066773e-01 1.097735663155523927e-02
3.255708422730835991e+03 3.013465878549705934e-01 1.118082668724386733e-02
3.258964131153567905e+03 3.113840385953423606e-01 1.107892787262520183e-02
3.262223095284722604e+03 3.274274942013333800e-01 1.067332754501726724e-02
3.265485318380008266e+03 3.423190353835899313e-01 1.009728947478798385e-02
3.268750803698389518e+03 3.547427660545545702e-01 9.873515395331950578e-03
3.272019554502088795e+03 3.638650213821698065e-01 9.879230908619347426e-03
3.275291574056592253e+03 3.719528820429915950e-01 9.842030755519990196e-03
3.278566865630649772e+03 3.777558901475560615e-01 9.623041638232599296e-03
3.281845432496281319e+03 3.773635926779272953e-01 9.593371120542530661e-03
3.285127277928778767e+03 3.728392059391149593e-01 8.641526802781339736e-03
3.288412405206708627e+03 3.710592033160252101e-01 8.851943650502888672e-03
3.291700817611916591e+03 3.693115406216160856e-01 8.214534745868617635e-03
3.294992518429529355e+03 3.627584175493412944e-01 8.683326148018484514e-03
3.298287510947960072e+03 3.543787863180051789e-01 8.959235647608613726e-03
3.301585798458909267e+03 3.428071018040904638e-01 8.063646444283931528e-03
3.304887384257369376e+03 3.322811400658526870e-01 7.960514439304072418e-03
3.308192271641627485e+03 3.206878051345661285e-01 7.271530302655921166e-03
3.311500463913270323e+03 3.111786071951660460e-01 7.041935795497592313e-03
3.314811964377184722e+03 3.036875714319726693e-01 7.036968733159326000e-03
3.318126776341563072e+03 3.027311039963348493e-01 6.378386093883005314e-03
3.321444903117905596e+03 2.985414667437233938e-01 6.362243564029039684e-03
3.324766348021024896e+03 2.933167581924873701e-01 6.353738813993327871e-03
3.328091114369046863e+03 2.895773313589152798e-01 6.409661601511669124e-03
3.331419205483417045e+03 2.860383353289810970e-01 6.012302061473588123e-03
3.334750624688901553e+03 2.857458047544229607e-01 6.124861795890861570e-03
3.338085375313591612e+03 2.879799312416937429e-01 6.204177262067361691e-03
3.341423460688906289e+03 2.934775636658070730e-01 6.237268576056945006e-03
3.344764884149596128e+03 3.026623874925403745e-01 6.249473685407058547e-03
3.348109649033746791e+03 3.159513369567903962e-01 6.416672188868349780e-03
3.351457758682781787e+03 3.320602553449186201e-01 6.521424341410015334e-03
3.354809216441465651e+03 3.507292980581511177e-01 6.734147234195063739e-03
3.358164025657908041e+03 3.656338357258351879e-01 6.965778933997722640e-03
3.361522189683567376e+03 3.799624377697577993e-01 7.080372277191130867e-03
3.364883711873251741e+03 3.937630109854780014e-01 7.471015245377538722e-03
3.368248595585126168e+03 4.103183106638348399e-01 7.589529333843901548e-03
3.371616844180712633e+03 4.241496473448246873e-01 7.336772495550706458e-03
3.374988461024894150e+03 4.334677813136610380e-01 7.155068123625710035e-03
3.378363449485920228e+03 4.407724124372016106e-01 6.972832401526606223e-03
3.381741812935407324e+03 4.464668285793905178e-01 6.740192333150612017e-03
3.385123554748343849e+03 4.491025318951881173e-01 7.404055777682451087e-03
3.388508678303093347e+03 4.484312013965693899e-01 7.671755249685053603e-03
3.391897186981397681e+03 4.468861856591492265e-01 7.697761389553058227e-03
3.395289084168380214e+03 4.410487292887089184e-01 7.462024782635040369e-03
3.398684373252549449e+03 4.315872057995250866e-01 6.893727018822817104e-03
3.402083057625803121e+03 4.224016824863038866e-01 6.482430404790839699e-03
3.405485140683430018e+03 4.132368227762895363e-01 6.133369145093841082e-03
3.408890625824114522e+03 4.018995097417625839e-01 5.294411149349851665e-03
3.412299516449939802e+03 3.919034609782145462e-01 5.002901152388818280e-03
3.415711815966390986e+03 3.837376395861770151e-01 4.995582413365280521e-03
3.419127527782358356e+03 3.780573204785549479e-01 4.702922569539163232e-03
3.422546655310141887e+03 3.740540336289626122e-01 4.672435549447325268e-03
3.425969201965453522e+03 3.732172693850842604e-01 4.756189842124355568e-03
3.429395171167419903e+03 3.712421624911242390e-01 4.697757639048678012e-03
3.432824566338588284e+03 3.712556973562753937e-01 4.479666649492887627e-03
3.436257390904928343e+03 3.706325122725235288e-01 4.306250834816300471e-03
3.439693648295834464e+03 3.682904147684403773e-01 4.307335070632015671e-03
3.443133341944131189e+03 3.646279835610252151e-01 4.442127903689272427e-03
3.446576475286076402e+03 3.604359112445330027e-01 4.685979403510420228e-03
3.450023051761363604e+03 3.579843627590926780e-01 4.694414227856374446e-03
3.453473074813126004e+03 3.556114207280209327e-01 4.736526146230586251e-03
3.456926547887940615e+03 3.573063874740297075e-01 4.793123150923009161e-03
3.460383474435829612e+03 3.599302292739567921e-01 4.870904162404664922e-03
3.463843857910266706e+03 3.644875700580428313e-01 4.834107481439054235e-03
3.467307701768178049e+03 3.699023498987601410e-01 4.653927546878477810e-03
3.470775009469947236e+03 3.743400304079914642e-01 4.643409577724239359e-03
3.474245784479418489e+03 3.779668018864292267e-01 4.563209170361695599e-03
3.477720030263898934e+03 3.835069423725553373e-01 4.718121563335142890e-03
3.481197750294164052e+03 3.888645434304903725e-01 4.851489893643507779e-03
3.484678948044459503e+03 3.939188217865436936e-01 5.208532762541798027e-03
3.488163626992504760e+03 3.997075210576719329e-01 5.056554712813439781e-03
3.491651790619498570e+03 4.035750333634575693e-01 4.694501165341505473e-03
3.495143442410119405e+03 4.047485523875940516e-01 5.392404728947781424e-03
3.498638585852530468e+03 4.079279339065098320e-01 5.617833495862994790e-03
3.502137224438384237e+03 4.098980240687364329e-01 6.154399594223464338e-03
3.505639361662823831e+03 4.127253498604034898e-01 6.334067586115876836e-03
3.509145001024487556e+03 4.141719645255060311e-01 6.195008352328688905e-03
3.512654146025513455e+03 4.164671129791492343e-01 5.799688503792538828e-03
3.516166800171540217e+03 4.188149106378843411e-01 5.085609959527828336e-03
3.519682966971712631e+03 4.216167346194846788e-01 4.365772143723099796e-03
3.523202649938685681e+03 4.316341997102376427e-01 5.208990577345899535e-03
3.526725852588625457e+03 4.419496728703580235e-01 5.616855599895508727e-03
3.530252578441215064e+03 4.518665484814670119e-01 5.325681129570784302e-03
3.533782831019657806e+03 4.606302891371376607e-01 5.005654698267321574e-03
3.537316613850678550e+03 4.674789975613834470e-01 5.014952304657220930e-03
3.540853930464530094e+03 4.729203890942626498e-01 5.167938990732201532e-03
3.544394784394995895e+03 4.788526182669284870e-01 5.140133564313158557e-03
3.547939179179392340e+03 4.841640600998418087e-01 5.161208503325148515e-03
3.551487118358572843e+03 4.889337053410612310e-01 5.048500106206828091e-03
3.555038605476932389e+03 4.903838189055084174e-01 5.061087161407376751e-03
3.558593644082410719e+03 4.889451639553597517e-01 5.165015158024091439e-03
3.562152237726494150e+03 4.851978254608526608e-01 5.029988105482677274e-03
3.565714389964221937e+03 4.794442342835997239e-01 4.421454745784167070e-03
3.569280104354187188e+03 4.733820458955552701e-01 4.158925257681640730e-03
3.572849384458542772e+03 4.687516431109909898e-01 4.170767899418083985e-03
3.576422233843002232e+03 4.655094103108900483e-01 4.605112500263912508e-03
3.579998656076846601e+03 4.627087766885426001e-01 4.031012297650799457e-03
3.583578654732924406e+03 4.571507140688045867e-01 3.756929454923802186e-03
3.587162233387658489e+03 4.484805329751095360e-01 4.275998701370773564e-03
3.590749395621047370e+03 4.391482060981163338e-01 4.397613720890911938e-03
3.594340145016669794e+03 4.322508573023458589e-01 4.439736711774265945e-03
3.597934485161687462e+03 4.249095986314571083e-01 4.569276139699230202e-03
3.601532419646850485e+03 4.173007590069990336e-01 4.760869086983202797e-03
3.605133952066498296e+03 4.076987777120767431e-01 4.697652089312013592e-03
3.608739086018566013e+03 3.978999077806600893e-01 4.831630040225715940e-03
3.612347825104585809e+03 3.902901338784460772e-01 4.777384922943466415e-03
3.615960172929691907e+03 3.843659104178293040e-01 4.735791341959276479e-03
3.619576133102622407e+03 3.789361573021115537e-01 4.731403983322813277e-03
3.623195709235726554e+03 3.742626901449189192e-01 4.696911459569152493e-03
3.626818904944963379e+03 3.695908426304255756e-01 4.522608624522176171e-03
3.630445723849909427e+03 3.661411128525702829e-01 4.371009280142140740e-03
3.634076169573760581e+03 3.656722136153649494e-01 4.414289288573380529e-03
3.637710245743335690e+03 3.673267709048252949e-01 4.466351772284820644e-03
3.641347955989080219e+03 3.701518177091632777e-01 4.469989532065591839e-03
3.644989303945070333e+03 3.733970870111036899e-01 4.826706628814410316e-03
3.648634293249016537e+03 3.787039240122469508e-01 4.877417933228972609e-03
3.652282927542266862e+03 3.866263751970098195e-01 4.760471224550440368e-03
3.655935210469810499e+03 3.986254771088362792e-01 5.228642424726895506e-03
3.659591145680281443e+03 4.153590115397813864e-01 5.204552573847805522e-03
3.663250736825963031e+03 4.315090228572455167e-01 5.317692414308028588e-03
3.666913987562790226e+03 4.455744104530348637e-01 5.410257977061198355e-03
3.670580901550354156e+03 4.578625647315637814e-01 5.442141876707732619e-03
3.674251482451905758e+03 4.696858327480245010e-01 5.433310737214190958e-03
3.677925733934358959e+03 4.811077122194608591e-01 5.022812336173331990e-03
3.681603659668294313e+03 4.900668494913947293e-01 4.478789386129632989e-03
3.685285263327964003e+03 4.967084429580310712e-01 4.403053612316366536e-03
3.688970548591293209e+03 4.992094731954502262e-01 5.042915405458963524e-03
3.692659519139885560e+03 4.985295574637914617e-01 5.047948408376523588e-03
3.696352178659026777e+03 4.972473075020238942e-01 4.289120931333136912e-03
3.700048530837686940e+03 4.987710895612268991e-01 3.601000944525369844e-03
3.703748579368525952e+03 5.030386945599522042e-01 3.109244576288904341e-03
3.707452327947895355e+03 5.088466715112354155e-01 3.071656206296440299e-03
3.711159780275844696e+03 5.187794398215102021e-01 3.546627391501725683e-03
3.714870940056121526e+03 5.318688354336316149e-01 3.510397570119775344e-03
3.718585810996179134e+03 5.474206232760495672e-01 2.535195095249507570e-03
3.722304396807176545e+03 5.623459961950150188e-01 2.223613403269596254e-03
3.726026701203984885e+03 5.765782927319977880e-01 2.332521954958414155e-03
3.729752727905190113e+03 5.907116617305091522e-01 2.546027676601555351e-03
3.733482480633096657e+03 6.043066350051222724e-01 2.214910932413390911e-03
3.737215963113731050e+03 6.153741139366962765e-01 2.237507262515439199e-03
3.740953179076846027e+03 6.238672642291525072e-01 2.624108123117190917e-03
3.744694132255923705e+03 6.274256962742429389e-01 2.644997569350089270e-03
3.748438826388181042e+03 6.270570418922338796e-01 2.634953329666394652e-03
3.752187265214570289e+03 6.233572888316072369e-01 2.621033824287824238e-03
3.755939452479786269e+03 6.149144441960904262e-01 3.157442023679778078e-03
3.759695391932267285e+03 6.028505042642747780e-01 4.085264978319540739e-03
3.763455087324201031e+03 5.905040318070269301e-01 4.334367701169676568e-03
3.767218542411526414e+03 5.770440985327863759e-01 4.213443289674101422e-03
3.770985760953939007e+03 5.636383662306140296e-01 3.558699385540980455e-03
3.774756746714894234e+03 5.515198915831189819e-01 2.644068072679098269e-03
3.778531503461610555e+03 5.421699073512572520e-01 2.522415254318943582e-03
3.782310034965073100e+03 5.375069388368007850e-01 2.674915160516711833e-03
3.786092345000039586e+03 5.365732292608897946e-01 2.825009947764627917e-03
3.789878437345040766e+03 5.375946916396441289e-01 2.612183007812266585e-03
3.793668315782387253e+03 5.405776454024789901e-01 2.386521932982957339e-03
3.797461984098170888e+03 5.437102451201810682e-01 2.415286441947252227e-03
3.801259446082270188e+03 5.457330048346017426e-01 2.374863652045708286e-03
3.805060705528353537e+03 5.464303956951025443e-01 2.196085058005435922e-03
3.808865766233883278e+03 5.444327756596879508e-01 2.486063666948210796e-03
3.812674632000118436e+03 5.416919362585200792e-01 2.973423757556027669e-03
3.816487306632119726e+03 5.408511695628954730e-01 2.932382009741524732e-03
3.820303793938753188e+03 5.394345608710235940e-01 2.693782344401104891e-03
3.824124097732693372e+03 5.394760718371738317e-01 2.866747463547265895e-03
3.827948221830427428e+03 5.400922083928269002e-01 2.710320021701881615e-03
3.831776170052258749e+03 5.393731884136955257e-01 2.606705197190777555e-03
3.835607946222312421e+03 5.391550214071498814e-01 2.560137969185106391e-03
3.839443554168536139e+03 5.404162114314312593e-01 2.563952126094420480e-03
3.843282997722705659e+03 5.426191735463947730e-01 2.612019029405289548e-03
3.847126280720429804e+03 5.461192485276431530e-01 2.601255672896330036e-03
3.850973407001151372e+03 5.504454441913023688e-01 2.794575491136808837e-03
3.854824380408153957e+03 5.545014159484056293e-01 2.917670617543923362e-03
3.858679204788563311e+03 5.582371860584171008e-01 2.956601334009121250e-03
3.862537883993353262e+03 5.613145287943035466e-01 2.962379343755855605e-03
3.866400421877347981e+03 5.658946614047907220e-01 3.186902253079597781e-03
3.870266822299226533e+03 5.704171512442272052e-01 2.688252122057853324e-03
3.874137089121526969e+03 5.740668584145232067e-01 3.064342043043925042e-03
3.878011226210649966e+03 5.772571520011069435e-01 4.412678741788211324e-03
3.881889237436861549e+03 5.823506664616330264e-01 4.975522899683002161e-03
3.885771126674299921e+03 5.910491722173676354e-01 3.916107853065524738e-03
3.889656897800975457e+03 6.069790546571586232e-01 3.467390337303443738e-03
3.893546554698777527e+03 6.290335093157078949e-01 4.343836946784710752e-03
3.897440101253477678e+03 6.565023027709500081e-01 5.481966900088377538e-03
3.901337541354732366e+03 6.861493248429486602e-01 5.606691530012024305e-03
3.905238878896088409e+03 7.174514364970345781e-01 4.959439782066915083e-03
3.909144117774985716e+03 7.496623274889474553e-01 4.449560609220201170e-03
3.913053261892762293e+03 7.810263329739131066e-01 4.588450179831129148e-03
3.916966315154656058e+03 8.118729442321462875e-01 4.743366332337919065e-03
3.920883281469812118e+03 8.431976280967805604e-01 4.803235635973710643e-03
3.924804164751283224e+03 8.723251373047486990e-01 4.757564594978295515e-03
3.928728968916035683e+03 8.995086428524159405e-01 4.592575236358717970e-03
3.932657697884953450e+03 9.249718849420301980e-01 4.471647380803913177e-03
3.936590355582839493e+03 9.493904626138094383e-01 4.452189310885208695e-03
3.940526945938423523e+03 9.748471596292018759e-01 4.121584888460714038e-03
3.944467472884363360e+03 9.989757957720875048e-01 4.458269047140681930e-03
3.948411940357249023e+03 1.023041683453673523e+00 4.570596169749277689e-03
3.952360352297607733e+03 1.045916418671561710e+00 4.535913683977127464e-03
3.956312712649906643e+03 1.067725110969499402e+00 4.030288026802323308e-03
3.960269025362557841e+03 1.090124894728671467e+00 3.418724549391690716e-03
3.964229294387921527e+03 1.114421468729053011e+00 4.402659641751478954e-03
3.968193523682310570e+03 1.139067852526442826e+00 4.655879938152941537e-03
3.972161717205994591e+03 1.162996018763328809e+00 3.988204222335260847e-03
3.976133878923201792e+03 1.182726235142848914e+00 3.414545801670672721e-03
3.980110012802126221e+03 1.198456242269889893e+00 4.004933530144125231e-03
3.984090122814929600e+03 1.212175429323278930e+00 4.077377406069689243e-03
3.988074212937745870e+03 1.221682896659986861e+00 3.866958047235639212e-03
3.992062287150684824e+03 1.229421827216202079e+00 3.603156443336480962e-03
3.996054349437837118e+03 1.235865613397125751e+00 3.747350187603637472e-03
4.000050403787276082e+03 1.238623941800591988e+00 3.649564865250169796e-03
4.004050454191064546e+03 1.240488132838515112e+00 3.611119787293699725e-03
4.008054504645257111e+03 1.241097057134623594e+00 3.644266778452586852e-03
4.012062559149903791e+03 1.240737451969115668e+00 3.908336374314199529e-03
4.016074621709055009e+03 1.240610515220537557e+00 3.965077918527245594e-03
4.020090696330765240e+03 1.240419527902263841e+00 4.301820725461530728e-03
4.024110787027097558e+03 1.238754023192955689e+00 4.735707005041586530e-03
4.028134897814125907e+03 1.237048879357456999e+00 4.713891582945608019e-03
4.032163032711941469e+03 1.236148833806896885e+00 4.164384357957472832e-03
