# starting wavelength: 3626.438
# ending wavelength: 7350.848
# wav flux eflux
3.626818904944963379e+03 4.495158930893742300e-01 2.342575642501589506e-01
3.630445723849909427e+03 3.507819278941772811e-01 1.721267596910343589e-01
3.634076169573760581e+03 2.987600976835046440e-01 1.328948197557404398e-01
3.637710245743335690e+03 2.649855353327251195e-01 1.005661594843940132e-01
3.641347955989080219e+03 2.484164384996991881e-01 7.859543122490357525e-02
3.644989303945070333e+03 2.369054187333958783e-01 6.317268154917787815e-02
3.648634293249016537e+03 2.284553762874945160e-01 5.123791265296349234e-02
3.652282927542266862e+03 2.228785324421593272e-01 4.191214860546611798e-02
3.655935210469810499e+03 2.212740094032479565e-01 3.740863951596281461e-02
3.659591145680281443e+03 2.294965595301904360e-01 3.305369037959999395e-02
3.663250736825963031e+03 2.393710947132477451e-01 2.880648103424912274e-02
3.666913987562790226e+03 2.310847750893544605e-01 2.892897765982460276e-02
3.670580901550354156e+03 2.237277957908751502e-01 2.783887241427296030e-02
3.674251482451905758e+03 2.242435175194401331e-01 2.597408293838262758e-02
3.677925733934358959e+03 2.255603204337878476e-01 2.459234629358077878e-02
3.681603659668294313e+03 2.401415101011574182e-01 2.344391062550894855e-02
3.685285263327964003e+03 2.532617447409636346e-01 2.259264076397411725e-02
3.688970548591293209e+03 2.715831241353798831e-01 2.200776635641458340e-02
3.692659519139885560e+03 2.982686846997805175e-01 2.197974572421255296e-02
3.696352178659026777e+03 3.141453050330686447e-01 2.254352802092999056e-02
3.700048530837686940e+03 3.282688515915037630e-01 2.279640709689176314e-02
3.703748579368525952e+03 3.450992299136272923e-01 2.268176379939113377e-02
3.707452327947895355e+03 3.648335913990213841e-01 2.309282430823813431e-02
3.711159780275844696e+03 3.793673325184347966e-01 2.350069123710577315e-02
3.714870940056121526e+03 3.925394810818592650e-01 2.354386278121599341e-02
3.718585810996179134e+03 4.115418446043030420e-01 2.289295258701339736e-02
3.722304396807176545e+03 4.253240329667028474e-01 2.287395429029034574e-02
3.726026701203984885e+03 4.199962576197353581e-01 2.353640303397466771e-02
3.729752727905190113e+03 4.169852020724633124e-01 2.408307818260409586e-02
3.733482480633096657e+03 4.030705694728216049e-01 2.417115570812852082e-02
3.737215963113731050e+03 4.053712619588986654e-01 2.394696411672268821e-02
3.740953179076846027e+03 4.021486189933886068e-01 2.423800619644637597e-02
3.744694132255923705e+03 3.952474475946226029e-01 2.386588947958809270e-02
3.748438826388181042e+03 3.797907340946241050e-01 2.343173669539361584e-02
3.752187265214570289e+03 3.802440572562255650e-01 2.361707746699538008e-02
3.755939452479786269e+03 3.734462817143482938e-01 2.286145557801960715e-02
3.759695391932267285e+03 3.776151581993630324e-01 2.241286226617697844e-02
3.763455087324201031e+03 3.665613498034544504e-01 2.183914568260912278e-02
3.767218542411526414e+03 3.667914892847692898e-01 2.168156000865043703e-02
3.770985760953939007e+03 3.681037972175527639e-01 2.181384172813950750e-02
3.774756746714894234e+03 3.849464841224498057e-01 2.227410092212746620e-02
3.778531503461610555e+03 3.991232218411985833e-01 2.230551976993918814e-02
3.782310034965073100e+03 4.265830871877522856e-01 2.166914374959122425e-02
3.786092345000039586e+03 4.697005880904362440e-01 1.845419046717338210e-02
3.789878437345040766e+03 4.908082965138096387e-01 1.891172436312690830e-02
3.793668315782387253e+03 4.892974306259700312e-01 1.802406079884028706e-02
3.797461984098170888e+03 4.940935802405841959e-01 1.791657933978544129e-02
3.801259446082270188e+03 4.902636373836692929e-01 1.782717408340578000e-02
3.805060705528353537e+03 4.847873626943097203e-01 1.869397248214796359e-02
3.808865766233883278e+03 4.765463200364986052e-01 1.849392942196654774e-02
3.812674632000118436e+03 4.776665300251271007e-01 1.851140962338583204e-02
3.816487306632119726e+03 4.727398243298994163e-01 1.875886727716886276e-02
3.820303793938753188e+03 4.636706176140023561e-01 1.829700640360813063e-02
3.824124097732693372e+03 4.594656730430229374e-01 1.792624780362393408e-02
3.827948221830427428e+03 4.608806331321316230e-01 1.796063639253027769e-02
3.831776170052258749e+03 4.546308763297569611e-01 1.786699680346794453e-02
3.835607946222312421e+03 4.609818618003218016e-01 1.793889319857865094e-02
3.839443554168536139e+03 4.736356275552234263e-01 1.809858299689403455e-02
3.843282997722705659e+03 4.792390569436357772e-01 1.765814423663798066e-02
3.847126280720429804e+03 4.963760603243596026e-01 1.872628548205759746e-02
3.850973407001151372e+03 5.202339163931096744e-01 1.892690214599044088e-02
3.854824380408153957e+03 5.415252885957890783e-01 1.925579688131024911e-02
3.858679204788563311e+03 5.494448467722726770e-01 1.923532885887384650e-02
3.862537883993353262e+03 5.586781426085778435e-01 1.907271967921777417e-02
3.866400421877347981e+03 5.668700149902778929e-01 1.929112967914465085e-02
3.870266822299226533e+03 5.509689709255187751e-01 2.122645449423184866e-02
3.874137089121526969e+03 5.328781629511885054e-01 2.215264626044652699e-02
3.878011226210649966e+03 5.207806691746001970e-01 2.102002435994856921e-02
3.881889237436861549e+03 5.131587703261289990e-01 2.083995952979623978e-02
3.885771126674299921e+03 5.075510771233207041e-01 1.990080462823454188e-02
3.889656897800975457e+03 5.168916721610192777e-01 2.021925417314445958e-02
3.893546554698777527e+03 5.404067810658423898e-01 2.047612885328800938e-02
3.897440101253477678e+03 5.619889209204047553e-01 2.071817949665235442e-02
3.901337541354732366e+03 5.810967293811518664e-01 2.154591753012174635e-02
3.905238878896088409e+03 5.906433959647285903e-01 2.123917878604858131e-02
3.909144117774985716e+03 5.964929301496971759e-01 2.126842085984896949e-02
3.913053261892762293e+03 6.072758014399015636e-01 2.096964132406255524e-02
3.916966315154656058e+03 6.051184062647341211e-01 2.178916925494317827e-02
3.920883281469812118e+03 6.005130135402163560e-01 2.271381972664730450e-02
3.924804164751283224e+03 5.981261967616149366e-01 2.308795662312804892e-02
3.928728968916035683e+03 5.937769870727600541e-01 2.258662636887783307e-02
3.932657697884953450e+03 5.855317490788614077e-01 2.096237689104773344e-02
3.936590355582839493e+03 5.861151068172747447e-01 2.275184282733937538e-02
3.940526945938423523e+03 5.759986468499108669e-01 2.326041004614528770e-02
3.944467472884363360e+03 5.755131650312643732e-01 2.246210090055506675e-02
3.948411940357249023e+03 5.790100068764090224e-01 2.197029949648755809e-02
3.952360352297607733e+03 5.645321238408362863e-01 2.306545161998994203e-02
3.956312712649906643e+03 5.617304002163699961e-01 2.332326386997206347e-02
3.960269025362557841e+03 5.597356916364200075e-01 2.335137202826091316e-02
3.964229294387921527e+03 5.429633024881448389e-01 2.249551496102610709e-02
3.968193523682310570e+03 5.318496222347852687e-01 2.170703712820092057e-02
3.972161717205994591e+03 5.266124760174927255e-01 2.006205384404422323e-02
3.976133878923201792e+03 5.290599530445141419e-01 1.967280357611626840e-02
3.980110012802126221e+03 5.575531339965488220e-01 2.016577863112009247e-02
3.984090122814929600e+03 5.949586221205100944e-01 2.065221546493738528e-02
3.988074212937745870e+03 6.336015746218609523e-01 1.863509814042898713e-02
3.992062287150684824e+03 6.633432371826695206e-01 1.841057033343978036e-02
3.996054349437837118e+03 6.956862538523673756e-01 1.719344998632381383e-02
4.000050403787276082e+03 7.067468254555124840e-01 1.815146973586957702e-02
4.004050454191064546e+03 7.044973572636328285e-01 1.633051371773114671e-02
4.008054504645257111e+03 6.894498974014591219e-01 1.507987810527559175e-02
4.012062559149903791e+03 6.715630332134286951e-01 1.479555700839856047e-02
4.016074621709055009e+03 6.614431792505358620e-01 1.479747520302667450e-02
4.020090696330765240e+03 6.481288142487585668e-01 1.524944356262709216e-02
4.024110787027097558e+03 6.387190350442071285e-01 1.495103438479030745e-02
4.028134897814125907e+03 6.423610836225090992e-01 1.494938107524869039e-02
4.032163032711941469e+03 6.477303435034829082e-01 1.478876165557944586e-02
4.036195195744654484e+03 6.375372959206244694e-01 1.424593794526566627e-02
4.040231390940400615e+03 6.485559786112737868e-01 1.293672647194730324e-02
4.044271622331342314e+03 6.584082518385458993e-01 1.353926520589203431e-02
4.048315893953675186e+03 6.616932386751378514e-01 1.327609275818540657e-02
4.052364209847629809e+03 6.631325639686457274e-01 1.340212427868585354e-02
4.056416574057479011e+03 6.584200905530899206e-01 1.362324743216146786e-02
4.060472990631537868e+03 6.599365476607744752e-01 1.347181015086847469e-02
4.064533463622170530e+03 6.618266588788686011e-01 1.317004906026636099e-02
4.068597997085794304e+03 6.530238011765485684e-01 1.248255843783887577e-02
4.072666595082881486e+03 6.553413787806667834e-01 1.349604168475055689e-02
4.076739261677965715e+03 6.454488637422195474e-01 1.369812203121821732e-02
4.080816000939644709e+03 6.291938018175984304e-01 1.489668745515593425e-02
4.084896816940585722e+03 6.315058600676797251e-01 1.488825286272875761e-02
4.088981713757527814e+03 6.287502823443362754e-01 1.511906839492099287e-02
4.093070695471286854e+03 6.211939236143674270e-01 1.550205893593009122e-02
4.097163766166759160e+03 6.095949319478844997e-01 1.450495481383945462e-02
4.101260929932927866e+03 6.079600112680223489e-01 1.453180370456103390e-02
4.105362190862862008e+03 6.125908114342023536e-01 1.470481007183650768e-02
4.109467553053726078e+03 6.252867179828400790e-01 1.498745905470330771e-02
4.113577020606780934e+03 6.296388825417903456e-01 1.443434211690284262e-02
4.117690597627389252e+03 6.475375870336173012e-01 1.446365033130820980e-02
4.121808288225018259e+03 6.677883550349836828e-01 1.358473683120676664e-02
4.125930096513244280e+03 6.867859806297528236e-01 1.304649140474399387e-02
4.130056026609759101e+03 6.951278255998281086e-01 1.330620072919145094e-02
4.134186082636369974e+03 7.050474873783293406e-01 1.305601688857770983e-02
4.138320268719007800e+03 7.228956660078178498e-01 1.327356732646649967e-02
4.142458588987728035e+03 7.388165903645503851e-01 1.355176909932435947e-02
4.146601047576717065e+03 7.470867273155432642e-01 1.348555550065486629e-02
4.150747648624294925e+03 7.681316229917970473e-01 1.403263534232914583e-02
4.154898396272920763e+03 7.711943885290106770e-01 1.413572577367210904e-02
4.159053294669195566e+03 7.579423384059403856e-01 1.443638387389705076e-02
4.163212347963865795e+03 7.470861137453915779e-01 1.410600719188940221e-02
4.167375560311830668e+03 7.519548541658340746e-01 1.449055778856664194e-02
4.171542935872143971e+03 7.443702803608910346e-01 1.426791134587428352e-02
4.175714478808017702e+03 7.263428671257975422e-01 1.409119365074621051e-02
4.179890193286827525e+03 7.162130833226391102e-01 1.360173459065835283e-02
4.184070083480115500e+03 7.113346498790614758e-01 1.387138274951812966e-02
4.188254153563597356e+03 7.106107588837318190e-01 1.326171252476806596e-02
4.192442407717161586e+03 7.239003792009796046e-01 1.426044915609830412e-02
4.196634850124880359e+03 7.391477732490124852e-01 1.398301511724254868e-02
4.200831484975006788e+03 7.493266383840979650e-01 1.342709403242642492e-02
4.205032316459983122e+03 7.556220099634071152e-01 1.332766626151121910e-02
4.209237348776444378e+03 7.591040037673066898e-01 1.373597097870622036e-02
4.213446586125221984e+03 7.538157568680244891e-01 1.418908266711125729e-02
4.217660032711349231e+03 7.474913542517531706e-01 1.451066155555423565e-02
4.221877692744061278e+03 7.454719098724865711e-01 1.437024207226348868e-02
4.226099570436806971e+03 7.390993957637064238e-01 1.440935267526545493e-02
4.230325670007245208e+03 7.345036906611750460e-01 1.485088264385599731e-02
4.234555995677254032e+03 7.325530457284241681e-01 1.389745114491261133e-02
4.238790551672932452e+03 7.354257931817012039e-01 1.338212033026499326e-02
4.243029342224606808e+03 7.422943003629576264e-01 1.383328511742293668e-02
4.247272371566832589e+03 7.466373187590267246e-01 1.280274734540479652e-02
4.251519643938400804e+03 7.611344256596707103e-01 1.184810851108301921e-02
4.255771163582340705e+03 7.667054369230800193e-01 1.183607845127118870e-02
4.260026934745924336e+03 7.737272378894010094e-01 1.170791453181064395e-02
4.264286961680671993e+03 7.736768622956363695e-01 1.161846844208827209e-02
4.268551248642354039e+03 7.719465699583090146e-01 1.135038144370870312e-02
4.272819799890998183e+03 7.727869307014685329e-01 1.132322565672133456e-02
4.277092619690890388e+03 7.703321998083659805e-01 1.136983110534596844e-02
4.281369712310583054e+03 7.606031207050595322e-01 1.169532773581838728e-02
4.285651082022895025e+03 7.557971704176443817e-01 1.156041580481990787e-02
4.289936733104918858e+03 7.554294913456123250e-01 1.150972456784819624e-02
4.294226669838025373e+03 7.559257832518069264e-01 1.104386141748680411e-02
4.298520896507864563e+03 7.556006046747353322e-01 1.068797799419963189e-02
4.302819417404373780e+03 7.641842311506712448e-01 1.035580838736961488e-02
4.307122236821779552e+03 7.666782433586984968e-01 1.034526076316221940e-02
4.311429359058603040e+03 7.635728247646098588e-01 9.914605032168562898e-03
4.315740788417662770e+03 7.617735182925060577e-01 9.449514231857905275e-03
4.320056529206081905e+03 7.566676454024379161e-01 9.526359647168436764e-03
4.324376585735290064e+03 7.569139541326048715e-01 9.444443494346988974e-03
4.328700962321026054e+03 7.430098730819811870e-01 9.092752842624216014e-03
4.333029663283348782e+03 7.297033273629349726e-01 1.070560242014767169e-02
4.337362692946633615e+03 7.302116778631593252e-01 1.051118249681280356e-02
4.341700055639581478e+03 7.307252252216142052e-01 1.079547002841109091e-02
4.346041755695222491e+03 7.375144992303244162e-01 1.066723628831760771e-02
4.350387797450919606e+03 7.578265193469705396e-01 1.145460246312575599e-02
4.354738185248371337e+03 7.810510043808521763e-01 1.165987401230187022e-02
4.359092923433621763e+03 8.090083308802421547e-01 1.110121437219182758e-02
4.363452016357056891e+03 8.277903277360358913e-01 1.093292553011036838e-02
4.367815468373414660e+03 8.462131993419044207e-01 1.049870517384315222e-02
4.372183283841789489e+03 8.617718453583442795e-01 1.047309805414353354e-02
4.376555467125633186e+03 8.613023807443955793e-01 1.059433385133186183e-02
4.380932022592760404e+03 8.569435755361708429e-01 1.040983911966890732e-02
4.385312954615354101e+03 8.481442543768759057e-01 1.077334422865511808e-02
4.389698267569970994e+03 8.395958016609614827e-01 1.069270487430732872e-02
4.394087965837542470e+03 8.306767267131034416e-01 1.043800320052882050e-02
4.398482053803381859e+03 8.284603357611491914e-01 1.084619029142950067e-02
4.402880535857186260e+03 8.250219472214521677e-01 1.119421524797882019e-02
4.407283416393044718e+03 8.194523673222816607e-01 1.096759513743172237e-02
4.411690699809440048e+03 8.142529335995236650e-01 1.083457592312094681e-02
4.416102390509250654e+03 8.086361004368196603e-01 1.039946793569593818e-02
4.420518492899761441e+03 8.205599429402191669e-01 9.780826490075125723e-03
4.424939011392662906e+03 8.236014563357403340e-01 9.643414928985620527e-03
4.429363950404056595e+03 8.271445533281249762e-01 9.366250232363893327e-03
4.433793314354462382e+03 8.317414645914498195e-01 9.654478462746545267e-03
4.438227107668818462e+03 8.355766261389021565e-01 9.565353269356710944e-03
4.442665334776488635e+03 8.436903324692028860e-01 9.553808871572918443e-03
4.447108000111265937e+03 8.462557428673896931e-01 9.603271512026129858e-03
4.451555108111379013e+03 8.435727763377448563e-01 9.727574967109086507e-03
4.456006663219492111e+03 8.491372635549861991e-01 9.188885059315863787e-03
4.460462669882713271e+03 8.470860597737972508e-01 9.195037226940993430e-03
4.464923132552597053e+03 8.471348766082310577e-01 9.250317160559691498e-03
4.469388055685150903e+03 8.451519476650332097e-01 9.000587540569501485e-03
4.473857443740837880e+03 8.414113825985896078e-01 8.381474246781990545e-03
4.478331301184580298e+03 8.449134045514853364e-01 8.125472257978496107e-03
4.482809632485766087e+03 8.556965765514256139e-01 8.246154926312764671e-03
4.487292442118253348e+03 8.768223909846502018e-01 7.647440525325447346e-03
4.491779734560373072e+03 8.841794255007275893e-01 8.395909525502289264e-03
4.496271514294934605e+03 8.921273126664776010e-01 8.421739520903947715e-03
4.500767785809231100e+03 9.011571216694731490e-01 8.627916766456899048e-03
4.505268553595042249e+03 9.041647803209156287e-01 8.634580960522959120e-03
4.509773822148638828e+03 9.016713994151281941e-01 8.778668600260903371e-03
4.514283595970789065e+03 8.990838686074121844e-01 8.768879973133159381e-03
4.518797879566761367e+03 8.854532334000174698e-01 8.864363038624874236e-03
4.523316677446328868e+03 8.797454960771606824e-01 8.411719218810802604e-03
4.527839994123776705e+03 8.797523530565147798e-01 8.364372282229401434e-03
4.532367834117902021e+03 8.794072807042275786e-01 8.381794573081316480e-03
4.536900201952022144e+03 8.754553476562364489e-01 8.196925027921440204e-03
4.541437102153975502e+03 8.789142639242421007e-01 8.174920922348420313e-03
4.545978539256130716e+03 8.922345779310276725e-01 8.534867211402804785e-03
4.550524517795388419e+03 9.108960554864241610e-01 9.409899828709792843e-03
4.555075042313184895e+03 9.306897238735756250e-01 8.742778624868018100e-03
4.559630117355500261e+03 9.351073480859717346e-01 9.618731688597139534e-03
4.564189747472856652e+03 9.437410263629280038e-01 9.859052029956599794e-03
4.568753937220330954e+03 9.551673868446616256e-01 9.815978335889890063e-03
4.573322691157552981e+03 9.630936212125388307e-01 9.860207536473005949e-03
4.577896013848711846e+03 9.694928581704104209e-01 9.544470932744566691e-03
4.582473909862562323e+03 9.778915838802560989e-01 8.993358933857607471e-03
4.587056383772426670e+03 9.854901674104691311e-01 9.098412997351401285e-03
4.591643440156200086e+03 9.868877124105139842e-01 9.417491361565102567e-03
4.596235083596357981e+03 9.860725244549649604e-01 9.513674830206240302e-03
4.600831318679955984e+03 9.898482866451413509e-01 9.404209208594782252e-03
4.605432149998637215e+03 9.907215730502434425e-01 9.173020732547422507e-03
4.610037582148637739e+03 9.943553947226643208e-01 8.900289528329576733e-03
4.614647619730787483e+03 1.004087873701808187e+00 8.798486559903168427e-03
4.619262267350520233e+03 1.011998328551197091e+00 9.121461769917812643e-03
4.623881529617872729e+03 1.013213093746377247e+00 9.089460044447958062e-03
4.628505411147491941e+03 1.011661708627087153e+00 8.867656957177042290e-03
4.633133916558640522e+03 1.015328902936181388e+00 8.905998493537315222e-03
4.637767050475200449e+03 1.019590764461461907e+00 8.293817176678517505e-03
4.642404817525677572e+03 1.018411624464527820e+00 8.508098180063880869e-03
4.647047222343205249e+03 1.017143648189634764e+00 8.283011430348822396e-03
4.651694269565549803e+03 1.013320315852029418e+00 7.809680678694627676e-03
4.656345963835116891e+03 1.015521912302529417e+00 8.235627742397257089e-03
4.661002309798953320e+03 1.005654103501953944e+00 8.164561315874237224e-03
4.665663312108753416e+03 1.000900551727078147e+00 7.895267837385568088e-03
4.670328975420864481e+03 9.971387386848010737e-01 7.891537027559587109e-03
4.674999304396286789e+03 9.965994485872644582e-01 7.798443284333224021e-03
4.679674303700684504e+03 9.930234625127508652e-01 7.422894908778674035e-03
4.684353978004386590e+03 9.834378845337039543e-01 7.361118704016704137e-03
4.689038331982392265e+03 9.796223483519469477e-01 7.282376782748589163e-03
4.693727370314376458e+03 9.755654032767202555e-01 7.244429097915326167e-03
4.698421097684692540e+03 9.714599684960627535e-01 7.285226747418879073e-03
4.703119518782378691e+03 9.651517118611949719e-01 7.595757336656092616e-03
4.707822638301162442e+03 9.641222888558836912e-01 7.716215668958846009e-03
4.712530460939465229e+03 9.673095177734768457e-01 8.428564934995363619e-03
4.717242991400406027e+03 9.672322389313164903e-01 8.103996100593931218e-03
4.721960234391808626e+03 9.593639558053895788e-01 8.546423173760182498e-03
