# starting wavelength: 3194.168
# ending wavelength: 9854.193
# wav flux eflux
3.194464240913438971e+03 8.106869739780387940e-01 7.621719817027940158e-02
3.197658705154353811e+03 8.051770648189505719e-01 5.557777292068865477e-02
3.200856363859509202e+03 8.014212488528480449e-01 4.104081632524023832e-02
3.204057220223369768e+03 7.911495739501387403e-01 3.139781638288398347e-02
3.207261277443593826e+03 7.810751863590782440e-01 2.420811288697117744e-02
3.210468538721038840e+03 7.730967884305602889e-01 1.892643061357070222e-02
3.213679007259760965e+03 7.646278237376943343e-01 1.513167840224303312e-02
3.216892686267021418e+03 7.575934028146238397e-01 1.239875138100428840e-02
3.220109578953289656e+03 7.529903751828886938e-01 1.034329087572416310e-02
3.223329688532243836e+03 7.498176237673510602e-01 8.784794735056009399e-03
3.226553018220777176e+03 7.467723206324259344e-01 7.670813276147897368e-03
3.229779571238999324e+03 7.483477725586902274e-01 7.070145932961959326e-03
3.233009350810239084e+03 7.533189608185117958e-01 6.789167990087068352e-03
3.236242360161050783e+03 7.562011975474524084e-01 6.197818614748421343e-03
3.239478602521212906e+03 7.608833944476092181e-01 5.760589838384466872e-03
3.242718081123734919e+03 7.679585688436645352e-01 5.641746310667498238e-03
3.245960799204859995e+03 7.707094678251402708e-01 5.457202775504162162e-03
3.249206760004065927e+03 7.722887238370015339e-01 5.306438152253291698e-03
3.252455966764071036e+03 7.784443369867201090e-01 5.296880432217093183e-03
3.255708422730835991e+03 7.813578687954866320e-01 5.188540275263517874e-03
3.258964131153567905e+03 7.813687439139591628e-01 5.122784829435449161e-03
3.262223095284722604e+03 7.796622815581466526e-01 5.076122299325292603e-03
3.265485318380008266e+03 7.791353916823378079e-01 4.949017509876228911e-03
3.268750803698389518e+03 7.770019517031739875e-01 5.091049357453674568e-03
3.272019554502088795e+03 7.724915205475414437e-01 5.420202673581587041e-03
3.275291574056592253e+03 7.676315268025063476e-01 5.500300517665286139e-03
3.278566865630649772e+03 7.635576074998282614e-01 5.284747621411161472e-03
3.281845432496281319e+03 7.554299859956081775e-01 4.844659692191646307e-03
3.285127277928778767e+03 7.501986728319945952e-01 4.781220899461174900e-03
3.288412405206708627e+03 7.435596608227043047e-01 4.932148665015620610e-03
3.291700817611916591e+03 7.398334758885154461e-01 4.770093800360334854e-03
3.294992518429529355e+03 7.366460976074249434e-01 4.558342526291124346e-03
3.298287510947960072e+03 7.356575739761470611e-01 4.580392194851255760e-03
3.301585798458909267e+03 7.362213826431343033e-01 4.587148361554508648e-03
3.304887384257369376e+03 7.385658214159649404e-01 4.643943884882002944e-03
3.308192271641627485e+03 7.439504817867809150e-01 4.852226520159550263e-03
3.311500463913270323e+03 7.438174369960612875e-01 4.832946280029046249e-03
3.314811964377184722e+03 7.468293648618155034e-01 4.922624268433351512e-03
3.318126776341563072e+03 7.477159755393304463e-01 4.914236214186146895e-03
3.321444903117905596e+03 7.471229556023907259e-01 4.848856197101885507e-03
3.324766348021024896e+03 7.455268947512561084e-01 4.920531008825390629e-03
3.328091114369046863e+03 7.445788582129437838e-01 4.966862432534855862e-03
3.331419205483417045e+03 7.430564821760071714e-01 4.963609498673833033e-03
3.334750624688901553e+03 7.427799362679486928e-01 4.896104608664979610e-03
3.338085375313591612e+03 7.416994536919676584e-01 4.886826738700308752e-03
3.341423460688906289e+03 7.374553408829763734e-01 4.828906664339749875e-03
3.344764884149596128e+03 7.304644133017579311e-01 4.741397004712461817e-03
3.348109649033746791e+03 7.259396389933949756e-01 4.645157403306681039e-03
3.351457758682781787e+03 7.235003042673660012e-01 4.593182255533987540e-03
3.354809216441465651e+03 7.197904518512147076e-01 4.362282065289070469e-03
3.358164025657908041e+03 7.174953845544866926e-01 4.433118730758019849e-03
3.361522189683567376e+03 7.155808179206580855e-01 4.430300179575506238e-03
3.364883711873251741e+03 7.107933961755238395e-01 4.324116344842622583e-03
3.368248595585126168e+03 7.107431251754899870e-01 4.276503055588310072e-03
3.371616844180712633e+03 7.108514214450600832e-01 3.971410681966059016e-03
3.374988461024894150e+03 7.073912952444717517e-01 4.112931619582096791e-03
3.378363449485920228e+03 7.033457875427120420e-01 4.242484319669490023e-03
3.381741812935407324e+03 7.006463209449259599e-01 4.427132723998324255e-03
3.385123554748343849e+03 7.006387577754767948e-01 4.373259117584945253e-03
3.388508678303093347e+03 6.992890464461227751e-01 4.266830297218362003e-03
3.391897186981397681e+03 6.990479111762641917e-01 4.274498600129016633e-03
3.395289084168380214e+03 7.003096360170667500e-01 4.228624010977748496e-03
3.398684373252549449e+03 7.000568262528806818e-01 4.067713561471644930e-03
3.402083057625803121e+03 7.012936066184218831e-01 4.024737338499616811e-03
3.405485140683430018e+03 7.017214490776692015e-01 3.891468751702110637e-03
3.408890625824114522e+03 7.021852783942430509e-01 3.790208382480642416e-03
3.412299516449939802e+03 7.033381446598594433e-01 3.775376284554007953e-03
3.415711815966390986e+03 7.063556728401702012e-01 3.803151495553180363e-03
3.419127527782358356e+03 7.117430351466389471e-01 3.794988136997903914e-03
3.422546655310141887e+03 7.161373724605166746e-01 3.574724998431949140e-03
3.425969201965453522e+03 7.189252194047496269e-01 3.544160790453529213e-03
3.429395171167419903e+03 7.223964472414866611e-01 3.433610173365254578e-03
3.432824566338588284e+03 7.243049510315456851e-01 3.487028501940702199e-03
3.436257390904928343e+03 7.251265627609252418e-01 3.351835114068817383e-03
3.439693648295834464e+03 7.277659604151069939e-01 3.280517840989064567e-03
3.443133341944131189e+03 7.305134801848176540e-01 3.287294810916181927e-03
3.446576475286076402e+03 7.332981701313031619e-01 3.340978059786886036e-03
3.450023051761363604e+03 7.389916348913561084e-01 3.548362418077413184e-03
3.453473074813126004e+03 7.392478060947978991e-01 3.399013021486246150e-03
3.456926547887940615e+03 7.386592125677111653e-01 3.243331099698728345e-03
3.460383474435829612e+03 7.418903925727439175e-01 3.411830590658289884e-03
3.463843857910266706e+03 7.448166574922248095e-01 3.473612069850648756e-03
3.467307701768178049e+03 7.460781762424639751e-01 3.466395447911673183e-03
3.470775009469947236e+03 7.491200377545088607e-01 3.455647087234989256e-03
3.474245784479418489e+03 7.500355763863688630e-01 3.427650657132094367e-03
3.477720030263898934e+03 7.513317215348391809e-01 3.180589433244150350e-03
3.481197750294164052e+03 7.502607166553750817e-01 3.185959309007008709e-03
3.484678948044459503e+03 7.465263650462684586e-01 3.145637477539250070e-03
3.488163626992504760e+03 7.445463237794781586e-01 3.094442364063837436e-03
3.491651790619498570e+03 7.420729282843372410e-01 3.044969336335357803e-03
3.495143442410119405e+03 7.388855695565417214e-01 3.017053926152273805e-03
3.498638585852530468e+03 7.347716066988160266e-01 2.947717957222460890e-03
3.502137224438384237e+03 7.311706827884785209e-01 2.834921848893941047e-03
3.505639361662823831e+03 7.319934735931937775e-01 3.164396050958507255e-03
3.509145001024487556e+03 7.313670142812893626e-01 3.197813197307722982e-03
3.512654146025513455e+03 7.280756471271537800e-01 3.187046675549795160e-03
3.516166800171540217e+03 7.263745318614122093e-01 3.205382183973710507e-03
3.519682966971712631e+03 7.249131434753853798e-01 3.195377517652749338e-03
3.523202649938685681e+03 7.276540732842406989e-01 3.027468428447435689e-03
3.526725852588625457e+03 7.269441141596026945e-01 3.121095283561747379e-03
3.530252578441215064e+03 7.258806068298836456e-01 3.168257416662381958e-03
3.533782831019657806e+03 7.264557590233642337e-01 3.198721782940944138e-03
3.537316613850678550e+03 7.263533907459854833e-01 3.199352650917554157e-03
3.540853930464530094e+03 7.274458043431163423e-01 3.192214649890586734e-03
3.544394784394995895e+03 7.274653759540412601e-01 3.222760084263089422e-03
3.547939179179392340e+03 7.257560929126047888e-01 3.216151376824124414e-03
3.551487118358572843e+03 7.258154007980559541e-01 3.245604943348314418e-03
3.555038605476932389e+03 7.287022820364021936e-01 3.208455670169343878e-03
3.558593644082410719e+03 7.276853172233658240e-01 3.042054530368488042e-03
3.562152237726494150e+03 7.298998404340369950e-01 3.025638581099828178e-03
3.565714389964221937e+03 7.326178660591713410e-01 2.979158894630427878e-03
3.569280104354187188e+03 7.352352009123901411e-01 3.099617797105607905e-03
3.572849384458542772e+03 7.375241225739630480e-01 2.971287450193044275e-03
3.576422233843002232e+03 7.384439356629505236e-01 2.901976900495151224e-03
3.579998656076846601e+03 7.395892115186911697e-01 2.919776747534452970e-03
3.583578654732924406e+03 7.399563060450348173e-01 2.931782270006592570e-03
3.587162233387658489e+03 7.386279770170079972e-01 3.041772068412515115e-03
3.590749395621047370e+03 7.392556203418366723e-01 3.067716566755905941e-03
3.594340145016669794e+03 7.390382084469111490e-01 2.964146165208610215e-03
3.597934485161687462e+03 7.393508967149683420e-01 2.831939484640515117e-03
3.601532419646850485e+03 7.400782833928188920e-01 2.824039064960192150e-03
3.605133952066498296e+03 7.462242214334250390e-01 2.809997798277445724e-03
3.608739086018566013e+03 7.488263424421036651e-01 2.834799562872425578e-03
3.612347825104585809e+03 7.496094345681778570e-01 2.795310881247482608e-03
3.615960172929691907e+03 7.509177998372731366e-01 2.744081745296994904e-03
3.619576133102622407e+03 7.506729699767310526e-01 2.812845606642086840e-03
3.623195709235726554e+03 7.512285930578149751e-01 2.724490325201260436e-03
3.626818904944963379e+03 7.486376567125715420e-01 2.805381160723494430e-03
3.630445723849909427e+03 7.493123486416173318e-01 2.913423688986599598e-03
3.634076169573760581e+03 7.519855413279598055e-01 2.950644117947489545e-03
3.637710245743335690e+03 7.568281261546272454e-01 3.041164191929000317e-03
3.641347955989080219e+03 7.594880611641017243e-01 2.977384475157254275e-03
3.644989303945070333e+03 7.635637908456311962e-01 3.141702646048498242e-03
3.648634293249016537e+03 7.674169772036125714e-01 3.174874460288458662e-03
3.652282927542266862e+03 7.701789250334696302e-01 3.175770275585104718e-03
3.655935210469810499e+03 7.732308106071171805e-01 3.263691243528698497e-03
3.659591145680281443e+03 7.758885831216243423e-01 3.212512544522743568e-03
3.663250736825963031e+03 7.765180183645337131e-01 3.163954262288321342e-03
3.666913987562790226e+03 7.778541442036609466e-01 3.072007042607778713e-03
3.670580901550354156e+03 7.752822013069575746e-01 3.414148756313806383e-03
3.674251482451905758e+03 7.747488450985551278e-01 3.529236431929817265e-03
3.677925733934358959e+03 7.779494720346133985e-01 4.400494285704394624e-03
3.681603659668294313e+03 7.885191555192382351e-01 9.364280688634958952e-03
3.685285263327964003e+03 7.819127410577703108e-01 9.934306820194865537e-03
3.688970548591293209e+03 7.469737342161122395e-01 1.703564837648331373e-02
3.692659519139885560e+03 7.335146213171361840e-01 1.889644206002324620e-02
3.696352178659026777e+03 7.393612217389941010e-01 1.874958005036129333e-02
3.700048530837686940e+03 7.579109906871618341e-01 1.890749318066646881e-02
3.703748579368525952e+03 7.880750939350843476e-01 1.939228385764540583e-02
3.707452327947895355e+03 8.220615197229680371e-01 2.026752066018491436e-02
3.711159780275844696e+03 8.610691661083130777e-01 2.118245061551516858e-02
3.714870940056121526e+03 8.952421902708532775e-01 2.191747559423171815e-02
3.718585810996179134e+03 9.218079834120241900e-01 2.224062906273207782e-02
3.722304396807176545e+03 9.410305527498327161e-01 2.251483048495448239e-02
3.726026701203984885e+03 9.509762700831919657e-01 2.280787522665956440e-02
3.729752727905190113e+03 9.545740204998104383e-01 2.336249701034608800e-02
3.733482480633096657e+03 9.486636800821452997e-01 2.331116851788683775e-02
3.737215963113731050e+03 9.377756197117572690e-01 2.361922026531233093e-02
3.740953179076846027e+03 9.207076382269662185e-01 2.321373145447616637e-02
3.744694132255923705e+03 9.005392658106551318e-01 2.293261439135457422e-02
3.748438826388181042e+03 8.770265760755693307e-01 2.177697924679670299e-02
3.752187265214570289e+03 8.571076027895176974e-01 2.069413268637242467e-02
3.755939452479786269e+03 8.513153770145933663e-01 2.013532024632082307e-02
3.759695391932267285e+03 8.573055926178354547e-01 2.109030959554697784e-02
3.763455087324201031e+03 8.924703278048479183e-01 2.068143992526376776e-02
3.767218542411526414e+03 9.452503384562011002e-01 1.275115410270287811e-02
3.770985760953939007e+03 9.724650530169640650e-01 9.985462663991809956e-03
3.774756746714894234e+03 9.666021861642849489e-01 6.611517770870130664e-03
3.778531503461610555e+03 9.643431101543511463e-01 6.570375700789202536e-03
3.782310034965073100e+03 9.643755657538979342e-01 7.105139872563053828e-03
3.786092345000039586e+03 9.590903191858229926e-01 6.750075567531294007e-03
3.789878437345040766e+03 9.558807533949776891e-01 6.293626050654005377e-03
3.793668315782387253e+03 9.532305526047443189e-01 6.147025247508891392e-03
3.797461984098170888e+03 9.598233896386387798e-01 6.616777714478561286e-03
3.801259446082270188e+03 9.682251606655609688e-01 7.528853856815922313e-03
3.805060705528353537e+03 9.706634169574557269e-01 7.965721545054238115e-03
3.808865766233883278e+03 9.697996190024562591e-01 8.012016061650100232e-03
3.812674632000118436e+03 9.715404946220856930e-01 7.735487956893592233e-03
3.816487306632119726e+03 9.723280104834041149e-01 7.396775406602275685e-03
3.820303793938753188e+03 9.700781305700485468e-01 7.706442103033566901e-03
3.824124097732693372e+03 9.704567415302782774e-01 7.774435925864346675e-03
3.827948221830427428e+03 9.704709233949428970e-01 8.126027901961707656e-03
3.831776170052258749e+03 9.578393250182952734e-01 8.507680112887541432e-03
3.835607946222312421e+03 9.349643107713376811e-01 9.971175565115623224e-03
3.839443554168536139e+03 9.371193084237743331e-01 9.915865908920930977e-03
3.843282997722705659e+03 9.581669468031552839e-01 1.032725924288299332e-02
3.847126280720429804e+03 9.858683082176470380e-01 1.064312955110008167e-02
3.850973407001151372e+03 1.023935805056210846e+00 1.161403462194851577e-02
3.854824380408153957e+03 1.064195621957175764e+00 1.257206808932524039e-02
3.858679204788563311e+03 1.095765479834102551e+00 1.250643540570911191e-02
3.862537883993353262e+03 1.114841542962670129e+00 1.231397219581158858e-02
3.866400421877347981e+03 1.119678974885796485e+00 1.245465881579247910e-02
3.870266822299226533e+03 1.112858211279168730e+00 1.291606942609997352e-02
3.874137089121526969e+03 1.100889028668449399e+00 1.352465381619483153e-02
3.878011226210649966e+03 1.090620846552054601e+00 1.372294629694308966e-02
3.881889237436861549e+03 1.081171073671222116e+00 1.354389117763264185e-02
3.885771126674299921e+03 1.075865322194301754e+00 1.275423723907265737e-02
3.889656897800975457e+03 1.074715759726887931e+00 1.250038213920752136e-02
3.893546554698777527e+03 1.082258038052754445e+00 1.214857558116660442e-02
3.897440101253477678e+03 1.099946450956817090e+00 1.230756821214609546e-02
3.901337541354732366e+03 1.147603530795767712e+00 1.200708677077275827e-02
3.905238878896088409e+03 1.197742101220918398e+00 6.768271238265550702e-03
3.909144117774985716e+03 1.217749673274890476e+00 6.537918686772764727e-03
3.913053261892762293e+03 1.225732403081537747e+00 6.375934004495315346e-03
3.916966315154656058e+03 1.228976228635841439e+00 6.508577622094060058e-03
3.920883281469812118e+03 1.217917053733427846e+00 6.548596636546405274e-03
3.924804164751283224e+03 1.198607626474564647e+00 6.439977302859162603e-03
3.928728968916035683e+03 1.186729141677205002e+00 6.459604836356643530e-03
3.932657697884953450e+03 1.173175701979989549e+00 6.079352432470422861e-03
3.936590355582839493e+03 1.168028493083875352e+00 6.492246183170949890e-03
3.940526945938423523e+03 1.167304498363829657e+00 7.954194994812688324e-03
3.944467472884363360e+03 1.161349967711752917e+00 8.106658424089743450e-03
3.948411940357249023e+03 1.150580897078463671e+00 8.027848334622883844e-03
3.952360352297607733e+03 1.136538089880594127e+00 8.053682162410478670e-03
3.956312712649906643e+03 1.122539742876617730e+00 8.084538594104968834e-03
3.960269025362557841e+03 1.111371541632907745e+00 8.075542682322073632e-03
3.964229294387921527e+03 1.095467513782135249e+00 8.080813457974107480e-03
3.968193523682310570e+03 1.076653083246089881e+00 7.248500038174823280e-03
3.972161717205994591e+03 1.059581492210018183e+00 5.640193013350286097e-03
3.976133878923201792e+03 1.056386535010140459e+00 5.898113973575659294e-03
3.980110012802126221e+03 1.056985140162942871e+00 6.006782695081281168e-03
3.984090122814929600e+03 1.060720709674018103e+00 6.227802969322678711e-03
3.988074212937745870e+03 1.064610394031496821e+00 5.909467413765475720e-03
3.992062287150684824e+03 1.074776655060452946e+00 4.911382687385796447e-03
3.996054349437837118e+03 1.081109451078914541e+00 4.720296534724901204e-03
4.000050403787276082e+03 1.081791624479856440e+00 4.643108007199142281e-03
4.004050454191064546e+03 1.078022616824331203e+00 4.316076544322896072e-03
4.008054504645257111e+03 1.073220045445253845e+00 3.241752855279569911e-03
4.012062559149903791e+03 1.074503605145421536e+00 4.428707649764085895e-03
4.016074621709055009e+03 1.073308107381636400e+00 3.975166962213919249e-03
4.020090696330765240e+03 1.065020236822495026e+00 3.928613852373340383e-03
4.024110787027097558e+03 1.055726197120861132e+00 3.854474292288796559e-03
4.028134897814125907e+03 1.043928912620330163e+00 3.846054017787525585e-03
4.032163032711941469e+03 1.027253761998841775e+00 4.099603001566938694e-03
4.036195195744654484e+03 1.004927482262848004e+00 4.706895801617800787e-03
4.040231390940400615e+03 9.861434062045857374e-01 4.729535065591269384e-03
4.044271622331342314e+03 9.727527552008075062e-01 4.462037613842443316e-03
4.048315893953675186e+03 9.652544363370358926e-01 4.944879334706782370e-03
4.052364209847629809e+03 9.610482587950890387e-01 5.343446980293179056e-03
4.056416574057479011e+03 9.547893264903177801e-01 5.381692113307850502e-03
4.060472990631537868e+03 9.518774408977395129e-01 5.265392810578289201e-03
4.064533463622170530e+03 9.517286973300337349e-01 5.210503934489900402e-03
4.068597997085794304e+03 9.544566923385547907e-01 5.255520449074985168e-03
4.072666595082881486e+03 9.563395574320190384e-01 5.356042629645767043e-03
4.076739261677965715e+03 9.510592959437846883e-01 5.340170118099055695e-03
4.080816000939644709e+03 9.376357464169037259e-01 5.472365309738312124e-03
4.084896816940585722e+03 9.240877191841686544e-01 5.437383819153457365e-03
4.088981713757527814e+03 9.128849543897306074e-01 5.516498187778760311e-03
4.093070695471286854e+03 8.987119095214739506e-01 5.681219914061843082e-03
4.097163766166759160e+03 8.897489480758080660e-01 5.342157406631158588e-03
4.101260929932927866e+03 8.864819033328154019e-01 5.381151565684448752e-03
4.105362190862862008e+03 8.902573644471671876e-01 5.181157337475410067e-03
4.109467553053726078e+03 8.929655263485878347e-01 5.118964221936806759e-03
4.113577020606780934e+03 8.973216766013427659e-01 5.016929156581750003e-03
4.117690597627389252e+03 9.042675110011109130e-01 5.031690526885135469e-03
4.121808288225018259e+03 9.149393340300084887e-01 5.050770579535822542e-03
4.125930096513244280e+03 9.302904765569569578e-01 4.377945789636314075e-03
4.130056026609759101e+03 9.406817473318067613e-01 4.089611918376497186e-03
4.134186082636369974e+03 9.474136285839113159e-01 4.064910531139881780e-03
4.138320268719007800e+03 9.480137050825029332e-01 3.439297907622034835e-03
4.142458588987728035e+03 9.488514910054280938e-01 2.947197521040723512e-03
4.146601047576717065e+03 9.508413755651915489e-01 2.866761888170055519e-03
4.150747648624294925e+03 9.560474020939544459e-01 2.781844773255090063e-03
4.154898396272920763e+03 9.623917567569891807e-01 2.959162098423454706e-03
4.159053294669195566e+03 9.645771861631322608e-01 2.950144592216890575e-03
