# starting wavelength: 3434.740
# ending wavelength: 9374.407
# wav flux eflux
3.436257390904928343e+03 9.936838632983537867e-01 4.488868856101243532e-01
3.439693648295834464e+03 9.473687120797177341e-01 3.393967775469429737e-01
3.443133341944131189e+03 9.178330066851752012e-01 2.588889618737188481e-01
3.446576475286076402e+03 8.781032729595708020e-01 2.036777325552517892e-01
3.450023051761363604e+03 8.827618586584737859e-01 1.530502670831962175e-01
3.453473074813126004e+03 9.032266316024262220e-01 1.217963141932597304e-01
3.456926547887940615e+03 9.253205356229103895e-01 1.003041414929152220e-01
3.460383474435829612e+03 9.479776609863523884e-01 8.330473671469550145e-02
3.463843857910266706e+03 9.769122589325487382e-01 6.899458200303110189e-02
3.467307701768178049e+03 9.983731491567038319e-01 5.918446671658860597e-02
3.470775009469947236e+03 1.031023788100160044e+00 5.181516269227749716e-02
3.474245784479418489e+03 1.062971785611110054e+00 4.585730760002442591e-02
3.477720030263898934e+03 1.094105200161029856e+00 4.159500938652158086e-02
3.481197750294164052e+03 1.116449658937997302e+00 3.836120700257780736e-02
3.484678948044459503e+03 1.127674515813202882e+00 3.671806588081293760e-02
3.488163626992504760e+03 1.139609817066761011e+00 3.502588376980621948e-02
3.491651790619498570e+03 1.135018152104338096e+00 3.366467979869140065e-02
3.495143442410119405e+03 1.128111025658232514e+00 3.297334847230354304e-02
3.498638585852530468e+03 1.127332211143832419e+00 3.174828955221879745e-02
3.502137224438384237e+03 1.119926318981119051e+00 3.169651588917719864e-02
3.505639361662823831e+03 1.111464345066544457e+00 3.079329662298204220e-02
3.509145001024487556e+03 1.101694928647761085e+00 3.021782589212338929e-02
3.512654146025513455e+03 1.095763320850701383e+00 3.011428056821243565e-02
3.516166800171540217e+03 1.077665785086446615e+00 2.914523139903078125e-02
3.519682966971712631e+03 1.061552045315902859e+00 2.800319209627614644e-02
3.523202649938685681e+03 1.051942952266176068e+00 2.719712219576635170e-02
3.526725852588625457e+03 1.020490631062639375e+00 2.653319715107789120e-02
3.530252578441215064e+03 9.993686531402724560e-01 2.540888722251919210e-02
3.533782831019657806e+03 9.709599728223635706e-01 2.495391081457073307e-02
3.537316613850678550e+03 9.612744706660578675e-01 2.485884532514625114e-02
3.540853930464530094e+03 9.437286811352457727e-01 2.395302670423196667e-02
3.544394784394995895e+03 9.377930364408574304e-01 2.308829090162613923e-02
3.547939179179392340e+03 9.268020524765231416e-01 2.266714968490007170e-02
3.551487118358572843e+03 9.178549727657374646e-01 2.236400243977041194e-02
3.555038605476932389e+03 9.073581030253361490e-01 2.157208202469683422e-02
3.558593644082410719e+03 8.993902984730504091e-01 2.053760575931716514e-02
3.562152237726494150e+03 8.904722069675276019e-01 2.006384968881724101e-02
3.565714389964221937e+03 8.722109803284501250e-01 2.022927310822164940e-02
3.569280104354187188e+03 8.538537261996059780e-01 2.020705234214134963e-02
3.572849384458542772e+03 8.475826319560696431e-01 1.965808262925211602e-02
3.576422233843002232e+03 8.381431813634087069e-01 1.924615848974888660e-02
3.579998656076846601e+03 8.251108834282168125e-01 1.926303788039643305e-02
3.583578654732924406e+03 8.061566261702215463e-01 1.973642826774188105e-02
3.587162233387658489e+03 8.082813480526435113e-01 1.966184067512891445e-02
3.590749395621047370e+03 8.051928584153392743e-01 1.935537040957597058e-02
3.594340145016669794e+03 8.037565525627392571e-01 1.932330873886509495e-02
3.597934485161687462e+03 8.059533879773221887e-01 1.896568053708922244e-02
3.601532419646850485e+03 8.068188704898764385e-01 1.898058567227426871e-02
3.605133952066498296e+03 8.112165568779390323e-01 1.911131171795801831e-02
3.608739086018566013e+03 7.994916197209021025e-01 1.980361540902147652e-02
3.612347825104585809e+03 8.007683024952754192e-01 1.967829328292112351e-02
3.615960172929691907e+03 7.967115459806255462e-01 1.936109425495501080e-02
3.619576133102622407e+03 8.022222263347444926e-01 1.922966028425769636e-02
3.623195709235726554e+03 8.063656680293849188e-01 1.893658419462108944e-02
3.626818904944963379e+03 8.083345050790140540e-01 1.838925490832852769e-02
3.630445723849909427e+03 8.031409444883925719e-01 1.857946671206515271e-02
3.634076169573760581e+03 8.021731819816126929e-01 1.835220891810674868e-02
3.637710245743335690e+03 8.078324542829048438e-01 1.803117482777089747e-02
3.641347955989080219e+03 8.106139347240735038e-01 1.781729187891029770e-02
3.644989303945070333e+03 8.053450122757822571e-01 1.816065112245155572e-02
3.648634293249016537e+03 8.043643457774434236e-01 1.773039351252145637e-02
3.652282927542266862e+03 8.023328854320913583e-01 1.773984779434259473e-02
3.655935210469810499e+03 8.041572102276874912e-01 1.726080352532628065e-02
3.659591145680281443e+03 8.109481182441624636e-01 1.716427278508087656e-02
3.663250736825963031e+03 8.169013011941401725e-01 1.687199830088906977e-02
3.666913987562790226e+03 8.320537021692875346e-01 1.706206412060478142e-02
3.670580901550354156e+03 8.474366776467701090e-01 1.695249956503950411e-02
3.674251482451905758e+03 8.590747151150329719e-01 1.715838817167967059e-02
3.677925733934358959e+03 8.796846231412180916e-01 1.754985865662417321e-02
3.681603659668294313e+03 8.962833934059807328e-01 1.776029267170187512e-02
3.685285263327964003e+03 9.068394025414326931e-01 1.741455649522682600e-02
3.688970548591293209e+03 9.213184044766600245e-01 1.742939773258833994e-02
3.692659519139885560e+03 9.326877885763519282e-01 1.738365428147867209e-02
3.696352178659026777e+03 9.464885205999726825e-01 1.741550478555196554e-02
3.700048530837686940e+03 9.513466892350801452e-01 1.709005305102509822e-02
3.703748579368525952e+03 9.683751902804688116e-01 1.661192596231996291e-02
3.707452327947895355e+03 9.653249238152150635e-01 1.661533655399255113e-02
3.711159780275844696e+03 9.651571313149654996e-01 1.650345595933794957e-02
3.714870940056121526e+03 9.601935137565024148e-01 1.667471532099156634e-02
3.718585810996179134e+03 9.607690632782159845e-01 1.643070768759525083e-02
3.722304396807176545e+03 9.524655398218886404e-01 1.541705649648205875e-02
3.726026701203984885e+03 9.519165856710358753e-01 1.468059313199080243e-02
3.729752727905190113e+03 9.502786270244640843e-01 1.403249423124741137e-02
3.733482480633096657e+03 9.488606445421731150e-01 1.419949340438841218e-02
3.737215963113731050e+03 9.504210865040404466e-01 1.422116703690402655e-02
3.740953179076846027e+03 9.522917973260207614e-01 1.409765661217954671e-02
3.744694132255923705e+03 9.620256911110288689e-01 1.424193968865114859e-02
3.748438826388181042e+03 9.800048528217758514e-01 1.406828245101707751e-02
3.752187265214570289e+03 9.968589850484657067e-01 1.451151025088692585e-02
3.755939452479786269e+03 1.002741204815558174e+00 1.444830147840929155e-02
3.759695391932267285e+03 1.011827682175361787e+00 1.408541643915657907e-02
3.763455087324201031e+03 1.013055437027424510e+00 1.392529830388003834e-02
3.767218542411526414e+03 1.015358093378398996e+00 1.390673391956682471e-02
3.770985760953939007e+03 1.021392726102836157e+00 1.385274120693202188e-02
3.774756746714894234e+03 1.019007912413740113e+00 1.385237273594617027e-02
3.778531503461610555e+03 1.017747694310585871e+00 1.380408262928899295e-02
3.782310034965073100e+03 1.009611529193335633e+00 1.366397708500277468e-02
3.786092345000039586e+03 1.008614124357793962e+00 1.347214074122680613e-02
3.789878437345040766e+03 1.003320625552982737e+00 1.356422853989916986e-02
3.793668315782387253e+03 9.893271340566005545e-01 1.306849973062251119e-02
3.797461984098170888e+03 9.720862631261500963e-01 1.286476121892269481e-02
3.801259446082270188e+03 9.595010615787209485e-01 1.279086772727849701e-02
3.805060705528353537e+03 9.565187867643240027e-01 1.255233923411384726e-02
3.808865766233883278e+03 9.453575738980218857e-01 1.308936740700912364e-02
3.812674632000118436e+03 9.299963718482666675e-01 1.325820602214952855e-02
3.816487306632119726e+03 9.297961886602571502e-01 1.402265508017208791e-02
3.820303793938753188e+03 9.193610484207271893e-01 1.401241461771545946e-02
3.824124097732693372e+03 9.134199960353989178e-01 1.426316400386911688e-02
3.827948221830427428e+03 9.085984486257351334e-01 1.444740028660073707e-02
3.831776170052258749e+03 9.153051105043892299e-01 1.469652738412706612e-02
3.835607946222312421e+03 9.162014354031917662e-01 1.458663988681365396e-02
3.839443554168536139e+03 9.293414477699447618e-01 1.539872771233277877e-02
3.843282997722705659e+03 9.635363370788313508e-01 1.812511796090600716e-02
3.847126280720429804e+03 9.838839756384498703e-01 1.778815147050117479e-02
3.850973407001151372e+03 9.955522497837978602e-01 1.736696311718488595e-02
3.854824380408153957e+03 9.974821168279253136e-01 1.713863672899000601e-02
3.858679204788563311e+03 9.893975384456153988e-01 1.768155606950112119e-02
3.862537883993353262e+03 9.792732175316356535e-01 1.842816767272109288e-02
3.866400421877347981e+03 9.657743530501031737e-01 1.905672928874817609e-02
3.870266822299226533e+03 9.598287652801724690e-01 1.892292976924589767e-02
3.874137089121526969e+03 9.531164244360499360e-01 1.844514540620681431e-02
3.878011226210649966e+03 9.514997108669456249e-01 1.810797045734224495e-02
3.881889237436861549e+03 9.503401347048843206e-01 1.784755813250935713e-02
3.885771126674299921e+03 9.596004276686059820e-01 1.763660671764990390e-02
3.889656897800975457e+03 9.787621923287025405e-01 1.805079826377532087e-02
3.893546554698777527e+03 1.006684579358135601e+00 1.933862095484875990e-02
3.897440101253477678e+03 1.031089932891254390e+00 1.940120561497441290e-02
3.901337541354732366e+03 1.053345679923055389e+00 1.943035649299460974e-02
3.905238878896088409e+03 1.070932892788627022e+00 1.974317885502506129e-02
3.909144117774985716e+03 1.101594189458737771e+00 1.891334056254770357e-02
3.913053261892762293e+03 1.124335548898793169e+00 1.840159785244327786e-02
3.916966315154656058e+03 1.124856494864276080e+00 1.794622392710618075e-02
3.920883281469812118e+03 1.126151855593684026e+00 1.728721207305853810e-02
3.924804164751283224e+03 1.119176940726868574e+00 1.716949962857272291e-02
3.928728968916035683e+03 1.116880399728057194e+00 1.733647130487327853e-02
3.932657697884953450e+03 1.113108042362389138e+00 1.733457379854813976e-02
3.936590355582839493e+03 1.115779993375665580e+00 1.546056588427223259e-02
3.940526945938423523e+03 1.099011423038106283e+00 1.599023799043401695e-02
3.944467472884363360e+03 1.080476739261125418e+00 1.667394090869746270e-02
3.948411940357249023e+03 1.060951482580451355e+00 1.715556898437726324e-02
3.952360352297607733e+03 1.047157468668936220e+00 1.717223306215920342e-02
3.956312712649906643e+03 1.038900864457050766e+00 1.693956836150415507e-02
3.960269025362557841e+03 1.044348521140064268e+00 1.706140621503549060e-02
3.964229294387921527e+03 1.056950719220686397e+00 1.714789743796489227e-02
3.968193523682310570e+03 1.070381611688244083e+00 1.747722843442421972e-02
3.972161717205994591e+03 1.086577176845505699e+00 1.806663623712428252e-02
3.976133878923201792e+03 1.104386860885997912e+00 1.803776807340328261e-02
3.980110012802126221e+03 1.138819751635318456e+00 1.473253038639721693e-02
3.984090122814929600e+03 1.156744964769615747e+00 1.411425184858918630e-02
3.988074212937745870e+03 1.149523750331266081e+00 1.507582074805896913e-02
3.992062287150684824e+03 1.142204454871832864e+00 1.501332102462606469e-02
3.996054349437837118e+03 1.128195746240570063e+00 1.521940635473750976e-02
4.000050403787276082e+03 1.109888865508511291e+00 1.364783052087171697e-02
4.004050454191064546e+03 1.099489573685629829e+00 1.364402186110549517e-02
4.008054504645257111e+03 1.094952523656232302e+00 1.417013269786984199e-02
4.012062559149903791e+03 1.099769224635149145e+00 1.254091209240552375e-02
4.016074621709055009e+03 1.105219433842882459e+00 1.225290203913964072e-02
4.020090696330765240e+03 1.107015121099202082e+00 1.226285066345713000e-02
4.024110787027097558e+03 1.104435514908885141e+00 1.263663969474516577e-02
4.028134897814125907e+03 1.105202753499263446e+00 1.214898830035217661e-02
4.032163032711941469e+03 1.095603214591272634e+00 1.195478778780922034e-02
4.036195195744654484e+03 1.074301479010182581e+00 1.286241069732250823e-02
4.040231390940400615e+03 1.059722381725425544e+00 1.272389324845024303e-02
4.044271622331342314e+03 1.040350040053258374e+00 1.235047695521954148e-02
4.048315893953675186e+03 1.032020071033555197e+00 1.277408546293920186e-02
4.052364209847629809e+03 1.036556457614242976e+00 1.315750083179484213e-02
4.056416574057479011e+03 1.037867560409836853e+00 1.320727692484209917e-02
4.060472990631537868e+03 1.040418182922522528e+00 1.324729566511029070e-02
4.064533463622170530e+03 1.050676533769522969e+00 1.387031358471855352e-02
4.068597997085794304e+03 1.044640843350490345e+00 1.392028320581162326e-02
4.072666595082881486e+03 1.024198768433322915e+00 1.401018403948779863e-02
4.076739261677965715e+03 9.900593517284894673e-01 1.453692757618813697e-02
4.080816000939644709e+03 9.601346318827747028e-01 1.488956562872732932e-02
4.084896816940585722e+03 9.381602650049009062e-01 1.516665966368135714e-02
4.088981713757527814e+03 9.196761189069542208e-01 1.481087111820770900e-02
4.093070695471286854e+03 9.107048665123792519e-01 1.424717777525472649e-02
4.097163766166759160e+03 9.086877219406160888e-01 1.397345744836167060e-02
4.101260929932927866e+03 9.241948533169371816e-01 1.402549961449690158e-02
4.105362190862862008e+03 9.508803221160380126e-01 1.348647553778653876e-02
4.109467553053726078e+03 9.847991967899825116e-01 1.404950157756849199e-02
4.113577020606780934e+03 1.000890423651766614e+00 1.465750086042034994e-02
4.117690597627389252e+03 1.028560749676067365e+00 1.413594799182511970e-02
4.121808288225018259e+03 1.043103908016607573e+00 1.416466851150401801e-02
4.125930096513244280e+03 1.050378083591373191e+00 1.397032643117373726e-02
4.130056026609759101e+03 1.060759409596067737e+00 1.371527680898910855e-02
4.134186082636369974e+03 1.061854610724726200e+00 1.339031932766898692e-02
4.138320268719007800e+03 1.055903683648072189e+00 1.293102296499592206e-02
4.142458588987728035e+03 1.053714049298015043e+00 1.250321964866415482e-02
4.146601047576717065e+03 1.055511109572178974e+00 1.201369076707006073e-02
4.150747648624294925e+03 1.059206984937392404e+00 1.242876898140879253e-02
4.154898396272920763e+03 1.057573152034682051e+00 1.244221291768240166e-02
4.159053294669195566e+03 1.062942044256833585e+00 1.243407726874203728e-02
4.163212347963865795e+03 1.072798973706590164e+00 1.271276612728025959e-02
4.167375560311830668e+03 1.073330428348371335e+00 1.239946263625365565e-02
4.171542935872143971e+03 1.075951691440218516e+00 1.248588496272065411e-02
4.175714478808017702e+03 1.074034873523571632e+00 1.243738886707857448e-02
4.179890193286827525e+03 1.078538467731853689e+00 1.218089426478235517e-02
4.184070083480115500e+03 1.080202426099704294e+00 1.249783926050193963e-02
4.188254153563597356e+03 1.093303252684335369e+00 1.180803170234625589e-02
4.192442407717161586e+03 1.091964430324526836e+00 1.139426901279380101e-02
4.196634850124880359e+03 1.090078791552435700e+00 1.139680942470644616e-02
4.200831484975006788e+03 1.096696393203895337e+00 1.110504656734887484e-02
4.205032316459983122e+03 1.105292430337186937e+00 1.166120407104621372e-02
4.209237348776444378e+03 1.101978459578968561e+00 1.203699699449812567e-02
4.213446586125221984e+03 1.114036986321745859e+00 1.217222087729136551e-02
4.217660032711349231e+03 1.120737900999939640e+00 1.207773676460208861e-02
4.221877692744061278e+03 1.122528713033774661e+00 1.208025195034394782e-02
4.226099570436806971e+03 1.118745947969887355e+00 1.187135914935657025e-02
4.230325670007245208e+03 1.118893092467152961e+00 1.202498398362321190e-02
4.234555995677254032e+03 1.110265592319235939e+00 1.163727333611854799e-02
4.238790551672932452e+03 1.097580612895355134e+00 1.158155218208778772e-02
4.243029342224606808e+03 1.092037355404855248e+00 1.140364974578308987e-02
4.247272371566832589e+03 1.091909777018911010e+00 1.123899953599368472e-02
4.251519643938400804e+03 1.090664106844575487e+00 1.119593651433491328e-02
4.255771163582340705e+03 1.090798105595682577e+00 1.094031797104664042e-02
4.260026934745924336e+03 1.096983026290114793e+00 1.093337549107160390e-02
4.264286961680671993e+03 1.105986352389728200e+00 1.156354602394104106e-02
4.268551248642354039e+03 1.108313239771710590e+00 1.159659113838740208e-02
4.272819799890998183e+03 1.113386688343678044e+00 1.189383277881323440e-02
4.277092619690890388e+03 1.124592399282058119e+00 1.234775590176441680e-02
4.281369712310583054e+03 1.133898132329101527e+00 1.189571849687661061e-02
4.285651082022895025e+03 1.142316612563353928e+00 1.169392062202193570e-02
4.289936733104918858e+03 1.134869924844043254e+00 1.157479559705044091e-02
4.294226669838025373e+03 1.137454657274696856e+00 1.102752375194096003e-02
4.298520896507864563e+03 1.130596653634443394e+00 1.118718010758784284e-02
4.302819417404373780e+03 1.140663825724492542e+00 1.291006401688975062e-02
4.307122236821779552e+03 1.134679813343345112e+00 1.271680802117314442e-02
4.311429359058603040e+03 1.125026331865769835e+00 1.239937155512063800e-02
4.315740788417662770e+03 1.093768915896373706e+00 1.363493398112615440e-02
4.320056529206081905e+03 1.071471023886085838e+00 1.378917337748924478e-02
4.324376585735290064e+03 1.052665611876065110e+00 1.411948634217196491e-02
4.328700962321026054e+03 1.045680028780222592e+00 1.407344474803504802e-02
4.333029663283348782e+03 1.058183567118514468e+00 1.403637855586312849e-02
4.337362692946633615e+03 1.087132719367661648e+00 1.474070141304727535e-02
4.341700055639581478e+03 1.123549333864274136e+00 1.517645945200905150e-02
4.346041755695222491e+03 1.172850414436996891e+00 1.545631416344538794e-02
4.350387797450919606e+03 1.197736795018882638e+00 1.543259070158462844e-02
4.354738185248371337e+03 1.233238144645983470e+00 1.552104361130320423e-02
4.359092923433621763e+03 1.259821426645407083e+00 1.398402295963396130e-02
4.363452016357056891e+03 1.266412694048414833e+00 1.437729546654394931e-02
4.367815468373414660e+03 1.262565989221717144e+00 1.409618750337648246e-02
4.372183283841789489e+03 1.228618899895661531e+00 1.384774086243068143e-02
4.376555467125633186e+03 1.189822244288964992e+00 1.263386092673344369e-02
4.380932022592760404e+03 1.144466865435046499e+00 1.136175867585665147e-02
4.385312954615354101e+03 1.120154162760264027e+00 1.023246203844260620e-02
4.389698267569970994e+03 1.107942030888513729e+00 1.023966690855933857e-02
4.394087965837542470e+03 1.101634398063798370e+00 1.057897097762015154e-02
4.398482053803381859e+03 1.097713409981173172e+00 1.057402900262660768e-02
4.402880535857186260e+03 1.103459499251380871e+00 1.011692279457732796e-02
4.407283416393044718e+03 1.094416695985424015e+00 1.016381300833467220e-02
4.411690699809440048e+03 1.085174009339269441e+00 1.025071717896214145e-02
4.416102390509250654e+03 1.077149255006820017e+00 1.026317503803710063e-02
4.420518492899761441e+03 1.070975937457276927e+00 9.881140295245277941e-03
4.424939011392662906e+03 1.056056659678407561e+00 1.028404948651632893e-02
4.429363950404056595e+03 1.057695756001891807e+00 1.020145392863990724e-02
4.433793314354462382e+03 1.044555448193520419e+00 9.838942355556596145e-03
4.438227107668818462e+03 1.035040143622816267e+00 9.793835869911856826e-03
4.442665334776488635e+03 1.027013630673648814e+00 9.479654892946340686e-03
4.447108000111265937e+03 1.029829481433807592e+00 9.543444002792588962e-03
4.451555108111379013e+03 1.037124963191842886e+00 8.967882907507865667e-03
4.456006663219492111e+03 1.040967765508654885e+00 9.175224265302383414e-03
4.460462669882713271e+03 1.051356809338841458e+00 9.244579954245735545e-03
4.464923132552597053e+03 1.055096790211293989e+00 9.301559817635656272e-03
4.469388055685150903e+03 1.054570845356164410e+00 9.797445400826951603e-03
4.473857443740837880e+03 1.058756610253582142e+00 9.848792580379761921e-03
