# starting wavelength: 4212.300
# ending wavelength: 6552.467
# wav flux eflux
4.213446586125221984e+03 8.853780702974340944e-01 1.672276342358892665e-01
4.217660032711349231e+03 9.105931714249321240e-01 1.203829580702166779e-01
4.221877692744061278e+03 9.341799437752663637e-01 8.913847469310705318e-02
4.226099570436806971e+03 9.598656342506514116e-01 6.772468348416782469e-02
4.230325670007245208e+03 9.739277762078787370e-01 5.286799491956731267e-02
4.234555995677254032e+03 9.879623511276397485e-01 4.135568928779145836e-02
4.238790551672932452e+03 9.998718476990039461e-01 3.313770948201857913e-02
4.243029342224606808e+03 1.009186719199552273e+00 2.689720741933455950e-02
4.247272371566832589e+03 1.013248042135573179e+00 2.381207907455030678e-02
4.251519643938400804e+03 1.009721354847489039e+00 2.082721170732948143e-02
4.255771163582340705e+03 9.996633826896638153e-01 1.886590781336624015e-02
4.260026934745924336e+03 9.861717144814197145e-01 1.733933050295468140e-02
4.264286961680671993e+03 9.773064581966751652e-01 1.575499491657752701e-02
4.268551248642354039e+03 9.765873822638979629e-01 1.547062079007370874e-02
4.272819799890998183e+03 9.745514476429827377e-01 1.489145464222252184e-02
4.277092619690890388e+03 9.710448162951830220e-01 1.468252016550051185e-02
4.281369712310583054e+03 9.644722170733969202e-01 1.413751963087356116e-02
4.285651082022895025e+03 9.549018835742479894e-01 1.366690029249212346e-02
4.289936733104918858e+03 9.510723934942731939e-01 1.345611593793485938e-02
4.294226669838025373e+03 9.430196940983327503e-01 1.362063639735412376e-02
4.298520896507864563e+03 9.380891311401456933e-01 1.348743005509803541e-02
4.302819417404373780e+03 9.295894871828036532e-01 1.337681129941812631e-02
4.307122236821779552e+03 9.278188906931783553e-01 1.332964702342531900e-02
4.311429359058603040e+03 9.273132000356416604e-01 1.385756149689137268e-02
4.315740788417662770e+03 9.297145023609364456e-01 1.389560696544404374e-02
4.320056529206081905e+03 9.354298807961329842e-01 1.404903348102411881e-02
4.324376585735290064e+03 9.443021808914022763e-01 1.423134864091948025e-02
4.328700962321026054e+03 9.496783441390586056e-01 1.422599901654129223e-02
4.333029663283348782e+03 9.582320860765103365e-01 1.416011912692830867e-02
4.337362692946633615e+03 9.608059678696667660e-01 1.439634454378269091e-02
4.341700055639581478e+03 9.642255025409383062e-01 1.433428530326027323e-02
4.346041755695222491e+03 9.645730600267207189e-01 1.416730817601789295e-02
4.350387797450919606e+03 9.671903837683567540e-01 1.421085178187144263e-02
4.354738185248371337e+03 9.716733950509552908e-01 1.473545456938919751e-02
4.359092923433621763e+03 9.726467980743910280e-01 1.509357106950297636e-02
4.363452016357056891e+03 9.794199759325825649e-01 1.621292643370116082e-02
4.367815468373414660e+03 9.934868835887323835e-01 1.572357683605197370e-02
4.372183283841789489e+03 1.006986457318876038e+00 1.567035734208761452e-02
4.376555467125633186e+03 1.011760062594908804e+00 1.607264120128850185e-02
4.380932022592760404e+03 1.004898045596785527e+00 1.529173157161033136e-02
4.385312954615354101e+03 9.974339304709585186e-01 1.493639144171501204e-02
4.389698267569970994e+03 9.877909452559648917e-01 1.546061256282188837e-02
4.394087965837542470e+03 9.876136002556679117e-01 1.496334935175928568e-02
4.398482053803381859e+03 9.884130432167681501e-01 1.495700860135678982e-02
4.402880535857186260e+03 9.875711899903854007e-01 1.475169734671913542e-02
4.407283416393044718e+03 9.851051549795063478e-01 1.482878340489402445e-02
4.411690699809440048e+03 9.766729451892969260e-01 1.488197049926794253e-02
4.416102390509250654e+03 9.710029128429682466e-01 1.510701988364882703e-02
4.420518492899761441e+03 9.561876941935257834e-01 1.516934994466211974e-02
4.424939011392662906e+03 9.432032681166006016e-01 1.509105922655454290e-02
4.429363950404056595e+03 9.373631723715689645e-01 1.487878586895211366e-02
4.433793314354462382e+03 9.387653550364224442e-01 1.443320301929623684e-02
4.438227107668818462e+03 9.379641419226425469e-01 1.450538473019089176e-02
4.442665334776488635e+03 9.321458480566556792e-01 1.356753728924887069e-02
4.447108000111265937e+03 9.355484825134778859e-01 1.284675955945404138e-02
4.451555108111379013e+03 9.318666131513969608e-01 1.266989839324800075e-02
4.456006663219492111e+03 9.329609077060484479e-01 1.220838042381852499e-02
4.460462669882713271e+03 9.329303647550986067e-01 1.184869995717730863e-02
4.464923132552597053e+03 9.321812209761067836e-01 1.106351671956658407e-02
4.469388055685150903e+03 9.335402983587197667e-01 1.051186481841712671e-02
4.473857443740837880e+03 9.298813207950947790e-01 1.156767573306735977e-02
4.478331301184580298e+03 9.409046326225594115e-01 1.171994316868989541e-02
4.482809632485766087e+03 9.479293643565525063e-01 1.160899931496838997e-02
4.487292442118253348e+03 9.511252036741739690e-01 9.975216933964834581e-03
4.491779734560373072e+03 9.567103341136760086e-01 9.914754980632075124e-03
4.496271514294934605e+03 9.625001018447466583e-01 9.714095225776641154e-03
4.500767785809231100e+03 9.676089762083641688e-01 9.604904937783508012e-03
4.505268553595042249e+03 9.760879541414899663e-01 1.024757353632356309e-02
4.509773822148638828e+03 9.868818095679567914e-01 1.041411920388414514e-02
4.514283595970789065e+03 9.998829556770834071e-01 1.060814342585987211e-02
4.518797879566761367e+03 1.019580371498394422e+00 1.123199014333915551e-02
4.523316677446328868e+03 1.024801000069517354e+00 1.146189503345415930e-02
4.527839994123776705e+03 1.031958899026402143e+00 1.175066107999970730e-02
4.532367834117902021e+03 1.041324451218124114e+00 1.163109523661653988e-02
4.536900201952022144e+03 1.047975749402151324e+00 1.197486443689390126e-02
4.541437102153975502e+03 1.059631135266801305e+00 1.113150567343779151e-02
4.545978539256130716e+03 1.067968062510102900e+00 1.127201186061464050e-02
4.550524517795388419e+03 1.069579494656832219e+00 1.200282409161430343e-02
4.555075042313184895e+03 1.074054344199770528e+00 1.161135221147379867e-02
4.559630117355500261e+03 1.075159357570512286e+00 1.115902856382261846e-02
4.564189747472856652e+03 1.088678909920512528e+00 1.026283943381405342e-02
4.568753937220330954e+03 1.093162751808522293e+00 1.020975135833450224e-02
4.573322691157552981e+03 1.104795989570457104e+00 9.966699899297926796e-03
4.577896013848711846e+03 1.119634998102541301e+00 1.003859475433475403e-02
4.582473909862562323e+03 1.127610282187941459e+00 1.023505397927176527e-02
4.587056383772426670e+03 1.145000119782805026e+00 1.126368760361358239e-02
4.591643440156200086e+03 1.146587418786779722e+00 1.199257067356849192e-02
4.596235083596357981e+03 1.149664605343429180e+00 1.126054297942304279e-02
4.600831318679955984e+03 1.164348557488320335e+00 1.142614409848710828e-02
4.605432149998637215e+03 1.177684440069987515e+00 1.134979255678975237e-02
4.610037582148637739e+03 1.190801447146519143e+00 1.107221963662795121e-02
4.614647619730787483e+03 1.198936916521215590e+00 1.134199543813894061e-02
4.619262267350520233e+03 1.211726777774689623e+00 1.167531266663731845e-02
4.623881529617872729e+03 1.222648401550247677e+00 1.207076140381593485e-02
4.628505411147491941e+03 1.231119727100145056e+00 1.179897349507355933e-02
4.633133916558640522e+03 1.233873734117384657e+00 1.201038594261209444e-02
4.637767050475200449e+03 1.229344926850479691e+00 1.200943020871425571e-02
4.642404817525677572e+03 1.228979314775806575e+00 1.176523819748304979e-02
4.647047222343205249e+03 1.232063405357874730e+00 1.302458001854935217e-02
4.651694269565549803e+03 1.226075701608198232e+00 1.348499576145266443e-02
4.656345963835116891e+03 1.216922101923102906e+00 1.387066831718497192e-02
4.661002309798953320e+03 1.203738128855963208e+00 1.453203786474406047e-02
4.665663312108753416e+03 1.195631951003612636e+00 1.462681308823272387e-02
4.670328975420864481e+03 1.186252379833239834e+00 1.434439706092409221e-02
4.674999304396286789e+03 1.193553357478170707e+00 1.256765786218801140e-02
4.679674303700684504e+03 1.181130631755759941e+00 1.177862600858700301e-02
4.684353978004386590e+03 1.162901210688737752e+00 1.184301054778538927e-02
4.689038331982392265e+03 1.146735436334703095e+00 1.150766158773439476e-02
4.693727370314376458e+03 1.126080617810446549e+00 1.116506011309164985e-02
4.698421097684692540e+03 1.110595908266517773e+00 1.129192693665620473e-02
4.703119518782378691e+03 1.091287892680219862e+00 1.162911085069746712e-02
4.707822638301162442e+03 1.077719023257429187e+00 1.133258061245476060e-02
4.712530460939465229e+03 1.063321787797103291e+00 1.103927636572580098e-02
4.717242991400406027e+03 1.054694549147987104e+00 1.058268338652078658e-02
4.721960234391808626e+03 1.053421156775186773e+00 1.140635450315482559e-02
4.726682194626201635e+03 1.051873435033796156e+00 1.239545592148323314e-02
4.731408876820829391e+03 1.046660512913959895e+00 1.282071295228121716e-02
4.736140285697651962e+03 1.040994429099318497e+00 1.262301403442072333e-02
4.740876425983350600e+03 1.038183174755435312e+00 1.235385963853218028e-02
4.745617302409335934e+03 1.026921776729492475e+00 1.285233169325050891e-02
4.750362919711747054e+03 1.008294835567739245e+00 1.382586705663112203e-02
4.755113282631459697e+03 9.952250457644997716e-01 1.331245529584944298e-02
4.759868395914093526e+03 9.835656883849904775e-01 1.382840888894227085e-02
4.764628264310008490e+03 9.724484359881873097e-01 1.390069283730779870e-02
4.769392892574320285e+03 9.682343901641440320e-01 1.413124305090736853e-02
4.774162285466896719e+03 9.648281366324822361e-01 1.364957923271144929e-02
4.778936447752364984e+03 9.641627119862850037e-01 1.301820980486879595e-02
4.783715384200118933e+03 9.682793311200040831e-01 1.280519535956523361e-02
4.788499099584319993e+03 9.782204750896794643e-01 1.228505080823610526e-02
4.793287598683906253e+03 9.941785792532147337e-01 1.168045467182696022e-02
4.798080886282591564e+03 1.003264576826947474e+00 1.110146883176217972e-02
4.802878967168876443e+03 1.015908577996054163e+00 1.184491672939532933e-02
4.807681846136046261e+03 1.018817015319570141e+00 1.249269623982945596e-02
4.812489527982183972e+03 1.036042742678362716e+00 1.356712077911656142e-02
4.817302017510168298e+03 1.056764562388852857e+00 1.246802173914703105e-02
4.822119319527679181e+03 1.060235297432857937e+00 1.292342936208078566e-02
4.826941438847208701e+03 1.072489042699278139e+00 1.813381783371781353e-02
4.831768380286057436e+03 1.064563467654086493e+00 1.963387990964778410e-02
4.836600148666345376e+03 1.068055319690376592e+00 1.996185465873980339e-02
4.841436748815013743e+03 1.078097608811115826e+00 1.882928462743960890e-02
4.846278185563829538e+03 1.075665487787641705e+00 1.816165370553089395e-02
4.851124463749395545e+03 1.100512338314963534e+00 1.924039338268908675e-02
4.855975588213146693e+03 1.128068871030372788e+00 1.975715799508915432e-02
4.860831563801360971e+03 1.148402029732854546e+00 2.056942421224896428e-02
4.865692395365163975e+03 1.137042104226641426e+00 2.104241436681335981e-02
4.870558087760530725e+03 1.110727271469411637e+00 2.157107094992344321e-02
4.875428645848292945e+03 1.058537215213453342e+00 1.446940697644063731e-02
4.880304074494142696e+03 1.029375014796946930e+00 1.370413211293428773e-02
4.885184378568638749e+03 1.040832948224123422e+00 1.383815261642342906e-02
4.890069562947209306e+03 1.052221710883177730e+00 1.422940096399369879e-02
4.894959632510157462e+03 1.041461106745643184e+00 1.467081164337260928e-02
4.899854592142669389e+03 1.029918155434621507e+00 1.480403320924753886e-02
4.904754446734813428e+03 1.021950283464629017e+00 1.496191510577772957e-02
4.909659201181550088e+03 1.023386629707292439e+00 1.456905313947028276e-02
4.914568860382732964e+03 1.028386990805064238e+00 1.402435472118696014e-02
4.919483429243117826e+03 1.039800850073178573e+00 1.519425517414965329e-02
4.924402912672362618e+03 1.067155892624735980e+00 1.147594776211015646e-02
4.929327315585036558e+03 1.081982904544066315e+00 1.106281178139292311e-02
4.934256642900622865e+03 1.095457293437577917e+00 1.088000257080886345e-02
4.939190899543525120e+03 1.107593100310717782e+00 1.137398192678874473e-02
4.944130090443070912e+03 1.110629952838071643e+00 1.124075003361427183e-02
4.949074220533515472e+03 1.102238530211159473e+00 1.206053394997803375e-02
4.954023294754050767e+03 1.091401820433437253e+00 1.162993232965032001e-02
4.958977318048806410e+03 1.073671064267695874e+00 1.148108074333571704e-02
4.963936295366856939e+03 1.055582322607877099e+00 1.177291832708734706e-02
4.968900231662225451e+03 1.034603146071782609e+00 1.101635919742467891e-02
4.973869131893889062e+03 1.022639589864836829e+00 1.159434161277369570e-02
4.978843001025784361e+03 1.023211359627301142e+00 1.269279992296763228e-02
4.983821844026811959e+03 1.022124134511009030e+00 1.253894607817739731e-02
4.988805665870840130e+03 1.015271138984942256e+00 1.324510511921692980e-02
4.993794471536712990e+03 1.008586020707588959e+00 1.308752742271083319e-02
4.998788266008251412e+03 9.997692341601551735e-01 1.371670062988598025e-02
5.003787054274261209e+03 9.949478541318890201e-01 1.408488079113099853e-02
5.008790841328536771e+03 9.901225920501884881e-01 1.414098522043937163e-02
5.013799632169867436e+03 9.882813380531877412e-01 1.557922967149016728e-02
5.018813431802038394e+03 9.804082091898070894e-01 1.498520854476475053e-02
5.023832245233842514e+03 9.755625797170875968e-01 1.510061482195161967e-02
5.028856077479077612e+03 9.647379430392429844e-01 1.544512033806126963e-02
5.033884933556558281e+03 9.551476277059006703e-01 1.544748348725242040e-02
5.038918818490116792e+03 9.411720125038083307e-01 1.558867173636949675e-02
5.043957737308608557e+03 9.259694821864632441e-01 1.597367307399607389e-02
5.049001695045918495e+03 9.222852997371698835e-01 1.576108872753796686e-02
5.054050696740966487e+03 9.130859329597844631e-01 1.609881364084276428e-02
5.059104747437709193e+03 9.183726749074184736e-01 1.820821458126648321e-02
5.064163852185148244e+03 9.173096979319155242e-01 2.028248050552531809e-02
5.069228016037335692e+03 9.138521736823140840e-01 2.066398929015859920e-02
5.074297244053374015e+03 9.287558047424737673e-01 1.754252432701578976e-02
5.079371541297429758e+03 9.280798813727790808e-01 1.457751003628894940e-02
5.084450912838728073e+03 9.364041963383658018e-01 1.164896389442567418e-02
5.089535363751569093e+03 9.445124255627819210e-01 1.000010048654379098e-02
5.094624899115322478e+03 9.557928201227879894e-01 8.650506545627507232e-03
5.099719524014439230e+03 9.668912257443158520e-01 8.358904986862652695e-03
5.104819243538455339e+03 9.745034427570775648e-01 8.431979824881885924e-03
5.109924062781995417e+03 9.679347936459252733e-01 8.831181335019144818e-03
5.115033986844779065e+03 9.610757017370483712e-01 8.452715995257526968e-03
5.120149020831625421e+03 9.560565902690699724e-01 8.032735261894989251e-03
5.125269169852458617e+03 9.557922128659084304e-01 7.537139130111148409e-03
5.130394439022313236e+03 9.552997194368666456e-01 7.255835112212032610e-03
5.135524833461337039e+03 9.489874859695357490e-01 6.754693910784620448e-03
5.140660358294800062e+03 9.416324447948208887e-01 6.867388596373757113e-03
5.145801018653096435e+03 9.404762180730105170e-01 6.563276642680476378e-03
5.150946819671751655e+03 9.383223026473371808e-01 6.327921104602711282e-03
5.156097766491425318e+03 9.455774418693654315e-01 6.146192823588421394e-03
5.161253864257918394e+03 9.585886753561925211e-01 5.966082111865379962e-03
5.166415118122177773e+03 9.679502404743854926e-01 5.856163623473991352e-03
5.171581533240301724e+03 9.782660916980596699e-01 5.317283192224415110e-03
5.176753114773543530e+03 9.829447022168176229e-01 5.596421387750021188e-03
5.181929867888318768e+03 9.858513683663882032e-01 5.848397959485345313e-03
5.187111797756208944e+03 9.947720897928933326e-01 5.831185142474835763e-03
5.192298909553966951e+03 1.001968129597386792e+00 5.901515155917983792e-03
5.197491208463522526e+03 1.003833929289827509e+00 5.919871807563384380e-03
5.202688699671987706e+03 1.007555147155672737e+00 6.240859242168906099e-03
5.207891388371661378e+03 1.007191484540749471e+00 6.542288120768104120e-03
5.213099279760034733e+03 1.006730070456074211e+00 6.325932929218013555e-03
5.218312379039796724e+03 1.012316785062719715e+00 6.645531090546352194e-03
5.223530691418837705e+03 1.020095358453094514e+00 6.544019120104885116e-03
5.228754222110258524e+03 1.028424093910290882e+00 6.044558338015090099e-03
5.233982976332370527e+03 1.037797136598937575e+00 5.791579000543583232e-03
5.239216959308704645e+03 1.043584343381913637e+00 5.522258189334766122e-03
5.244456176268015042e+03 1.048034264825863815e+00 5.231332963972885886e-03
5.249700632444284565e+03 1.048505349386108065e+00 5.263520293908285561e-03
5.254950333076731113e+03 1.056413933468291155e+00 5.318464634858396066e-03
5.260205283409809454e+03 1.065770528058215261e+00 5.459273077708391535e-03
5.265465488693221232e+03 1.073410524587829151e+00 5.415846384450352831e-03
5.270730954181915877e+03 1.079683215198271817e+00 5.332592060219500107e-03
5.276001685136099695e+03 1.081382937799957311e+00 5.043957670249316939e-03
5.281277686821237694e+03 1.085654321880217488e+00 4.757526229618085599e-03
5.286558964508059944e+03 1.096750826661624600e+00 4.591702918501787238e-03
5.291845523472569766e+03 1.112363610888024157e+00 4.202354721365812729e-03
5.297137368996044643e+03 1.123120774065287319e+00 4.576761851606758573e-03
5.302434506365042580e+03 1.137888436586296903e+00 5.481386317741385704e-03
5.307736940871409388e+03 1.147014587521608897e+00 6.012234003336047565e-03
5.313044677812282316e+03 1.157346935100019403e+00 6.517101961943674859e-03
5.318357722490096421e+03 1.167838940202403863e+00 6.865330028499892767e-03
5.323676080212588204e+03 1.173788813985410684e+00 6.921990556150126213e-03
5.328999756292802886e+03 1.174111201540275484e+00 6.992281882809498611e-03
5.334328756049097137e+03 1.174707845376741444e+00 6.401076758988538153e-03
5.339663084805148173e+03 1.170958253888483735e+00 5.853594424161877655e-03
5.345002747889954662e+03 1.155257214798435683e+00 5.989269744089759616e-03
5.350347750637846730e+03 1.146042336425691532e+00 5.784573111489590448e-03
5.355698098388485960e+03 1.130815481231840947e+00 5.697696596516346225e-03
5.361053796486876308e+03 1.120649235976564739e+00 5.679995280899411553e-03
5.366414850283365013e+03 1.118372957427473002e+00 5.828058144980672109e-03
5.371781265133649867e+03 1.117765324969558494e+00 5.803443883820456201e-03
5.377153046398785591e+03 1.116709794864228611e+00 5.882435288309947191e-03
5.382530199445186554e+03 1.119116566003669488e+00 5.907876029475067625e-03
5.387912729644633146e+03 1.121834625200748059e+00 6.160121577018749794e-03
5.393300642374279960e+03 1.126442690624586795e+00 6.617991734641332294e-03
5.398693943016655794e+03 1.133082726732082213e+00 7.005671376206413885e-03
5.404092636959673655e+03 1.143220098747719460e+00 6.792040742799861607e-03
5.409496729596635305e+03 1.151567160927180034e+00 6.758618631506290927e-03
5.414906226326233991e+03 1.154674402074168604e+00 6.686895426803047757e-03
5.420321132552561721e+03 1.155759737591401493e+00 6.606442343700870412e-03
5.425741453685116539e+03 1.157884550037045157e+00 6.670843462645677062e-03
5.431167195138803436e+03 1.158283202930846745e+00 6.833045616966628225e-03
5.436598362333943442e+03 1.152772415747159496e+00 7.401101254962593780e-03
5.442034960696279086e+03 1.146148549990783749e+00 8.768693494502112148e-03
5.447476995656978033e+03 1.149078631804923312e+00 9.017270568130442837e-03
5.452924472652636723e+03 1.154902259324420921e+00 9.251192080592355801e-03
5.458377397125291282e+03 1.150427942383805080e+00 9.679825063566561277e-03
5.463835774522417523e+03 1.165135063133968973e+00 1.333953815503276935e-02
5.469299610296941864e+03 1.182608640071918016e+00 1.543939428699020108e-02
5.474768909907241323e+03 1.186707218428253663e+00 1.750863454725757815e-02
5.480243678817149885e+03 1.196860603303427029e+00 1.758516695109131264e-02
5.485723922495968509e+03 1.205263106366122772e+00 1.777909607313929788e-02
