# starting wavelength: 3667.140
# ending wavelength: 7426.770
# wav flux eflux
3.670580901550354156e+03 8.909250836283165720e-01 2.180673335252281131e-02
3.674251482451905758e+03 8.591238075216135472e-01 1.561274580510709636e-02
3.677925733934358959e+03 8.309546858219952759e-01 1.293365544664291239e-02
3.681603659668294313e+03 8.035832392650087419e-01 9.752837277117459500e-03
3.685285263327964003e+03 7.771268896804097714e-01 7.476270105471627229e-03
3.688970548591293209e+03 7.508727246412525425e-01 6.242339479387644559e-03
3.692659519139885560e+03 7.269262051123431823e-01 5.430669823668471050e-03
3.696352178659026777e+03 7.062979082898174221e-01 4.353245892381397454e-03
3.700048530837686940e+03 6.876801115733982561e-01 3.908510884884966972e-03
3.703748579368525952e+03 6.716236585117211222e-01 3.440131524487747422e-03
3.707452327947895355e+03 6.579419428585289165e-01 3.237902889296604639e-03
3.711159780275844696e+03 6.457189849606056464e-01 2.902583454675868816e-03
3.714870940056121526e+03 6.353817398097878488e-01 2.809698060131768718e-03
3.718585810996179134e+03 6.259794280851439519e-01 2.681968165613219171e-03
3.722304396807176545e+03 6.163249465517024461e-01 2.510130220959299208e-03
3.726026701203984885e+03 6.064335152547554175e-01 2.488179007306275461e-03
3.729752727905190113e+03 5.974745280061960484e-01 2.401729944925889721e-03
3.733482480633096657e+03 5.884736610509175847e-01 2.447087245457110066e-03
3.737215963113731050e+03 5.814188718811679202e-01 2.421333311167946350e-03
3.740953179076846027e+03 5.738826450988657735e-01 2.593965024314126826e-03
3.744694132255923705e+03 5.670070782547795840e-01 2.788808801053303810e-03
3.748438826388181042e+03 5.606421841766089376e-01 3.028127892743178676e-03
3.752187265214570289e+03 5.554923630736693374e-01 2.924892410862522073e-03
3.755939452479786269e+03 5.511353034132996376e-01 2.760527570401617031e-03
3.759695391932267285e+03 5.489204161569987139e-01 2.647792718660048946e-03
3.763455087324201031e+03 5.481880718815055342e-01 2.606068444198340450e-03
3.767218542411526414e+03 5.487686291651288073e-01 2.565440495113242500e-03
3.770985760953939007e+03 5.509030524842669641e-01 2.577187118145196632e-03
3.774756746714894234e+03 5.552276754172114082e-01 2.639450177231814510e-03
3.778531503461610555e+03 5.607014246729914442e-01 2.550004265682533078e-03
3.782310034965073100e+03 5.682329475457084111e-01 2.373790298512102378e-03
3.786092345000039586e+03 5.790813891871351426e-01 2.332794322334062666e-03
3.789878437345040766e+03 5.933200479663157667e-01 2.397475055585440371e-03
3.793668315782387253e+03 6.097945712131399576e-01 2.319863445794883780e-03
3.797461984098170888e+03 6.286676946439188063e-01 2.249922600667632940e-03
3.801259446082270188e+03 6.500820343871488438e-01 2.201446746642350943e-03
3.805060705528353537e+03 6.730374057970239798e-01 2.384175210934705129e-03
3.808865766233883278e+03 6.973740083319160954e-01 2.422723000247400515e-03
3.812674632000118436e+03 7.250914626875095692e-01 2.416840794490983813e-03
3.816487306632119726e+03 7.545131825814537230e-01 2.236297462798901570e-03
3.820303793938753188e+03 7.868449744162303583e-01 2.315392042353718507e-03
3.824124097732693372e+03 8.208680521101162642e-01 2.503658599238193540e-03
3.827948221830427428e+03 8.563766125934740847e-01 2.955976752917630068e-03
3.831776170052258749e+03 8.940941830055291195e-01 3.494563569039568947e-03
3.835607946222312421e+03 9.322171229622099320e-01 3.877929813763744335e-03
3.839443554168536139e+03 9.706618833158744408e-01 3.586232837853110637e-03
3.843282997722705659e+03 1.006656696635180870e+00 3.172016151367619986e-03
3.847126280720429804e+03 1.041046220477191309e+00 3.076528334291799352e-03
3.850973407001151372e+03 1.074778422693822399e+00 3.063650519588482710e-03
3.854824380408153957e+03 1.106905769134535644e+00 2.852944269985118950e-03
3.858679204788563311e+03 1.135981241776938822e+00 2.871967330482270465e-03
3.862537883993353262e+03 1.162184341248932995e+00 2.959082033204011187e-03
3.866400421877347981e+03 1.185958919673099743e+00 2.899637131066257287e-03
3.870266822299226533e+03 1.208298418960323861e+00 2.900366497489791258e-03
3.874137089121526969e+03 1.226732416608192100e+00 2.871647407517934937e-03
3.878011226210649966e+03 1.243705333945169800e+00 2.903037276826244892e-03
3.881889237436861549e+03 1.258118342853317362e+00 2.893123953413087677e-03
3.885771126674299921e+03 1.270629768108811453e+00 2.779795856274460027e-03
3.889656897800975457e+03 1.281431179403924148e+00 2.709404734382482235e-03
3.893546554698777527e+03 1.291127407276515093e+00 2.605110533710553507e-03
3.897440101253477678e+03 1.300100528139650491e+00 2.593244233053150754e-03
3.901337541354732366e+03 1.309777864360603283e+00 2.548065268530370648e-03
3.905238878896088409e+03 1.317477063704406426e+00 2.851939002158506396e-03
3.909144117774985716e+03 1.324959479077456370e+00 3.181076276117865247e-03
3.913053261892762293e+03 1.332990785327002436e+00 3.254024940725309609e-03
3.916966315154656058e+03 1.341081866565579261e+00 2.923786030209491425e-03
3.920883281469812118e+03 1.349851585464606929e+00 2.535380995853879667e-03
3.924804164751283224e+03 1.360189905471845595e+00 2.697967638846906265e-03
3.928728968916035683e+03 1.370115889723488634e+00 2.800654314296660823e-03
3.932657697884953450e+03 1.381380339873664376e+00 2.970500800379349219e-03
3.936590355582839493e+03 1.395142181390893299e+00 2.778849272418439705e-03
3.940526945938423523e+03 1.407419300916315397e+00 2.203262167409819183e-03
3.944467472884363360e+03 1.418651241296180254e+00 1.940508537195112255e-03
3.948411940357249023e+03 1.427287475022751551e+00 1.874838603984680177e-03
3.952360352297607733e+03 1.435903919450920885e+00 2.162024930045629290e-03
3.956312712649906643e+03 1.442437786395854182e+00 2.062833214252263094e-03
3.960269025362557841e+03 1.445824427898062314e+00 2.034802468745659960e-03
3.964229294387921527e+03 1.446394181878587482e+00 2.100032382879513191e-03
3.968193523682310570e+03 1.444154922009051045e+00 2.064696107071218624e-03
3.972161717205994591e+03 1.438580273117469499e+00 2.161176437333338710e-03
3.976133878923201792e+03 1.429179788491481196e+00 2.040883526895026587e-03
3.980110012802126221e+03 1.418250565360374527e+00 2.010529883524284165e-03
3.984090122814929600e+03 1.405030844070710661e+00 2.095766291405651554e-03
3.988074212937745870e+03 1.390399277916108067e+00 2.216762105910799821e-03
3.992062287150684824e+03 1.374702828893979767e+00 2.293355342982307879e-03
3.996054349437837118e+03 1.358078676452085132e+00 2.337622149322473794e-03
4.000050403787276082e+03 1.340183051604725950e+00 2.104032495238176460e-03
4.004050454191064546e+03 1.322735783921797692e+00 1.797227236361314401e-03
4.008054504645257111e+03 1.306849968744466128e+00 1.902645738481924384e-03
4.012062559149903791e+03 1.292324611986252592e+00 2.044320315400650120e-03
4.016074621709055009e+03 1.279404477763562697e+00 1.828980228285871992e-03
4.020090696330765240e+03 1.267118152123365205e+00 1.782404832176953235e-03
4.024110787027097558e+03 1.255676120838237431e+00 2.102528386915722761e-03
4.028134897814125907e+03 1.245440382490419884e+00 1.977537464599932009e-03
4.032163032711941469e+03 1.237275236990422300e+00 1.893428138348913874e-03
4.036195195744654484e+03 1.230700137590787557e+00 1.976791503100312156e-03
4.040231390940400615e+03 1.225692350008665166e+00 1.954614069237662396e-03
4.044271622331342314e+03 1.221564195023694399e+00 2.149048727512562103e-03
4.048315893953675186e+03 1.216871727823179539e+00 2.197516942841015817e-03
4.052364209847629809e+03 1.213395039158942756e+00 2.325025689510996137e-03
4.056416574057479011e+03 1.209646346352411417e+00 2.887501772082073405e-03
4.060472990631537868e+03 1.204660382896771686e+00 2.541584776130275010e-03
4.064533463622170530e+03 1.197879616385216117e+00 2.249645203822613071e-03
4.068597997085794304e+03 1.188330807114545973e+00 2.590756992699322098e-03
4.072666595082881486e+03 1.177529966006403361e+00 2.937502490898142270e-03
4.076739261677965715e+03 1.167024228365138194e+00 2.835348502741374260e-03
4.080816000939644709e+03 1.156320169041541224e+00 2.555090749155443288e-03
4.084896816940585722e+03 1.145922153315607206e+00 2.193962905638921317e-03
4.088981713757527814e+03 1.139063278545239477e+00 2.278160783355567473e-03
4.093070695471286854e+03 1.133107017605558209e+00 2.289865629288319673e-03
4.097163766166759160e+03 1.130154132180756443e+00 2.287562157228778970e-03
4.101260929932927866e+03 1.128600943901117981e+00 2.336232768926787412e-03
4.105362190862862008e+03 1.129068930606133669e+00 2.280455445017949816e-03
4.109467553053726078e+03 1.132996273397048004e+00 2.266929203191059457e-03
4.113577020606780934e+03 1.139395593985132793e+00 2.266551392197952396e-03
4.117690597627389252e+03 1.148717048737575297e+00 2.368594134042172668e-03
4.121808288225018259e+03 1.158997373851118118e+00 2.423723721394587319e-03
4.125930096513244280e+03 1.168965397752677049e+00 2.248578717271570906e-03
4.130056026609759101e+03 1.180906966595192564e+00 2.267836660850770878e-03
4.134186082636369974e+03 1.193547608029092988e+00 1.734408239503005753e-03
4.138320268719007800e+03 1.204209447444089420e+00 1.508064517131773533e-03
4.142458588987728035e+03 1.213413793785569350e+00 1.269307301025761076e-03
4.146601047576717065e+03 1.219490985341590950e+00 1.375330269918005610e-03
4.150747648624294925e+03 1.223098168103915917e+00 1.498868479186907373e-03
4.154898396272920763e+03 1.226226810528634026e+00 1.528568943201427666e-03
4.159053294669195566e+03 1.226620894030820752e+00 1.538867983908440368e-03
4.163212347963865795e+03 1.225129963159195201e+00 1.447088447134635544e-03
4.167375560311830668e+03 1.224165296923205970e+00 1.460896764944410488e-03
4.171542935872143971e+03 1.222580302359490778e+00 1.307007706030569082e-03
4.175714478808017702e+03 1.221822336134391618e+00 1.242671353295808721e-03
4.179890193286827525e+03 1.220016746553722387e+00 1.497237244383162365e-03
4.184070083480115500e+03 1.219455017803463770e+00 1.538144049906046062e-03
4.188254153563597356e+03 1.220098781204713267e+00 1.484877752620767906e-03
4.192442407717161586e+03 1.221839757932217108e+00 1.730236651580103905e-03
4.196634850124880359e+03 1.225077054713912705e+00 2.170052484816787849e-03
4.200831484975006788e+03 1.226902054218116600e+00 2.108851325383767367e-03
4.205032316459983122e+03 1.228282394041904979e+00 2.025412697856041923e-03
4.209237348776444378e+03 1.228750982724996055e+00 1.962236519513500810e-03
4.213446586125221984e+03 1.228699028829143725e+00 1.902316988120560234e-03
4.217660032711349231e+03 1.226920261944765222e+00 1.866182631073911311e-03
4.221877692744061278e+03 1.223462297440711444e+00 1.872732169971407174e-03
4.226099570436806971e+03 1.217794615748298392e+00 2.088869021789375568e-03
4.230325670007245208e+03 1.211682821720472258e+00 2.020466727610527660e-03
4.234555995677254032e+03 1.206347973565961462e+00 2.124335509147784462e-03
4.238790551672932452e+03 1.200488290008036696e+00 2.010698110795348589e-03
4.243029342224606808e+03 1.195930166509459713e+00 1.632595057344785527e-03
4.247272371566832589e+03 1.194094449250646450e+00 1.672888291864419764e-03
4.251519643938400804e+03 1.194176387649984239e+00 1.804297197247624329e-03
4.255771163582340705e+03 1.194734094270192948e+00 1.799416720689445918e-03
4.260026934745924336e+03 1.194691828230933117e+00 1.980509147393404428e-03
4.264286961680671993e+03 1.194466270243114359e+00 2.482926381582756161e-03
4.268551248642354039e+03 1.191962926699421610e+00 2.406466934276763493e-03
4.272819799890998183e+03 1.187569351498338976e+00 1.913800907347156834e-03
4.277092619690890388e+03 1.179673933786083317e+00 1.005865872438591090e-03
4.281369712310583054e+03 1.166322934755821272e+00 1.104989287817202161e-03
4.285651082022895025e+03 1.148957154456187402e+00 1.167443623723749728e-03
4.289936733104918858e+03 1.127560639203717852e+00 1.169998062807394703e-03
4.294226669838025373e+03 1.103934313833948133e+00 1.251326385805496579e-03
4.298520896507864563e+03 1.078785661799840367e+00 1.164257981762175168e-03
4.302819417404373780e+03 1.051917184488313284e+00 1.358480997951859622e-03
4.307122236821779552e+03 1.025331381928523022e+00 1.436841545758313224e-03
4.311429359058603040e+03 1.001111993589784310e+00 1.632289337158215068e-03
4.315740788417662770e+03 9.799107153973917184e-01 1.643766324684492030e-03
4.320056529206081905e+03 9.621476989130107738e-01 1.514722539479127199e-03
4.324376585735290064e+03 9.497037742675599192e-01 1.245650684426051046e-03
4.328700962321026054e+03 9.433028755866086357e-01 1.237768489111003636e-03
4.333029663283348782e+03 9.425011846144206729e-01 1.601997884806702918e-03
4.337362692946633615e+03 9.462980428823886125e-01 2.085765381684578749e-03
4.341700055639581478e+03 9.545879421901097839e-01 2.673132588298914297e-03
4.346041755695222491e+03 9.657887149848417563e-01 2.506672671776429343e-03
4.350387797450919606e+03 9.766348361991840088e-01 2.247903630710182746e-03
4.354738185248371337e+03 9.885353732566795060e-01 1.897070278463725218e-03
4.359092923433621763e+03 1.000098753992560097e+00 1.802036527381169467e-03
4.363452016357056891e+03 1.010482991277234843e+00 1.816723061644751926e-03
4.367815468373414660e+03 1.019828271978552969e+00 1.781647476511492075e-03
4.372183283841789489e+03 1.027373628629964175e+00 1.610326117979518981e-03
4.376555467125633186e+03 1.034389811059521325e+00 1.836376301764288711e-03
4.380932022592760404e+03 1.040245791990149771e+00 1.818319130684595622e-03
4.385312954615354101e+03 1.043158225021135754e+00 2.370800994679511230e-03
4.389698267569970994e+03 1.046880723880095676e+00 2.419669092527623310e-03
4.394087965837542470e+03 1.050998131124416979e+00 2.466600514918466155e-03
4.398482053803381859e+03 1.055754901998947393e+00 2.549195133625410843e-03
4.402880535857186260e+03 1.060246982587332853e+00 3.190080210782809695e-03
4.407283416393044718e+03 1.067765732467670814e+00 3.004807023850554308e-03
4.411690699809440048e+03 1.079024481515211908e+00 2.639104404560103923e-03
4.416102390509250654e+03 1.094270971489530675e+00 3.167509352807291838e-03
4.420518492899761441e+03 1.111900028634924098e+00 3.417833833428316707e-03
4.424939011392662906e+03 1.132547669586354999e+00 3.316809982715254648e-03
4.429363950404056595e+03 1.153808975578560769e+00 2.755278738348573581e-03
4.433793314354462382e+03 1.174382678619395604e+00 2.624703887647323198e-03
4.438227107668818462e+03 1.194466002580331754e+00 2.461678706586900231e-03
4.442665334776488635e+03 1.213437710581829698e+00 2.423089913034376635e-03
4.447108000111265937e+03 1.229918095063563976e+00 2.431149318738124072e-03
4.451555108111379013e+03 1.244350269965765809e+00 2.440506558597625025e-03
4.456006663219492111e+03 1.257328346639106087e+00 2.338643544079044029e-03
4.460462669882713271e+03 1.269832521680662296e+00 2.361415385955090759e-03
4.464923132552597053e+03 1.281092515948569321e+00 2.348917476388095050e-03
4.469388055685150903e+03 1.290730606469490338e+00 1.900002920436747247e-03
4.473857443740837880e+03 1.302615507786065496e+00 1.985946008786976941e-03
4.478331301184580298e+03 1.314086005338850338e+00 1.849560380805645140e-03
4.482809632485766087e+03 1.325127127736875465e+00 1.853606398887826462e-03
4.487292442118253348e+03 1.334407790139955141e+00 1.455503370539063543e-03
4.491779734560373072e+03 1.345137162336793146e+00 1.432252605522760366e-03
4.496271514294934605e+03 1.356879290392038362e+00 1.880911494821276052e-03
4.500767785809231100e+03 1.368405622151353862e+00 1.747965455149415315e-03
4.505268553595042249e+03 1.377878388375469942e+00 1.686360551389673532e-03
4.509773822148638828e+03 1.386817364669764796e+00 1.549297083958520302e-03
4.514283595970789065e+03 1.393977152132919839e+00 1.551718854640236943e-03
4.518797879566761367e+03 1.400072701559205379e+00 1.587655430236177513e-03
4.523316677446328868e+03 1.405316018835919722e+00 1.563362866645464375e-03
4.527839994123776705e+03 1.410448019292106947e+00 1.552110163271573987e-03
4.532367834117902021e+03 1.414304151754078420e+00 1.591180835170506519e-03
4.536900201952022144e+03 1.418079038563909933e+00 1.542410121401975196e-03
4.541437102153975502e+03 1.422580582181879105e+00 1.507011045918904687e-03
4.545978539256130716e+03 1.427296792138464943e+00 1.489130522916763243e-03
4.550524517795388419e+03 1.432363673228167711e+00 1.519880893279946686e-03
4.555075042313184895e+03 1.437494939594635701e+00 1.514056513284218032e-03
4.559630117355500261e+03 1.443767800801600831e+00 1.084714307911904818e-03
4.564189747472856652e+03 1.448892171204563040e+00 1.053344894294199570e-03
4.568753937220330954e+03 1.453247514931654161e+00 1.047879392880846821e-03
4.573322691157552981e+03 1.456343644618740774e+00 9.017907878605713494e-04
4.577896013848711846e+03 1.459700463479458810e+00 1.133812563499343642e-03
4.582473909862562323e+03 1.462099356686384688e+00 1.011895538479436240e-03
4.587056383772426670e+03 1.462097602861564649e+00 9.752544842878252797e-04
4.591643440156200086e+03 1.459929167322491450e+00 1.193971338985051018e-03
4.596235083596357981e+03 1.456863721782664323e+00 1.520276358820692652e-03
4.600831318679955984e+03 1.453242384015033251e+00 1.577722516647623056e-03
4.605432149998637215e+03 1.449117944510031730e+00 1.524838999744259314e-03
4.610037582148637739e+03 1.445445807797265170e+00 1.442315843515235962e-03
4.614647619730787483e+03 1.441792803509228671e+00 1.400832205598103071e-03
4.619262267350520233e+03 1.437914571815411824e+00 1.512541188245371173e-03
4.623881529617872729e+03 1.433645921113789301e+00 1.818974127004860082e-03
4.628505411147491941e+03 1.428728128603411474e+00 2.036476550392608397e-03
4.633133916558640522e+03 1.421543921597365534e+00 1.767323019551605675e-03
4.637767050475200449e+03 1.411924992537807011e+00 1.377694095665007437e-03
4.642404817525677572e+03 1.398724796265327308e+00 1.169611919532721539e-03
4.647047222343205249e+03 1.382177112161525168e+00 1.041560676468108711e-03
4.651694269565549803e+03 1.361262974232338330e+00 1.194718702923614493e-03
4.656345963835116891e+03 1.336879112502891598e+00 1.141683273388576208e-03
4.661002309798953320e+03 1.309681934000044290e+00 6.676155740804093873e-04
4.665663312108753416e+03 1.281285087195366046e+00 7.561891345331058943e-04
4.670328975420864481e+03 1.250846325425344352e+00 8.051852297804532738e-04
4.674999304396286789e+03 1.218919627107823089e+00 9.041844960301366040e-04
4.679674303700684504e+03 1.186707843092662307e+00 1.022694407086098545e-03
4.684353978004386590e+03 1.154685279418782962e+00 1.157174471774810370e-03
4.689038331982392265e+03 1.124214639559618201e+00 1.137625828717413884e-03
4.693727370314376458e+03 1.094817972909397863e+00 1.058605031943556747e-03
4.698421097684692540e+03 1.067075049567987488e+00 1.084072959866636422e-03
4.703119518782378691e+03 1.041625274875628504e+00 9.247024582615429814e-04
4.707822638301162442e+03 1.019284217679833127e+00 1.112121516234101026e-03
4.712530460939465229e+03 9.992969707576067062e-01 1.297867536475335584e-03
4.717242991400406027e+03 9.813681299233304456e-01 1.250135982591229176e-03
4.721960234391808626e+03 9.647469018694788678e-01 1.431946307968714896e-03
4.726682194626201635e+03 9.493659371456169005e-01 1.419576160959835388e-03
4.731408876820829391e+03 9.337980164565661267e-01 1.210266407128878343e-03
4.736140285697651962e+03 9.182802178711474417e-01 1.006098578122788982e-03
4.740876425983350600e+03 9.020397181999505465e-01 1.291239076453941500e-03
4.745617302409335934e+03 8.862945781375018983e-01 1.377236118973167471e-03
4.750362919711747054e+03 8.716074311207619996e-01 1.416495819983347752e-03
4.755113282631459697e+03 8.584006293244770269e-01 1.705434323736953507e-03
4.759868395914093526e+03 8.469874428564417856e-01 1.492999827240123036e-03
4.764628264310008490e+03 8.385790130253074626e-01 1.226479142710446696e-03
4.769392892574320285e+03 8.328439649950053481e-01 1.077182883905319910e-03
4.774162285466896719e+03 8.303829838551401998e-01 1.362692998444607357e-03
4.778936447752364984e+03 8.312995762372705766e-01 1.660922319439113838e-03
