# starting wavelength: 3252.640
# ending wavelength: 9993.720
# wav flux eflux
3.255708422730835991e+03 4.296236842543216250e-01 2.208073988732348406e-02
3.258964131153567905e+03 4.392001970005482425e-01 1.595651580856118426e-02
3.262223095284722604e+03 4.428840353837377730e-01 1.187396063600555315e-02
3.265485318380008266e+03 4.417285603075156164e-01 9.829925358746631134e-03
3.268750803698389518e+03 4.378803052794089101e-01 8.835291614813745378e-03
3.272019554502088795e+03 4.337904858312009448e-01 7.888589521614832595e-03
3.275291574056592253e+03 4.308601522444150400e-01 6.651021242084947591e-03
3.278566865630649772e+03 4.289341075994880792e-01 5.427000802870416384e-03
3.281845432496281319e+03 4.269981731254377522e-01 4.501493876697675901e-03
3.285127277928778767e+03 4.247630342587280228e-01 3.813497105901762947e-03
3.288412405206708627e+03 4.219127589540419554e-01 3.306053078497999537e-03
3.291700817611916591e+03 4.187252072390502122e-01 2.916966847279894252e-03
3.294992518429529355e+03 4.147990461527072403e-01 2.628003904792888899e-03
3.298287510947960072e+03 4.100270295116233421e-01 2.453197110750888338e-03
3.301585798458909267e+03 4.043637745455720967e-01 2.412076275169506515e-03
3.304887384257369376e+03 3.991990271580072580e-01 2.309089080063098792e-03
3.308192271641627485e+03 3.923909954484764429e-01 2.503793195923280455e-03
3.311500463913270323e+03 3.862864160267808766e-01 2.498168435176743429e-03
3.314811964377184722e+03 3.806739349666899419e-01 2.467922334327467184e-03
3.318126776341563072e+03 3.765439457457247507e-01 2.503360402247486668e-03
3.321444903117905596e+03 3.723047181263104410e-01 2.482773710033219471e-03
3.324766348021024896e+03 3.684406010850415081e-01 2.469088831770329621e-03
3.328091114369046863e+03 3.645531000951510725e-01 2.472656122964169388e-03
3.331419205483417045e+03 3.615220592281693235e-01 2.451722563035220372e-03
3.334750624688901553e+03 3.587539804283527700e-01 2.435566289799347833e-03
3.338085375313591612e+03 3.550693342280101805e-01 2.187332383736827202e-03
3.341423460688906289e+03 3.535355657463110646e-01 2.107630566707922870e-03
3.344764884149596128e+03 3.542803710007180751e-01 2.169365014281865109e-03
3.348109649033746791e+03 3.565954897031931026e-01 2.193133194174947710e-03
3.351457758682781787e+03 3.593527107449717706e-01 2.186172415116173322e-03
3.354809216441465651e+03 3.628776655776965732e-01 2.225031219205044018e-03
3.358164025657908041e+03 3.676811052201904295e-01 2.265070758519611375e-03
3.361522189683567376e+03 3.748036435197929506e-01 2.204350824960625739e-03
3.364883711873251741e+03 3.828333874320787311e-01 2.196675273686457541e-03
3.368248595585126168e+03 3.918183864719266829e-01 2.266112141715408319e-03
3.371616844180712633e+03 4.021065725116425571e-01 2.284671926142621632e-03
3.374988461024894150e+03 4.135792738146163994e-01 2.302131654070345423e-03
3.378363449485920228e+03 4.259591067790770014e-01 2.265541074488107345e-03
3.381741812935407324e+03 4.395225888041893736e-01 2.160038465015857827e-03
3.385123554748343849e+03 4.540487641644648242e-01 2.128940624642395273e-03
3.388508678303093347e+03 4.700308708199222307e-01 2.332796249950952125e-03
3.391897186981397681e+03 4.869110440367060422e-01 2.526504092510983412e-03
3.395289084168380214e+03 5.047179566522849159e-01 2.889302838805185743e-03
3.398684373252549449e+03 5.222371084893778770e-01 3.055299937990053286e-03
3.402083057625803121e+03 5.391043297528302913e-01 3.065608146408704653e-03
3.405485140683430018e+03 5.566514963507436242e-01 2.868901491486864751e-03
3.408890625824114522e+03 5.727045991020753846e-01 2.594723974118835243e-03
3.412299516449939802e+03 5.878906592059972569e-01 2.143325832627341384e-03
3.415711815966390986e+03 6.013397959942278215e-01 1.958552631320183753e-03
3.419127527782358356e+03 6.124926222248703311e-01 1.989740118473198958e-03
3.422546655310141887e+03 6.216367616705663623e-01 2.068004213207968230e-03
3.425969201965453522e+03 6.289930219023242008e-01 2.054016054596684033e-03
3.429395171167419903e+03 6.354660409839280044e-01 2.068608968938667140e-03
3.432824566338588284e+03 6.402359039072957891e-01 2.157440965064288084e-03
3.436257390904928343e+03 6.440201749929306274e-01 2.297359688086394840e-03
3.439693648295834464e+03 6.460543202728181722e-01 2.292771257684429222e-03
3.443133341944131189e+03 6.477164646684344662e-01 2.283044381865105207e-03
3.446576475286076402e+03 6.476836845267266440e-01 2.166011119783432110e-03
3.450023051761363604e+03 6.474576250690841084e-01 2.137636970548547830e-03
3.453473074813126004e+03 6.460682216895921037e-01 1.861712839726053625e-03
3.456926547887940615e+03 6.447860785203302081e-01 1.431749310426897468e-03
3.460383474435829612e+03 6.450499518227208462e-01 1.358875123701025391e-03
3.463843857910266706e+03 6.470092472727249078e-01 1.357108411495700677e-03
3.467307701768178049e+03 6.491854523527114118e-01 1.360729936986572724e-03
3.470775009469947236e+03 6.515951533996274803e-01 1.263505363960460131e-03
3.474245784479418489e+03 6.559323781832309130e-01 1.294971987787599558e-03
3.477720030263898934e+03 6.616598905014678955e-01 1.355907580876626693e-03
3.481197750294164052e+03 6.675199804281601867e-01 1.456618286000259735e-03
3.484678948044459503e+03 6.741912000091485613e-01 1.583350812899178821e-03
3.488163626992504760e+03 6.815295991131203879e-01 1.726529295417734413e-03
3.491651790619498570e+03 6.892343177377778796e-01 1.880443876234676051e-03
3.495143442410119405e+03 6.978505916400619125e-01 2.076406162790006126e-03
3.498638585852530468e+03 7.060434142485352282e-01 2.270842978697617653e-03
3.502137224438384237e+03 7.138123615423582757e-01 2.164468691164524172e-03
3.505639361662823831e+03 7.209703071485666914e-01 1.973071900922618912e-03
3.509145001024487556e+03 7.268814980377799051e-01 1.481440606970501955e-03
3.512654146025513455e+03 7.317258617288487921e-01 1.387181096709523770e-03
3.516166800171540217e+03 7.344688707239400705e-01 1.742664365585177687e-03
3.519682966971712631e+03 7.363207680535835964e-01 2.109006176573218795e-03
3.523202649938685681e+03 7.371935138285561351e-01 2.487217905287965585e-03
3.526725852588625457e+03 7.374565645542588976e-01 2.705324085445860293e-03
3.530252578441215064e+03 7.374918774468053329e-01 2.667093104597232072e-03
3.533782831019657806e+03 7.367814344209644428e-01 2.371037508855517936e-03
3.537316613850678550e+03 7.353038631466194408e-01 2.038757185675370894e-03
3.540853930464530094e+03 7.352589593000249391e-01 1.913994409280128694e-03
3.544394784394995895e+03 7.357554886776748182e-01 1.797608787325286365e-03
3.547939179179392340e+03 7.369846932799719585e-01 1.915025945540103349e-03
3.551487118358572843e+03 7.389667500560727076e-01 2.049655622073733290e-03
3.555038605476932389e+03 7.413008730455372675e-01 2.166021148870123873e-03
3.558593644082410719e+03 7.435379441480184370e-01 2.149279690794691448e-03
3.562152237726494150e+03 7.452819778429901065e-01 2.129822823938957391e-03
3.565714389964221937e+03 7.473577797185710914e-01 2.054962628416320304e-03
3.569280104354187188e+03 7.496434251695007767e-01 1.862377791742985973e-03
3.572849384458542772e+03 7.521000859143588402e-01 1.651160723260437909e-03
3.576422233843002232e+03 7.535364318561464936e-01 1.638014734906167091e-03
3.579998656076846601e+03 7.541518849634354371e-01 1.656025849757498513e-03
3.583578654732924406e+03 7.538868099365281239e-01 1.634541670114594229e-03
3.587162233387658489e+03 7.526431754974537425e-01 1.634570819173220913e-03
3.590749395621047370e+03 7.501748140183535085e-01 1.591746945197139093e-03
3.594340145016669794e+03 7.463869994608219871e-01 1.479571481652557302e-03
3.597934485161687462e+03 7.416904819207743582e-01 1.379752816273088116e-03
3.601532419646850485e+03 7.366611251950190287e-01 1.327632210432973161e-03
3.605133952066498296e+03 7.320535761880707648e-01 1.348308879467760655e-03
3.608739086018566013e+03 7.268902017500475932e-01 1.333180688688329670e-03
3.612347825104585809e+03 7.214856408867439397e-01 1.319168349686229745e-03
3.615960172929691907e+03 7.150589872346229114e-01 1.455003551920839829e-03
3.619576133102622407e+03 7.080657576045049639e-01 1.625698563575849907e-03
3.623195709235726554e+03 7.014806514520445235e-01 1.635506626111638342e-03
3.626818904944963379e+03 6.953529845292842904e-01 1.478292901862783646e-03
3.630445723849909427e+03 6.902097445693426980e-01 1.472808814788368649e-03
3.634076169573760581e+03 6.856997413443145506e-01 1.610504106248225077e-03
3.637710245743335690e+03 6.810043292445089325e-01 1.695176042150441835e-03
3.641347955989080219e+03 6.762470060356040591e-01 1.790928976289378124e-03
3.644989303945070333e+03 6.715741214089483435e-01 1.857507756114888144e-03
3.648634293249016537e+03 6.667403551931253558e-01 1.793975516316521825e-03
3.652282927542266862e+03 6.621501453178215701e-01 1.696294975723387603e-03
3.655935210469810499e+03 6.565403556492309667e-01 1.438143398322603867e-03
3.659591145680281443e+03 6.500615587225155867e-01 1.154145329384249127e-03
3.663250736825963031e+03 6.415554614252486632e-01 1.085113894411262898e-03
3.666913987562790226e+03 6.312179029183198065e-01 1.089045328754105393e-03
3.670580901550354156e+03 6.195810939480699275e-01 1.163341595545031503e-03
3.674251482451905758e+03 6.063606075289298403e-01 1.169814919213342953e-03
3.677925733934358959e+03 5.906609258281620978e-01 1.161755061842377566e-03
3.681603659668294313e+03 5.723229362140556109e-01 1.207178859559350070e-03
3.685285263327964003e+03 5.523742178444388529e-01 1.257692893908687664e-03
3.688970548591293209e+03 5.311851748145084429e-01 1.257569281673013521e-03
3.692659519139885560e+03 5.077615234124348564e-01 1.369451058122432259e-03
3.696352178659026777e+03 4.831759048374353882e-01 1.536771592285017182e-03
3.700048530837686940e+03 4.585803556435931183e-01 1.629956749804474915e-03
3.703748579368525952e+03 4.341948857167241549e-01 1.719918800728649586e-03
3.707452327947895355e+03 4.102524741562297295e-01 1.753402399027929881e-03
3.711159780275844696e+03 3.868694751217705008e-01 1.783834069603026234e-03
3.714870940056121526e+03 3.641203673926689532e-01 1.724327104843076820e-03
3.718585810996179134e+03 3.432359340403124959e-01 1.344037816808927102e-03
3.722304396807176545e+03 3.245825291213768615e-01 1.055433289327173917e-03
3.726026701203984885e+03 3.086791518966174319e-01 9.837981859052741685e-04
3.729752727905190113e+03 2.958318264152718924e-01 9.964303161048742360e-04
3.733482480633096657e+03 2.860641628306291873e-01 1.183115372764130318e-03
3.737215963113731050e+03 2.791358782034333297e-01 1.234877967743364720e-03
3.740953179076846027e+03 2.739788929223648806e-01 1.169458096884456793e-03
3.744694132255923705e+03 2.713764068906018845e-01 1.027774482808570863e-03
3.748438826388181042e+03 2.704780694574657751e-01 1.077421424658166118e-03
3.752187265214570289e+03 2.713615562399658843e-01 1.036013499843924622e-03
3.755939452479786269e+03 2.734602563919534823e-01 1.121265705039288648e-03
3.759695391932267285e+03 2.767800169393400678e-01 1.148768110365871705e-03
3.763455087324201031e+03 2.813465647852357865e-01 1.098915611898275326e-03
3.767218542411526414e+03 2.860875032040778310e-01 1.061000188939794893e-03
3.770985760953939007e+03 2.911467469850839707e-01 1.218612368416924783e-03
3.774756746714894234e+03 2.968801346816491438e-01 1.234539453454951748e-03
3.778531503461610555e+03 3.041724394495394779e-01 1.247265091365971001e-03
3.782310034965073100e+03 3.122300158063618936e-01 1.237983570778846288e-03
3.786092345000039586e+03 3.205329220907671695e-01 1.165056142901457195e-03
3.789878437345040766e+03 3.295380533660495770e-01 1.127325830849995559e-03
3.793668315782387253e+03 3.404144364413047019e-01 1.115991395069912103e-03
3.797461984098170888e+03 3.529219777991313700e-01 1.152760783944284341e-03
3.801259446082270188e+03 3.668070853869074277e-01 1.203653268844033031e-03
3.805060705528353537e+03 3.814350127054065287e-01 1.219916666623941087e-03
3.808865766233883278e+03 3.982983634534780215e-01 1.229726399480336393e-03
3.812674632000118436e+03 4.167775063150743753e-01 1.256845120081340412e-03
3.816487306632119726e+03 4.372128129302131905e-01 1.267710845660152815e-03
3.820303793938753188e+03 4.602642859246919294e-01 1.238272316656339068e-03
3.824124097732693372e+03 4.847862373430107952e-01 1.245079498668429747e-03
3.827948221830427428e+03 5.106971246790346086e-01 1.199005992773806905e-03
3.831776170052258749e+03 5.391666234009717673e-01 1.129781991010665948e-03
3.835607946222312421e+03 5.700704259816516961e-01 1.145896375932161683e-03
3.839443554168536139e+03 6.030620974584440797e-01 1.342681968802124544e-03
3.843282997722705659e+03 6.377535056265414282e-01 1.425473039482717677e-03
3.847126280720429804e+03 6.733698177257623207e-01 1.332347512136840750e-03
3.850973407001151372e+03 7.092016652676380595e-01 1.129076283699394397e-03
3.854824380408153957e+03 7.445859606732811997e-01 1.191756975782320158e-03
3.858679204788563311e+03 7.798628422860776066e-01 1.311279118444425972e-03
3.862537883993353262e+03 8.144083124719634359e-01 1.468225748243061780e-03
3.866400421877347981e+03 8.476085813447017392e-01 1.359451791934377035e-03
3.870266822299226533e+03 8.779238378006027910e-01 1.522958116922391945e-03
3.874137089121526969e+03 9.054921097419650344e-01 1.471950889816198236e-03
3.878011226210649966e+03 9.297626516547453646e-01 1.291839879832190749e-03
3.881889237436861549e+03 9.504057125342523227e-01 1.710318850456779387e-03
3.885771126674299921e+03 9.679246323288718257e-01 2.286434579426235240e-03
3.889656897800975457e+03 9.844310106381816139e-01 2.431687174675883651e-03
3.893546554698777527e+03 1.000060004426679638e+00 2.500054223645672112e-03
3.897440101253477678e+03 1.016420036833087792e+00 2.361120699351551468e-03
3.901337541354732366e+03 1.034688406104844249e+00 2.189407073184953742e-03
3.905238878896088409e+03 1.055084035659690667e+00 1.975396171728876268e-03
3.909144117774985716e+03 1.077630773227253425e+00 1.830836271071586150e-03
3.913053261892762293e+03 1.103419039136700253e+00 2.100355392790759484e-03
3.916966315154656058e+03 1.132019874502884216e+00 2.147025378874805549e-03
3.920883281469812118e+03 1.162390740786064525e+00 1.742661052753489460e-03
3.924804164751283224e+03 1.194350525427150700e+00 1.094358734890433582e-03
3.928728968916035683e+03 1.225879458476565986e+00 8.652724461970474554e-04
3.932657697884953450e+03 1.256683893603798952e+00 8.634797195277160589e-04
3.936590355582839493e+03 1.287154618905286707e+00 9.890294393448877206e-04
3.940526945938423523e+03 1.315587190896768233e+00 1.009924209725726304e-03
3.944467472884363360e+03 1.342092240913919543e+00 1.019015182551273645e-03
3.948411940357249023e+03 1.366659066845861359e+00 1.009416798741877936e-03
3.952360352297607733e+03 1.389160982606049366e+00 1.004779151132031501e-03
3.956312712649906643e+03 1.409261371990750300e+00 1.122935687691417952e-03
3.960269025362557841e+03 1.426825599028404001e+00 1.279368691351571606e-03
3.964229294387921527e+03 1.442648381750956998e+00 1.176806603057142710e-03
3.968193523682310570e+03 1.457001549291038422e+00 1.174028795668076485e-03
3.972161717205994591e+03 1.468804726789119997e+00 1.047698562151887225e-03
3.976133878923201792e+03 1.479129878811114462e+00 1.067306585967956519e-03
3.980110012802126221e+03 1.487587231033313584e+00 1.078875907483781886e-03
3.984090122814929600e+03 1.494457003421248986e+00 1.073195118881292492e-03
3.988074212937745870e+03 1.498997889813299844e+00 1.055500420317753273e-03
3.992062287150684824e+03 1.501872557748018311e+00 9.288588805528155213e-04
3.996054349437837118e+03 1.502287581070326894e+00 9.365567904451489603e-04
4.000050403787276082e+03 1.500308819971563734e+00 9.285335384331736388e-04
4.004050454191064546e+03 1.495532415638126889e+00 7.963746391098473765e-04
4.008054504645257111e+03 1.488744747256143031e+00 8.629325370025447105e-04
4.012062559149903791e+03 1.480049593609166880e+00 1.087431101386942059e-03
4.016074621709055009e+03 1.468350922346786769e+00 1.057792246272161191e-03
4.020090696330765240e+03 1.454453452394129487e+00 9.088964175189685833e-04
4.024110787027097558e+03 1.437924088693042668e+00 1.053710190915446666e-03
4.028134897814125907e+03 1.419400970099490733e+00 1.331015889649367692e-03
4.032163032711941469e+03 1.399671143783452365e+00 1.421792289299952114e-03
4.036195195744654484e+03 1.379004854180423845e+00 1.353897030175329639e-03
4.040231390940400615e+03 1.358820425055417669e+00 1.479556959478828780e-03
4.044271622331342314e+03 1.340041244358867178e+00 1.222052264885826762e-03
4.048315893953675186e+03 1.323045981624369150e+00 8.849871315304251715e-04
4.052364209847629809e+03 1.308645478948397889e+00 1.272222423965785592e-03
4.056416574057479011e+03 1.295745225361488062e+00 1.575279236125324547e-03
4.060472990631537868e+03 1.284414218170055078e+00 1.725669525994381935e-03
4.064533463622170530e+03 1.272919444319601689e+00 1.601689240653517837e-03
4.068597997085794304e+03 1.261253436197488975e+00 1.249690821154537295e-03
4.072666595082881486e+03 1.248199560021164167e+00 1.092886073797991100e-03
4.076739261677965715e+03 1.234188468058385446e+00 1.003053270314296181e-03
4.080816000939644709e+03 1.218724991488437936e+00 1.058001699728321112e-03
4.084896816940585722e+03 1.202152636294047339e+00 9.907370683629602558e-04
4.088981713757527814e+03 1.185009691246980745e+00 1.006004767498336165e-03
4.093070695471286854e+03 1.167386181212330731e+00 8.716722381319893728e-04
4.097163766166759160e+03 1.149724020018902060e+00 9.522964025150387063e-04
4.101260929932927866e+03 1.132164286517227447e+00 1.430557296558925906e-03
4.105362190862862008e+03 1.116823585535021701e+00 1.754643323642298683e-03
4.109467553053726078e+03 1.104578598194769112e+00 1.852606984398066231e-03
4.113577020606780934e+03 1.095011371603666461e+00 1.805455828577767893e-03
4.117690597627389252e+03 1.088498770621442624e+00 1.593555019026780123e-03
4.121808288225018259e+03 1.085554063754317511e+00 2.130575864901946073e-03
4.125930096513244280e+03 1.084903345937069385e+00 2.735340126045329289e-03
4.130056026609759101e+03 1.085608900276538780e+00 2.954661652353288061e-03
4.134186082636369974e+03 1.086287732829743558e+00 2.780735036024613305e-03
4.138320268719007800e+03 1.086310368475679189e+00 2.217527327126393635e-03
4.142458588987728035e+03 1.084676937625352000e+00 1.911179091107281921e-03
4.146601047576717065e+03 1.081086079363112296e+00 1.837616332759549331e-03
4.150747648624294925e+03 1.074519145173580714e+00 2.183590740244157648e-03
4.154898396272920763e+03 1.066438687282826203e+00 2.054904885511044024e-03
4.159053294669195566e+03 1.057163152563807440e+00 1.610953426760614732e-03
4.163212347963865795e+03 1.047438795587563032e+00 1.232402912396304189e-03
4.167375560311830668e+03 1.038008743938618972e+00 1.039753058043718951e-03
4.171542935872143971e+03 1.030590621619931202e+00 1.002744426779124919e-03
4.175714478808017702e+03 1.023787815612433372e+00 1.153160679316514578e-03
4.179890193286827525e+03 1.018169808512706886e+00 1.315374890597424164e-03
4.184070083480115500e+03 1.014638666989241544e+00 1.332466252669089026e-03
4.188254153563597356e+03 1.012965291187691186e+00 1.309546419749898659e-03
4.192442407717161586e+03 1.012481489376211741e+00 1.167056402926160185e-03
4.196634850124880359e+03 1.013862790263933888e+00 1.481218877770485928e-03
4.200831484975006788e+03 1.016682176425261597e+00 1.811616588993164188e-03
4.205032316459983122e+03 1.019428428095395134e+00 1.721747008912817784e-03
4.209237348776444378e+03 1.021620872107158906e+00 1.451692378202153275e-03
4.213446586125221984e+03 1.022547487235260233e+00 1.242040148936016325e-03
4.217660032711349231e+03 1.020981932478297383e+00 1.111866629290464122e-03
4.221877692744061278e+03 1.017244554075587004e+00 1.120846068604778537e-03
4.226099570436806971e+03 1.010953610948987613e+00 1.415620255664040098e-03
4.230325670007245208e+03 1.002202304043385839e+00 1.316223498619768567e-03
4.234555995677254032e+03 9.930182435153565024e-01 1.169831144448296506e-03
4.238790551672932452e+03 9.831767733391854058e-01 1.040970649647574671e-03
