# starting wavelength: 3249.390
# ending wavelength: 8406.750
# wav flux eflux
3.252455966764071036e+03 1.810672537689523576e-01 4.699998985548198109e-03
3.255708422730835991e+03 1.820173985275060635e-01 3.432034811204879351e-03
3.258964131153567905e+03 1.825453832538826704e-01 2.558133804344779778e-03
3.262223095284722604e+03 1.831220911688991593e-01 1.913492128702715079e-03
3.265485318380008266e+03 1.837768395089766915e-01 1.464175248864202751e-03
3.268750803698389518e+03 1.846248910494355522e-01 1.222202928680295999e-03
3.272019554502088795e+03 1.852773298955363301e-01 9.961558819083279198e-04
3.275291574056592253e+03 1.857808223702575035e-01 8.108041874153353512e-04
3.278566865630649772e+03 1.863501920512610210e-01 6.820090883081954139e-04
3.281845432496281319e+03 1.870588160191575811e-01 6.038456674431911999e-04
3.285127277928778767e+03 1.879218663697468372e-01 5.317894776661484567e-04
3.288412405206708627e+03 1.888938542113905994e-01 4.719530239033592174e-04
3.291700817611916591e+03 1.899184265535358018e-01 4.237502196229477850e-04
3.294992518429529355e+03 1.910634770435563345e-01 3.921265229258716237e-04
3.298287510947960072e+03 1.922293305766765437e-01 3.654925779238435771e-04
3.301585798458909267e+03 1.934570618886412019e-01 3.450632857742165190e-04
3.304887384257369376e+03 1.947918778060937772e-01 3.329247550001841294e-04
3.308192271641627485e+03 1.961832080671095102e-01 3.263686328017128342e-04
3.311500463913270323e+03 1.977011951910888354e-01 3.513875311788357682e-04
3.314811964377184722e+03 1.991306570879626259e-01 3.250350742533838176e-04
3.318126776341563072e+03 2.004373704000715628e-01 3.438975401616716485e-04
3.321444903117905596e+03 2.017611433595928871e-01 3.643101685290468512e-04
3.324766348021024896e+03 2.032046301242264597e-01 3.618193891562975590e-04
3.328091114369046863e+03 2.045855308916207094e-01 3.585401367284298132e-04
3.331419205483417045e+03 2.060613644831854607e-01 3.552507274186853881e-04
3.334750624688901553e+03 2.075571286435466123e-01 3.543387106271968386e-04
3.338085375313591612e+03 2.090494507676920743e-01 3.429669711388241382e-04
3.341423460688906289e+03 2.106751201104539450e-01 3.506573371155416322e-04
3.344764884149596128e+03 2.123211016137939444e-01 3.536835786691233966e-04
3.348109649033746791e+03 2.139918260905888936e-01 3.451258094822268001e-04
3.351457758682781787e+03 2.156336964803621248e-01 3.478218272001097904e-04
3.354809216441465651e+03 2.171623322441930681e-01 3.620677903437873111e-04
3.358164025657908041e+03 2.186974528119814687e-01 3.453200511178598710e-04
3.361522189683567376e+03 2.203557455821154032e-01 3.254571595237959990e-04
3.364883711873251741e+03 2.221762106431857398e-01 3.686607951687830161e-04
3.368248595585126168e+03 2.240905192590159356e-01 3.890464343344449171e-04
3.371616844180712633e+03 2.260380063726422362e-01 3.788531622082896735e-04
3.374988461024894150e+03 2.279308902056798314e-01 3.691896279509471190e-04
3.378363449485920228e+03 2.298610981996380143e-01 3.477493952363993886e-04
3.381741812935407324e+03 2.317020947338417902e-01 3.392908770852523124e-04
3.385123554748343849e+03 2.333907869090195430e-01 3.445252016217621857e-04
3.388508678303093347e+03 2.349533924678482155e-01 3.428286515316036160e-04
3.391897186981397681e+03 2.365922536301577062e-01 3.436766680185800215e-04
3.395289084168380214e+03 2.382209700779701345e-01 3.535196766677266267e-04
3.398684373252549449e+03 2.398057856884816819e-01 3.529217727525520154e-04
3.402083057625803121e+03 2.413133698674107541e-01 3.601559016081074785e-04
3.405485140683430018e+03 2.427449654780923505e-01 3.673447994214293073e-04
3.408890625824114522e+03 2.440964497884629270e-01 3.882071708410760459e-04
3.412299516449939802e+03 2.455700070905954546e-01 3.811137402853402253e-04
3.415711815966390986e+03 2.469877872068650948e-01 3.795687491309716064e-04
3.419127527782358356e+03 2.486187500115209781e-01 3.835398768601315034e-04
3.422546655310141887e+03 2.502882423393943401e-01 3.804161355124129886e-04
3.425969201965453522e+03 2.519448538743392918e-01 3.755837256644332456e-04
3.429395171167419903e+03 2.532876142199277369e-01 3.822442431136168113e-04
3.432824566338588284e+03 2.546781029070592783e-01 4.161326980050785882e-04
3.436257390904928343e+03 2.564065506187689913e-01 4.069462892157981642e-04
3.439693648295834464e+03 2.583327285851259592e-01 4.083048798180097467e-04
3.443133341944131189e+03 2.602514098689961974e-01 4.046692760393207663e-04
3.446576475286076402e+03 2.624381043655834023e-01 4.195184927931533067e-04
3.450023051761363604e+03 2.647455034717850486e-01 4.227091766718570022e-04
3.453473074813126004e+03 2.672500615036825233e-01 4.441279098763856051e-04
3.456926547887940615e+03 2.697654497600714962e-01 4.671354998845983204e-04
3.460383474435829612e+03 2.720988515676055486e-01 4.966273043626622712e-04
3.463843857910266706e+03 2.743934145568438510e-01 5.721670730899085277e-04
3.467307701768178049e+03 2.766001505888900924e-01 6.867880178743041670e-04
3.470775009469947236e+03 2.786057703819708187e-01 6.894299023781780148e-04
3.474245784479418489e+03 2.802668349991953578e-01 6.197885277747621760e-04
3.477720030263898934e+03 2.814282354532701702e-01 5.781950853110090060e-04
3.481197750294164052e+03 2.820658204966730032e-01 5.542855890395648015e-04
3.484678948044459503e+03 2.822818763801114850e-01 5.380549722988753596e-04
3.488163626992504760e+03 2.820792443730327781e-01 5.240942125950141979e-04
3.491651790619498570e+03 2.813408409162854729e-01 5.338527133351385952e-04
3.495143442410119405e+03 2.801146313530965548e-01 5.378417562891635133e-04
3.498638585852530468e+03 2.784317222472600384e-01 5.562121812139373496e-04
3.502137224438384237e+03 2.765406529258671586e-01 5.768719938744635905e-04
3.505639361662823831e+03 2.740294053602911895e-01 6.100666710862689491e-04
3.509145001024487556e+03 2.711908766587721731e-01 6.153356238332083469e-04
3.512654146025513455e+03 2.683503808297021953e-01 5.745754922957523611e-04
3.516166800171540217e+03 2.656751753848793363e-01 4.576313124808926796e-04
3.519682966971712631e+03 2.633740940915986206e-01 4.223782236904375926e-04
3.523202649938685681e+03 2.616382972427351850e-01 4.267000175145060307e-04
3.526725852588625457e+03 2.604176083560978960e-01 4.309408632798091194e-04
3.530252578441215064e+03 2.595151255378640442e-01 4.295202449794209391e-04
3.533782831019657806e+03 2.589734295479446113e-01 4.118639131260153356e-04
3.537316613850678550e+03 2.589180091525092320e-01 4.123144981161194745e-04
3.540853930464530094e+03 2.596031453846434078e-01 4.522758377715522474e-04
3.544394784394995895e+03 2.605436498934957656e-01 5.102341963430861386e-04
3.547939179179392340e+03 2.617560800592235171e-01 5.900690119495568273e-04
3.551487118358572843e+03 2.630519653715802098e-01 5.905513180182130322e-04
3.555038605476932389e+03 2.647463129365332235e-01 6.301983410850682836e-04
3.558593644082410719e+03 2.664426342295382888e-01 6.811969602025375048e-04
3.562152237726494150e+03 2.679482759456522922e-01 6.418902135379301720e-04
3.565714389964221937e+03 2.693096502825830241e-01 5.184777485534468105e-04
3.569280104354187188e+03 2.704236558082843689e-01 4.924379226055778476e-04
3.572849384458542772e+03 2.708082368759757719e-01 6.149806937555601580e-04
3.576422233843002232e+03 2.708822901871526523e-01 6.921561820768322134e-04
3.579998656076846601e+03 2.707234108328016031e-01 6.642579374205700082e-04
3.583578654732924406e+03 2.705256372131661924e-01 6.262625490322332395e-04
3.587162233387658489e+03 2.704872755596843814e-01 5.586067510902467583e-04
3.590749395621047370e+03 2.705980449843082836e-01 5.259366312973398844e-04
3.594340145016669794e+03 2.709203283697533271e-01 5.627024427931195472e-04
3.597934485161687462e+03 2.710687205336984595e-01 5.648343852075291298e-04
3.601532419646850485e+03 2.711910045697175642e-01 5.815548239632885178e-04
3.605133952066498296e+03 2.710790212618371942e-01 6.070607871351128186e-04
3.608739086018566013e+03 2.710826661953235073e-01 6.409375612339923917e-04
3.612347825104585809e+03 2.709739536663119952e-01 6.465700779991675204e-04
3.615960172929691907e+03 2.705619771778018934e-01 6.207217596899644411e-04
3.619576133102622407e+03 2.699197906532461166e-01 3.941768873244617249e-04
3.623195709235726554e+03 2.678876783226836200e-01 3.393709167699295818e-04
3.626818904944963379e+03 2.648449283075428595e-01 3.635700809034295351e-04
3.630445723849909427e+03 2.608975782907657637e-01 3.587195398992384541e-04
3.634076169573760581e+03 2.562255066245111568e-01 3.838877726160214187e-04
3.637710245743335690e+03 2.504706571970803375e-01 3.780006834025218280e-04
3.641347955989080219e+03 2.437413975853267578e-01 3.827706872423055403e-04
3.644989303945070333e+03 2.362776973240836853e-01 4.095681310026467385e-04
3.648634293249016537e+03 2.282163737399561798e-01 4.786595820054508716e-04
3.652282927542266862e+03 2.195149439846916795e-01 5.980753171521943677e-04
3.655935210469810499e+03 2.108091436175509592e-01 6.157122397672975178e-04
3.659591145680281443e+03 2.016660680496736857e-01 6.530940006572977892e-04
3.663250736825963031e+03 1.927556550270905222e-01 6.158565758327416446e-04
3.666913987562790226e+03 1.840976442087674247e-01 5.633871861833262889e-04
3.670580901550354156e+03 1.756247777595223436e-01 4.418650308198562686e-04
3.674251482451905758e+03 1.684234354411687229e-01 4.513937610883209670e-04
3.677925733934358959e+03 1.620372400048245287e-01 4.577349117677620991e-04
3.681603659668294313e+03 1.566286365487471188e-01 4.798734807037951470e-04
3.685285263327964003e+03 1.518780821531941494e-01 5.213423679399614274e-04
3.688970548591293209e+03 1.480571294523633508e-01 5.734453954941864549e-04
3.692659519139885560e+03 1.447636082955802705e-01 5.488181221528240592e-04
3.696352178659026777e+03 1.422059813354354663e-01 4.933069872821238891e-04
3.700048530837686940e+03 1.402309818924509233e-01 3.829296082314489905e-04
3.703748579368525952e+03 1.383801907806389564e-01 3.454031859822757357e-04
3.707452327947895355e+03 1.366034749272936333e-01 3.536605740093798486e-04
3.711159780275844696e+03 1.350891183080966396e-01 3.121286562121610569e-04
3.714870940056121526e+03 1.340435012645066759e-01 3.133954911886029787e-04
3.718585810996179134e+03 1.334004643919792510e-01 3.216864054030791177e-04
3.722304396807176545e+03 1.331110828435376481e-01 3.324554277027404127e-04
3.726026701203984885e+03 1.331366229942473611e-01 3.465693638761851189e-04
3.729752727905190113e+03 1.335828990589659482e-01 3.344548300851533712e-04
3.733482480633096657e+03 1.346550913938515392e-01 3.228760721235165131e-04
3.737215963113731050e+03 1.363173094105593064e-01 3.259429845325428031e-04
3.740953179076846027e+03 1.387052683006215203e-01 2.918850822464611893e-04
3.744694132255923705e+03 1.416462774097906885e-01 2.951867741352618237e-04
3.748438826388181042e+03 1.451646547386764297e-01 2.958958024780262617e-04
3.752187265214570289e+03 1.494649602363598562e-01 3.168866502340523129e-04
3.755939452479786269e+03 1.543280267218700152e-01 3.421503767341472916e-04
3.759695391932267285e+03 1.602525979674199741e-01 3.575237089182704939e-04
3.763455087324201031e+03 1.670267518999563328e-01 3.599948639194420976e-04
3.767218542411526414e+03 1.746851924036187387e-01 3.985772451370240177e-04
3.770985760953939007e+03 1.828480905576811144e-01 4.307627162359636114e-04
3.774756746714894234e+03 1.917856964021543154e-01 4.422948282163153850e-04
3.778531503461610555e+03 2.012533194505304601e-01 3.960960663178681590e-04
3.782310034965073100e+03 2.108141273591817022e-01 4.241607979617725366e-04
3.786092345000039586e+03 2.209331144253968426e-01 4.204781135665848556e-04
3.789878437345040766e+03 2.313701199055225033e-01 3.907522582657047363e-04
3.793668315782387253e+03 2.417898886595552521e-01 3.928772784592827311e-04
3.797461984098170888e+03 2.526304527195627481e-01 3.899363368693467774e-04
3.801259446082270188e+03 2.634937637085908446e-01 3.573744899645638052e-04
3.805060705528353537e+03 2.746413544670788798e-01 3.441309478557758018e-04
3.808865766233883278e+03 2.862036688168654308e-01 3.599615859812321838e-04
3.812674632000118436e+03 2.979736652724860324e-01 5.434407675482271936e-04
3.816487306632119726e+03 3.106176086823665417e-01 5.473599814969357840e-04
3.820303793938753188e+03 3.242310757735207827e-01 5.957632016368553463e-04
3.824124097732693372e+03 3.383189276241221344e-01 6.022712548334500579e-04
3.827948221830427428e+03 3.527979990606707750e-01 6.045944251321573072e-04
3.831776170052258749e+03 3.678928072525866066e-01 5.808832341710589830e-04
3.835607946222312421e+03 3.839389143606060650e-01 6.729775833799356722e-04
3.839443554168536139e+03 4.003766393021699899e-01 6.621698567148405577e-04
3.843282997722705659e+03 4.171385020153495216e-01 6.280982018290529306e-04
3.847126280720429804e+03 4.341999313998098908e-01 6.612503043980700636e-04
3.850973407001151372e+03 4.514383374231472068e-01 8.512184492555487179e-04
3.854824380408153957e+03 4.691265338775784111e-01 7.919781651720701797e-04
3.858679204788563311e+03 4.875997505853338909e-01 7.745176990217038674e-04
3.862537883993353262e+03 5.062237288959987591e-01 7.141837006057755047e-04
3.866400421877347981e+03 5.252480841624167507e-01 6.651132135232338703e-04
3.870266822299226533e+03 5.448017200522470294e-01 7.438749809482647288e-04
3.874137089121526969e+03 5.645987522982830464e-01 9.088502400206814992e-04
3.878011226210649966e+03 5.838587274586274356e-01 8.883252063908215644e-04
3.881889237436861549e+03 6.018138159208755722e-01 7.858517620200623473e-04
3.885771126674299921e+03 6.181157615343376710e-01 7.759735771544891371e-04
3.889656897800975457e+03 6.333420624648694597e-01 7.475986300437465924e-04
3.893546554698777527e+03 6.467787486132892116e-01 5.858139325415427081e-04
3.897440101253477678e+03 6.578473256793460067e-01 7.363682712411947009e-04
3.901337541354732366e+03 6.670739661675290089e-01 7.780605463276389589e-04
3.905238878896088409e+03 6.754520081306316648e-01 7.054552407161322628e-04
3.909144117774985716e+03 6.830125017221230221e-01 7.851675759641993206e-04
3.913053261892762293e+03 6.899873029436434102e-01 9.136031760859918442e-04
3.916966315154656058e+03 6.972492135831679372e-01 8.560479763480933818e-04
3.920883281469812118e+03 7.050198796729165718e-01 7.749339294412735130e-04
3.924804164751283224e+03 7.132834583136589135e-01 6.724860990778686563e-04
3.928728968916035683e+03 7.227601066498243743e-01 7.007219099168718454e-04
3.932657697884953450e+03 7.331010858075016623e-01 6.716551040711433648e-04
3.936590355582839493e+03 7.434376397811781612e-01 8.687195821514506365e-04
3.940526945938423523e+03 7.548102760843343750e-01 8.645586953469648747e-04
3.944467472884363360e+03 7.671184883110916397e-01 1.000142437195741720e-03
3.948411940357249023e+03 7.798047840768077554e-01 1.193879166516499495e-03
3.952360352297607733e+03 7.917417108588105101e-01 1.278227015347675440e-03
3.956312712649906643e+03 8.023007451498934683e-01 1.304640743118249584e-03
3.960269025362557841e+03 8.114912459705132530e-01 1.288307783544597731e-03
3.964229294387921527e+03 8.194157126387511259e-01 1.150956234491031698e-03
3.968193523682310570e+03 8.252294108637379111e-01 1.219496756738156981e-03
3.972161717205994591e+03 8.291342460418289484e-01 1.265415277099725963e-03
3.976133878923201792e+03 8.314037206642367339e-01 1.303755363736798685e-03
3.980110012802126221e+03 8.324871577039332227e-01 1.325658334188501699e-03
3.984090122814929600e+03 8.316890430289839431e-01 1.230368424830607238e-03
3.988074212937745870e+03 8.298114440147641435e-01 1.023812217202416889e-03
3.992062287150684824e+03 8.273564999515556906e-01 1.141750667618155390e-03
3.996054349437837118e+03 8.240590190271807058e-01 1.224788590387946305e-03
4.000050403787276082e+03 8.196487117971159586e-01 1.119922147146740514e-03
4.004050454191064546e+03 8.143131349796804974e-01 8.591227401285332545e-04
4.008054504645257111e+03 8.076289351981869036e-01 7.788947172697668290e-04
4.012062559149903791e+03 7.987503519325684920e-01 7.783570461757839285e-04
4.016074621709055009e+03 7.894605481798587787e-01 6.737282769766612901e-04
4.020090696330765240e+03 7.798589114665778199e-01 6.010613262704541868e-04
4.024110787027097558e+03 7.701334432297526345e-01 6.258597846483258996e-04
4.028134897814125907e+03 7.603226458754132056e-01 9.347775304974259613e-04
4.032163032711941469e+03 7.499585176257052010e-01 1.004869557649281167e-03
4.036195195744654484e+03 7.391115141704253100e-01 9.606965774227751000e-04
4.040231390940400615e+03 7.280827517699641760e-01 9.623756778822259526e-04
4.044271622331342314e+03 7.169244682697312188e-01 1.050113927781761878e-03
4.048315893953675186e+03 7.061437487718035255e-01 1.122507720292285471e-03
4.052364209847629809e+03 6.956070044508602113e-01 1.163640108872889727e-03
4.056416574057479011e+03 6.856606675201794010e-01 1.106704079140606849e-03
4.060472990631537868e+03 6.764494384763086732e-01 8.112210268958423148e-04
4.064533463622170530e+03 6.688257821492832322e-01 8.489645443890204198e-04
4.068597997085794304e+03 6.624677693173051107e-01 9.427679911818112775e-04
4.072666595082881486e+03 6.571403299386120445e-01 9.670616579219280546e-04
4.076739261677965715e+03 6.523292683658061808e-01 9.031971624555637642e-04
4.080816000939644709e+03 6.482442584255839746e-01 7.474584674448350079e-04
4.084896816940585722e+03 6.440195317814053633e-01 5.188307258774928427e-04
4.088981713757527814e+03 6.389509521730771802e-01 5.585212261032780016e-04
4.093070695471286854e+03 6.334943131381682857e-01 5.675525096789913165e-04
4.097163766166759160e+03 6.274691363003316313e-01 4.624653544077278943e-04
4.101260929932927866e+03 6.211292868518847321e-01 4.376985483700922101e-04
4.105362190862862008e+03 6.150736441806103905e-01 5.894621801916568584e-04
4.109467553053726078e+03 6.078460351051788724e-01 6.034456936624153561e-04
4.113577020606780934e+03 5.999614891558121554e-01 7.248743825718444557e-04
4.117690597627389252e+03 5.921237369203478096e-01 7.617264231736253777e-04
4.121808288225018259e+03 5.843494028093479953e-01 7.809722209101103031e-04
4.125930096513244280e+03 5.769080948758392724e-01 7.914284306729962339e-04
4.130056026609759101e+03 5.697987480041474262e-01 8.054338626813809052e-04
4.134186082636369974e+03 5.635269856776419228e-01 7.225613439084944923e-04
4.138320268719007800e+03 5.583982050047200385e-01 6.846021415530572285e-04
4.142458588987728035e+03 5.545866325031680866e-01 7.443629842374986172e-04
4.146601047576717065e+03 5.517159146745279630e-01 7.853706694238419585e-04
4.150747648624294925e+03 5.497178643751350346e-01 7.754535846687493454e-04
4.154898396272920763e+03 5.484898225514247549e-01 7.785345243820090575e-04
4.159053294669195566e+03 5.482725469745685087e-01 6.294824813841700490e-04
4.163212347963865795e+03 5.482234231415863412e-01 5.668062690615550394e-04
4.167375560311830668e+03 5.481359269148748936e-01 5.704913185910702022e-04
4.171542935872143971e+03 5.481990881282945427e-01 5.734465058621308550e-04
4.175714478808017702e+03 5.484707926996046368e-01 5.802270098761579424e-04
4.179890193286827525e+03 5.491380530395287840e-01 5.715841875374866061e-04
4.184070083480115500e+03 5.507073746460815489e-01 4.962114698754998198e-04
4.188254153563597356e+03 5.520238695379320326e-01 4.290458193565112105e-04
4.192442407717161586e+03 5.536393434117180545e-01 5.146927675745757019e-04
4.196634850124880359e+03 5.554875489695859647e-01 5.154865042777342660e-04
4.200831484975006788e+03 5.572785759518981141e-01 4.610432707968701812e-04
4.205032316459983122e+03 5.589346889551820574e-01 4.967056145312912603e-04
4.209237348776444378e+03 5.604602584477357263e-01 5.025419110648755719e-04
4.213446586125221984e+03 5.621947038452730361e-01 5.149687514123216670e-04
4.217660032711349231e+03 5.638205930756257089e-01 5.187627409648542295e-04
4.221877692744061278e+03 5.654609244665643741e-01 5.436765130135427695e-04
4.226099570436806971e+03 5.670423603457322992e-01 5.846487154034344129e-04
4.230325670007245208e+03 5.688003645982738776e-01 4.994491670963241989e-04
4.234555995677254032e+03 5.710738609389230946e-01 4.554589768524920190e-04
