# starting wavelength: 3419.320
# ending wavelength: 7279.780
# wav flux eflux
3.422546655310141887e+03 1.279611632146267608e+00 2.424015626456245409e-02
3.425969201965453522e+03 1.346377036008187922e+00 2.281205531932074121e-02
3.429395171167419903e+03 1.404955398280264944e+00 1.735000085814602730e-02
3.432824566338588284e+03 1.453853676199616141e+00 1.336810042504018442e-02
3.436257390904928343e+03 1.496709051257248069e+00 1.044059640096943811e-02
3.439693648295834464e+03 1.533250047714101338e+00 8.395033433172511411e-03
3.443133341944131189e+03 1.565025747997033978e+00 6.833137820623711757e-03
3.446576475286076402e+03 1.592289781816777383e+00 5.577282668270351629e-03
3.450023051761363604e+03 1.615250584405451661e+00 4.729668325812046853e-03
3.453473074813126004e+03 1.634638519809921364e+00 4.157745177340285703e-03
3.456926547887940615e+03 1.651497975374984550e+00 4.046449849485129514e-03
3.460383474435829612e+03 1.666137156543169073e+00 4.221142676402727875e-03
3.463843857910266706e+03 1.676267485229168352e+00 3.889359974545825768e-03
3.467307701768178049e+03 1.682729577292522816e+00 3.626911627127462831e-03
3.470775009469947236e+03 1.685568044898215323e+00 3.475412404522739730e-03
3.474245784479418489e+03 1.685988647437867138e+00 3.334012185638044780e-03
3.477720030263898934e+03 1.683929941191048663e+00 3.246268437634152945e-03
3.481197750294164052e+03 1.680487487166233862e+00 3.210028635909076018e-03
3.484678948044459503e+03 1.675319164732208321e+00 3.168469548208849990e-03
3.488163626992504760e+03 1.668779197237368894e+00 3.248592173561602823e-03
3.491651790619498570e+03 1.661169885500086041e+00 3.205847141797872873e-03
3.495143442410119405e+03 1.652741475986923891e+00 3.221379592419761594e-03
3.498638585852530468e+03 1.642307694811617536e+00 4.013557133903966102e-03
3.502137224438384237e+03 1.632393401970462010e+00 4.268596063057991490e-03
3.505639361662823831e+03 1.623603270132079501e+00 4.269087258175951506e-03
3.509145001024487556e+03 1.615400191990167489e+00 4.354516556359152440e-03
3.512654146025513455e+03 1.608080254557685329e+00 4.434663733237143024e-03
3.516166800171540217e+03 1.602483711026151170e+00 4.208466921132267800e-03
3.519682966971712631e+03 1.599506524318513145e+00 3.764530745831296769e-03
3.523202649938685681e+03 1.599467260083672571e+00 3.443169086835433639e-03
3.526725852588625457e+03 1.600847807481569296e+00 3.140660816617064748e-03
3.530252578441215064e+03 1.607385101303593578e+00 3.975843205730945906e-03
3.533782831019657806e+03 1.617780160000918732e+00 5.239614381252855752e-03
3.537316613850678550e+03 1.630088940755326288e+00 5.639814077161958185e-03
3.540853930464530094e+03 1.643810982722681890e+00 5.136103701266262443e-03
3.544394784394995895e+03 1.655735024045776882e+00 5.093682064418323524e-03
3.547939179179392340e+03 1.668457554378512286e+00 5.016821417373671516e-03
3.551487118358572843e+03 1.681739945074908871e+00 4.656587381100799582e-03
3.555038605476932389e+03 1.693779823761310865e+00 4.339725817007439139e-03
3.558593644082410719e+03 1.703505830706119717e+00 4.581823691982957539e-03
3.562152237726494150e+03 1.712817289377605245e+00 4.696459229044237620e-03
3.565714389964221937e+03 1.721528075642872357e+00 4.851860207995026091e-03
3.569280104354187188e+03 1.728891720188571846e+00 4.836969547394939263e-03
3.572849384458542772e+03 1.734892771194906258e+00 4.834611359302793190e-03
3.576422233843002232e+03 1.740106986527155453e+00 4.839065302763573793e-03
3.579998656076846601e+03 1.741348534109584900e+00 4.802361005735241925e-03
3.583578654732924406e+03 1.739833187787444890e+00 4.651271394278237888e-03
3.587162233387658489e+03 1.737607129814348506e+00 4.529385674783246128e-03
3.590749395621047370e+03 1.734132311934858839e+00 4.601198610218399168e-03
3.594340145016669794e+03 1.728928153836962300e+00 4.637798235496409099e-03
3.597934485161687462e+03 1.723107938269235362e+00 4.512535063788970444e-03
3.601532419646850485e+03 1.715553574494191436e+00 4.301144114300763967e-03
3.605133952066498296e+03 1.706566724763551424e+00 4.336362222525861308e-03
3.608739086018566013e+03 1.695674787600325972e+00 4.283755063059319253e-03
3.612347825104585809e+03 1.681853590609440730e+00 4.577306989789100243e-03
3.615960172929691907e+03 1.668806000658472843e+00 4.960561165436089791e-03
3.619576133102622407e+03 1.652071534996001789e+00 5.409043530789394739e-03
3.623195709235726554e+03 1.634676777932714264e+00 5.184412437031393067e-03
3.626818904944963379e+03 1.619118365852469044e+00 4.354344532412715921e-03
3.630445723849909427e+03 1.604934611140574008e+00 3.629087634075932843e-03
3.634076169573760581e+03 1.593161035299159423e+00 3.587570584323356189e-03
3.637710245743335690e+03 1.584452080428390364e+00 3.966533172414734784e-03
3.641347955989080219e+03 1.576352407444368664e+00 3.821836452784910590e-03
3.644989303945070333e+03 1.568381651198776927e+00 3.965573431345673604e-03
3.648634293249016537e+03 1.560473444764108431e+00 3.942605203639549735e-03
3.652282927542266862e+03 1.555259288055232059e+00 3.799885468178228632e-03
3.655935210469810499e+03 1.550709557488671564e+00 3.487684190486008921e-03
3.659591145680281443e+03 1.543440766902125283e+00 3.525306503442964152e-03
3.663250736825963031e+03 1.535464460983261503e+00 3.462091057018716611e-03
3.666913987562790226e+03 1.527744498921197902e+00 3.792335286571164345e-03
3.670580901550354156e+03 1.518951791580408939e+00 4.140880662813115586e-03
3.674251482451905758e+03 1.506001035592535064e+00 4.610893468373721341e-03
3.677925733934358959e+03 1.488451080587396946e+00 4.790228876425371186e-03
3.681603659668294313e+03 1.462883389187277228e+00 4.996042930966427230e-03
3.685285263327964003e+03 1.432004391841299906e+00 5.049649827973566249e-03
3.688970548591293209e+03 1.396944972065976120e+00 4.831709892324203247e-03
3.692659519139885560e+03 1.355468345645572281e+00 4.662203923988841349e-03
3.696352178659026777e+03 1.306479792626188630e+00 4.450609010996991848e-03
3.700048530837686940e+03 1.250674169327767427e+00 4.692553693381648454e-03
3.703748579368525952e+03 1.189099797282349602e+00 5.251873924510768073e-03
3.707452327947895355e+03 1.121778122975538583e+00 5.696188235129663602e-03
3.711159780275844696e+03 1.050574285135538188e+00 5.929380196271235963e-03
3.714870940056121526e+03 9.773613462909965799e-01 4.910379853146606619e-03
3.718585810996179134e+03 9.052313411747284766e-01 3.366563959587945496e-03
3.722304396807176545e+03 8.371760160821182239e-01 2.644151130934287684e-03
3.726026701203984885e+03 7.732471601096424507e-01 1.881432224088026286e-03
3.729752727905190113e+03 7.158005796210444860e-01 1.855324778814504850e-03
3.733482480633096657e+03 6.661677276502273592e-01 2.325455972010946702e-03
3.737215963113731050e+03 6.225639287612164674e-01 2.252755582438658449e-03
3.740953179076846027e+03 5.864795981035060279e-01 1.864670585629871549e-03
3.744694132255923705e+03 5.546984419631513230e-01 1.938768220146684087e-03
3.748438826388181042e+03 5.287498265544758880e-01 1.962933514125050297e-03
3.752187265214570289e+03 5.086064679527939614e-01 1.896295257477060604e-03
3.755939452479786269e+03 4.945722169955992231e-01 1.838643372570914272e-03
3.759695391932267285e+03 4.852040964187466776e-01 1.624470543838525249e-03
3.763455087324201031e+03 4.804313202560183682e-01 1.558285858780796658e-03
3.767218542411526414e+03 4.783716584700036245e-01 1.578510853717426379e-03
3.770985760953939007e+03 4.794628826360227136e-01 1.464964092200788911e-03
3.774756746714894234e+03 4.851613326399326076e-01 1.915336829488280702e-03
3.778531503461610555e+03 4.933330188643034742e-01 1.909350419287529372e-03
3.782310034965073100e+03 5.033621907313367005e-01 1.987314310884238065e-03
3.786092345000039586e+03 5.153919709156002948e-01 2.807894545675222470e-03
3.789878437345040766e+03 5.317757575198494013e-01 2.955672838459870878e-03
3.793668315782387253e+03 5.506675184296060399e-01 3.192176385483236605e-03
3.797461984098170888e+03 5.746828909743967317e-01 3.088158429070302861e-03
3.801259446082270188e+03 6.032004329792377550e-01 3.070046578313048377e-03
3.805060705528353537e+03 6.364691409714007264e-01 3.156370036634943265e-03
3.808865766233883278e+03 6.734769135154394792e-01 3.785416684693494391e-03
3.812674632000118436e+03 7.148073888614865368e-01 4.280427968599455693e-03
3.816487306632119726e+03 7.571179548977867713e-01 4.745223759127645963e-03
3.820303793938753188e+03 7.992951206972974676e-01 3.984245508971898456e-03
3.824124097732693372e+03 8.404436045897447638e-01 3.660461372196639231e-03
3.827948221830427428e+03 8.796959270656914409e-01 4.509924169926443800e-03
3.831776170052258749e+03 9.185525252225492654e-01 5.398563439333398974e-03
3.835607946222312421e+03 9.595271911507506912e-01 5.483887938796763208e-03
3.839443554168536139e+03 1.002187405460446046e+00 5.031159442326158665e-03
3.843282997722705659e+03 1.046960641105482592e+00 3.835279157163131499e-03
3.847126280720429804e+03 1.096634534551061968e+00 4.591265768926536782e-03
3.850973407001151372e+03 1.150391896151851778e+00 5.143172822287707217e-03
3.854824380408153957e+03 1.205607246611382966e+00 5.078271011156398375e-03
3.858679204788563311e+03 1.260948233466472557e+00 4.286210204707668718e-03
3.862537883993353262e+03 1.314801441667774684e+00 3.799099458760439585e-03
3.866400421877347981e+03 1.368368416793924736e+00 3.611381837699362881e-03
3.870266822299226533e+03 1.419002528573157784e+00 4.649949305784313244e-03
3.874137089121526969e+03 1.470363328160596783e+00 4.785452371315805295e-03
3.878011226210649966e+03 1.524205820208608619e+00 4.093232326098442120e-03
3.881889237436861549e+03 1.582151007632356610e+00 2.827314238796616204e-03
3.885771126674299921e+03 1.645972267402021405e+00 2.397585861963733283e-03
3.889656897800975457e+03 1.715317137445241391e+00 2.531148666195929577e-03
3.893546554698777527e+03 1.788446695269247266e+00 2.526896059126451394e-03
3.897440101253477678e+03 1.866732201934657942e+00 2.183160821541211324e-03
3.901337541354732366e+03 1.945890775349780721e+00 2.114327871271949166e-03
3.905238878896088409e+03 2.024136279365390312e+00 1.829796945341740071e-03
3.909144117774985716e+03 2.100255556502763632e+00 1.462399579392234354e-03
3.913053261892762293e+03 2.172254235746687634e+00 2.086472214619289160e-03
3.916966315154656058e+03 2.238067070956603732e+00 2.882329319372318836e-03
3.920883281469812118e+03 2.296139946227141238e+00 3.005604520969756745e-03
3.924804164751283224e+03 2.343758076486017305e+00 3.327772305451787236e-03
3.928728968916035683e+03 2.379570873676750242e+00 2.944795683903717130e-03
3.932657697884953450e+03 2.402560437423729045e+00 2.474702966892871822e-03
3.936590355582839493e+03 2.411876550179775869e+00 3.463959100789629209e-03
3.940526945938423523e+03 2.409943641148579285e+00 4.646376530753370745e-03
3.944467472884363360e+03 2.398419607543682552e+00 4.875198101519892177e-03
3.948411940357249023e+03 2.380063285586428101e+00 4.763189417166290365e-03
3.952360352297607733e+03 2.357404751282196731e+00 4.458735835524949703e-03
3.956312712649906643e+03 2.335906550962852712e+00 3.346161139003316510e-03
3.960269025362557841e+03 2.316799876036318651e+00 3.191928686650444963e-03
3.964229294387921527e+03 2.299013085732053430e+00 3.113353430852747270e-03
3.968193523682310570e+03 2.284636256354085404e+00 3.697050802690564960e-03
3.972161717205994591e+03 2.273380972943850331e+00 3.405555561223243006e-03
3.976133878923201792e+03 2.263112245182043125e+00 2.574971120735678083e-03
3.980110012802126221e+03 2.251850232082847736e+00 2.111487609494176916e-03
3.984090122814929600e+03 2.239082892323372320e+00 2.020859563828345407e-03
3.988074212937745870e+03 2.224700052179612086e+00 2.026824601563204618e-03
3.992062287150684824e+03 2.205793471895996838e+00 1.986770498693119467e-03
3.996054349437837118e+03 2.182771125548195190e+00 1.968291061071786134e-03
4.000050403787276082e+03 2.155870342130782547e+00 2.073305319265009508e-03
4.004050454191064546e+03 2.125054546307703962e+00 2.302139333978106810e-03
4.008054504645257111e+03 2.091622596569635117e+00 2.293185633666689101e-03
4.012062559149903791e+03 2.053984245812754406e+00 2.124203772394879248e-03
4.016074621709055009e+03 2.013725983511409634e+00 2.144704861824469743e-03
4.020090696330765240e+03 1.970393690872848547e+00 2.136791909963020597e-03
4.024110787027097558e+03 1.924046067431607554e+00 2.106773723010076441e-03
4.028134897814125907e+03 1.874292231697061828e+00 1.760413011826116860e-03
4.032163032711941469e+03 1.824881071547957534e+00 1.994529329301845434e-03
4.036195195744654484e+03 1.773196086386263692e+00 1.911045603871791218e-03
4.040231390940400615e+03 1.719338933228796495e+00 1.878488744038217095e-03
4.044271622331342314e+03 1.664934402155485937e+00 1.680871592569029883e-03
4.048315893953675186e+03 1.608985102650056120e+00 2.446989684371100263e-03
4.052364209847629809e+03 1.554410619305300667e+00 2.483426508983000228e-03
4.056416574057479011e+03 1.503095349654616220e+00 2.242545218117855677e-03
4.060472990631537868e+03 1.455220124962060657e+00 2.153555639157903826e-03
4.064533463622170530e+03 1.411945995419064959e+00 2.417381384564395216e-03
4.068597997085794304e+03 1.374074174492506684e+00 2.871638406199411055e-03
4.072666595082881486e+03 1.343929123155726879e+00 3.388896605057512522e-03
4.076739261677965715e+03 1.322082668248382831e+00 3.230203170502970317e-03
4.080816000939644709e+03 1.310448026420066858e+00 2.789807156311732705e-03
4.084896816940585722e+03 1.309273604809125580e+00 3.063387754278500217e-03
4.088981713757527814e+03 1.316672811395040998e+00 3.607412545532785123e-03
4.093070695471286854e+03 1.330802277504210762e+00 4.208604736430556631e-03
4.097163766166759160e+03 1.348603771685073394e+00 4.939858686230697363e-03
4.101260929932927866e+03 1.368295328440001013e+00 5.164746739581422587e-03
4.105362190862862008e+03 1.385938108867487806e+00 4.774892999214167336e-03
4.109467553053726078e+03 1.401456517746042962e+00 3.623155496501251870e-03
4.113577020606780934e+03 1.410807838712037521e+00 3.110690037429406519e-03
4.117690597627389252e+03 1.414214857975480300e+00 3.537022533931405074e-03
4.121808288225018259e+03 1.411005567246907288e+00 4.489732063437415661e-03
4.125930096513244280e+03 1.403065909969116065e+00 3.704696552717970728e-03
4.130056026609759101e+03 1.394386994527976098e+00 2.414965138997250595e-03
4.134186082636369974e+03 1.387854927373122438e+00 1.942545080003837488e-03
4.138320268719007800e+03 1.382169279908968873e+00 1.675515168891602126e-03
4.142458588987728035e+03 1.379104150995290379e+00 1.477186736808176878e-03
4.146601047576717065e+03 1.379618815672015719e+00 1.436495045984726316e-03
4.150747648624294925e+03 1.383421542509675417e+00 1.414742694697368290e-03
4.154898396272920763e+03 1.391522425463667112e+00 1.920903378952436335e-03
4.159053294669195566e+03 1.402275573878616788e+00 1.929031625723309860e-03
4.163212347963865795e+03 1.414591277518432832e+00 2.415956705127012254e-03
4.167375560311830668e+03 1.426476715432819065e+00 2.714910975497717392e-03
4.171542935872143971e+03 1.436614575819293194e+00 2.647982658689395242e-03
4.175714478808017702e+03 1.444305401092869534e+00 2.365011851866436095e-03
4.179890193286827525e+03 1.449489180662608456e+00 2.141567027537075955e-03
4.184070083480115500e+03 1.450952257903759923e+00 2.319717669806465286e-03
4.188254153563597356e+03 1.450657303622734817e+00 2.434181769692514256e-03
4.192442407717161586e+03 1.447368161059694680e+00 2.735944255865739323e-03
4.196634850124880359e+03 1.442806892706012256e+00 3.048473649031579677e-03
4.200831484975006788e+03 1.438140260680068616e+00 2.337993619430259271e-03
4.205032316459983122e+03 1.435443466801281209e+00 1.629377533041069396e-03
4.209237348776444378e+03 1.436932855403188380e+00 1.326587473440319666e-03
4.213446586125221984e+03 1.442578290785831996e+00 1.656656095649415095e-03
4.217660032711349231e+03 1.450848485940607446e+00 2.169542905198041088e-03
4.221877692744061278e+03 1.461112045320156483e+00 2.055801777738462937e-03
4.226099570436806971e+03 1.472997442954480540e+00 2.033842016971772193e-03
4.230325670007245208e+03 1.484704100276377225e+00 1.943215511832623683e-03
4.234555995677254032e+03 1.496636585661619723e+00 1.565356854028007987e-03
4.238790551672932452e+03 1.507199726445527688e+00 1.652405164456055998e-03
4.243029342224606808e+03 1.517539578956916602e+00 1.804068393491605219e-03
4.247272371566832589e+03 1.526963471725971244e+00 1.987762348119395412e-03
4.251519643938400804e+03 1.535470488041998482e+00 1.882638858175715016e-03
4.255771163582340705e+03 1.543840086597526140e+00 1.413660434849713272e-03
4.260026934745924336e+03 1.552689078552765167e+00 1.713562206757806910e-03
4.264286961680671993e+03 1.560167940467777736e+00 1.715173649775054467e-03
4.268551248642354039e+03 1.567954817661145306e+00 1.741267527369054794e-03
4.272819799890998183e+03 1.573730847442665448e+00 1.488836263245778366e-03
4.277092619690890388e+03 1.576545831820137078e+00 1.617491869135179606e-03
4.281369712310583054e+03 1.577562008592603870e+00 1.593016275671060465e-03
4.285651082022895025e+03 1.575181842677879418e+00 1.530569447562114826e-03
4.289936733104918858e+03 1.571327479312070619e+00 1.855563836440484544e-03
4.294226669838025373e+03 1.563541417036932168e+00 1.940825628425309158e-03
4.298520896507864563e+03 1.552582030521402645e+00 2.089119084208748440e-03
4.302819417404373780e+03 1.536649710986337292e+00 2.162990064619802182e-03
4.307122236821779552e+03 1.518395866945288386e+00 2.204030905465575400e-03
4.311429359058603040e+03 1.496844694004883847e+00 2.658451016680600954e-03
4.315740788417662770e+03 1.473144495821785638e+00 3.250314793278325214e-03
4.320056529206081905e+03 1.448881809535422782e+00 3.244710332242925054e-03
4.324376585735290064e+03 1.424249362485477954e+00 3.017653147871815402e-03
4.328700962321026054e+03 1.399429207413432463e+00 3.145074953217942820e-03
4.333029663283348782e+03 1.373844288058477581e+00 3.685942879692560327e-03
4.337362692946633615e+03 1.347435233284098866e+00 4.085885554961231521e-03
4.341700055639581478e+03 1.319186354492579705e+00 3.849656135683475217e-03
4.346041755695222491e+03 1.287147955875962646e+00 3.519168128476053616e-03
4.350387797450919606e+03 1.253088739086484660e+00 2.772297921110857249e-03
4.354738185248371337e+03 1.215057558498882306e+00 2.842311484437779964e-03
4.359092923433621763e+03 1.172946756577239791e+00 3.133153271812700019e-03
4.363452016357056891e+03 1.129859747307727202e+00 2.893733230795781253e-03
4.367815468373414660e+03 1.085493176673353100e+00 2.286838144894624749e-03
4.372183283841789489e+03 1.042469498783841653e+00 2.371401132513847095e-03
4.376555467125633186e+03 9.999098662266335813e-01 2.340939445845009563e-03
4.380932022592760404e+03 9.611620107127536450e-01 2.405199749808297708e-03
4.385312954615354101e+03 9.257342308158702515e-01 3.128345299662051073e-03
4.389698267569970994e+03 8.972118980524196319e-01 3.605686340939895981e-03
4.394087965837542470e+03 8.752780243995841314e-01 3.826184347280456397e-03
4.398482053803381859e+03 8.614656756423297868e-01 3.336801476480826065e-03
4.402880535857186260e+03 8.572607213254127556e-01 2.880988623757918272e-03
4.407283416393044718e+03 8.628483291653860077e-01 2.989892627232248849e-03
4.411690699809440048e+03 8.783971831168503330e-01 3.923347554697636554e-03
4.416102390509250654e+03 9.018106640127646623e-01 4.304646665990322432e-03
4.420518492899761441e+03 9.311283921411742659e-01 3.791343791287337707e-03
4.424939011392662906e+03 9.646464777951515579e-01 2.837685659557595552e-03
4.429363950404056595e+03 9.999906676472243294e-01 2.355978590860678852e-03
4.433793314354462382e+03 1.036794968177971565e+00 2.150167221282626908e-03
4.438227107668818462e+03 1.073169801846836080e+00 2.140375603738019130e-03
4.442665334776488635e+03 1.108212185223119262e+00 1.624185828796741952e-03
4.447108000111265937e+03 1.143860767314168303e+00 1.671197423451853143e-03
4.451555108111379013e+03 1.178613129600235565e+00 1.740565202712635430e-03
4.456006663219492111e+03 1.212453599458069409e+00 1.682828783005173214e-03
