# starting wavelength: 4870.920
# ending wavelength: 8348.130
# wav flux eflux
4.875428645848292945e+03 1.217388668463651236e+00 1.303917996034588411e-02
4.880304074494142696e+03 1.238679707467571722e+00 1.556949128124484986e-02
4.885184378568638749e+03 1.253262930923594531e+00 1.250953495694192945e-02
4.890069562947209306e+03 1.266417184616898561e+00 9.395721969843985610e-03
4.894959632510157462e+03 1.278643279168448554e+00 7.453610028790429512e-03
4.899854592142669389e+03 1.287764760561595612e+00 5.778142078747863265e-03
4.904754446734813428e+03 1.294836061771384106e+00 4.593568858210630296e-03
4.909659201181550088e+03 1.300368619299583139e+00 3.871680256046896532e-03
4.914568860382732964e+03 1.303709827235893792e+00 3.220300586117546583e-03
4.919483429243117826e+03 1.305416249919798100e+00 2.746355924908416152e-03
4.924402912672362618e+03 1.305737622153550381e+00 2.394091450587238195e-03
4.929327315585036558e+03 1.305399533237414866e+00 2.173676724708565114e-03
4.934256642900622865e+03 1.303945845071078136e+00 1.977955825959716411e-03
4.939190899543525120e+03 1.301020389871868188e+00 1.955975507922492682e-03
4.944130090443070912e+03 1.298010050975743290e+00 1.866510316007272911e-03
4.949074220533515472e+03 1.295058965973713505e+00 1.782429276479724402e-03
4.954023294754050767e+03 1.291367327086155203e+00 1.843424763865601172e-03
4.958977318048806410e+03 1.288136912284077784e+00 1.915538101920425925e-03
4.963936295366856939e+03 1.285681029710420642e+00 1.913722372148360601e-03
4.968900231662225451e+03 1.283608385263388385e+00 1.953880345091369829e-03
4.973869131893889062e+03 1.281865735103052240e+00 1.893063608188501898e-03
4.978843001025784361e+03 1.281004746043859610e+00 1.910192440427731838e-03
4.983821844026811959e+03 1.281359248537278228e+00 2.225753579614483165e-03
4.988805665870840130e+03 1.282214200885330779e+00 2.306516947461241182e-03
4.993794471536712990e+03 1.282777690308111174e+00 2.338061916285831283e-03
4.998788266008251412e+03 1.284224904374889009e+00 2.366338265880806903e-03
5.003787054274261209e+03 1.286150106371764190e+00 2.452478223309026775e-03
5.008790841328536771e+03 1.289263417265750444e+00 2.446441243391459484e-03
5.013799632169867436e+03 1.293506634795581700e+00 2.427177479017063842e-03
5.018813431802038394e+03 1.298599092223635454e+00 2.378137120815604702e-03
5.023832245233842514e+03 1.303020075792685084e+00 2.385788747310988930e-03
5.028856077479077612e+03 1.306932126367791325e+00 2.430201443010680546e-03
5.033884933556558281e+03 1.309872837584272753e+00 2.412940279015434158e-03
5.038918818490116792e+03 1.312126078896342474e+00 2.465476933984341555e-03
5.043957737308608557e+03 1.315568273628081375e+00 2.781556498510957473e-03
5.049001695045918495e+03 1.318886816261744199e+00 2.531116836893243863e-03
5.054050696740966487e+03 1.320099513997333496e+00 2.661193291448047185e-03
5.059104747437709193e+03 1.320131458731680141e+00 2.687057349812906146e-03
5.064163852185148244e+03 1.320093883421231906e+00 2.682821731260369696e-03
5.069228016037335692e+03 1.317925288334507172e+00 2.791749091508740743e-03
5.074297244053374015e+03 1.316508930129610899e+00 2.919854591858415515e-03
5.079371541297429758e+03 1.314099792384593401e+00 3.069716923116527340e-03
5.084450912838728073e+03 1.311760662585319537e+00 3.275873744282193495e-03
5.089535363751569093e+03 1.309381431662853146e+00 3.261927397468900210e-03
5.094624899115322478e+03 1.307822951885377005e+00 3.307562324526639504e-03
5.099719524014439230e+03 1.306298051770804713e+00 3.348114113097262583e-03
5.104819243538455339e+03 1.303237770843100218e+00 3.001621899181460516e-03
5.109924062781995417e+03 1.301740076752235575e+00 3.012003102729306474e-03
5.115033986844779065e+03 1.302304133112370588e+00 3.073352316759701049e-03
5.120149020831625421e+03 1.304846124302659671e+00 3.166147271092847621e-03
5.125269169852458617e+03 1.309595803297171956e+00 2.939238606411635150e-03
5.130394439022313236e+03 1.314338311855588470e+00 3.229153030828473686e-03
5.135524833461337039e+03 1.319555679860029196e+00 3.221351010892287408e-03
5.140660358294800062e+03 1.326722236366869812e+00 3.133197075316558437e-03
5.145801018653096435e+03 1.335735574977141127e+00 3.198423635387610733e-03
5.150946819671751655e+03 1.346694004209887385e+00 3.334489722124516810e-03
5.156097766491425318e+03 1.357821037147376453e+00 4.078217042833815788e-03
5.161253864257918394e+03 1.370203296196167209e+00 4.850616340930943501e-03
5.166415118122177773e+03 1.382690500105091980e+00 5.634371762566954024e-03
5.171581533240301724e+03 1.393411124849597504e+00 4.799476422843834168e-03
5.176753114773543530e+03 1.398775452293666621e+00 4.549118044172220134e-03
5.181929867888318768e+03 1.401217598371672590e+00 4.671119464198700798e-03
5.187111797756208944e+03 1.400489181840807174e+00 4.573998528472301636e-03
5.192298909553966951e+03 1.393529893883253212e+00 5.436257423597540619e-03
5.197491208463522526e+03 1.381680704844811647e+00 5.558841869503688797e-03
5.202688699671987706e+03 1.368956463565473625e+00 4.319303910400355828e-03
5.207891388371661378e+03 1.358609825243990876e+00 4.810765751676560238e-03
5.213099279760034733e+03 1.347457364299972316e+00 5.252852968599469423e-03
5.218312379039796724e+03 1.335416337054456060e+00 5.596469952594711195e-03
5.223530691418837705e+03 1.324183009641737074e+00 5.678044486678975912e-03
5.228754222110258524e+03 1.314968995363140492e+00 5.229853092690628195e-03
5.233982976332370527e+03 1.304876997516448256e+00 5.617263921559606348e-03
5.239216959308704645e+03 1.297991355609048547e+00 5.586788594753844782e-03
5.244456176268015042e+03 1.291530090760257599e+00 5.614663577817091689e-03
5.249700632444284565e+03 1.284505881331512223e+00 5.580520966155425033e-03
5.254950333076731113e+03 1.278260635225929809e+00 4.998973014917370596e-03
5.260205283409809454e+03 1.275939372605609856e+00 5.260957365093323762e-03
5.265465488693221232e+03 1.276079112658339509e+00 6.260595138435661247e-03
5.270730954181915877e+03 1.277489538125196722e+00 6.928843067331170655e-03
5.276001685136099695e+03 1.278676015481927664e+00 5.686033531383626397e-03
5.281277686821237694e+03 1.276224378861087194e+00 5.501719617486711469e-03
5.286558964508059944e+03 1.271058210153020118e+00 6.636396829233721754e-03
5.291845523472569766e+03 1.265365796250817798e+00 7.243578098817412235e-03
5.297137368996044643e+03 1.258163073803893361e+00 6.736146426335463608e-03
5.302434506365042580e+03 1.251191617703690140e+00 5.081687877577250115e-03
5.307736940871409388e+03 1.248776876094649602e+00 5.922812619195996081e-03
5.313044677812282316e+03 1.249008283929151641e+00 6.491880668663582189e-03
5.318357722490096421e+03 1.248660987402921307e+00 6.292314978404572878e-03
5.323676080212588204e+03 1.247892819431978051e+00 5.990399323765820995e-03
5.328999756292802886e+03 1.245599485827549202e+00 6.211638234195516507e-03
5.334328756049097137e+03 1.243185044239970560e+00 6.386785013453049296e-03
5.339663084805148173e+03 1.241798801145014952e+00 6.410502520558335367e-03
5.345002747889954662e+03 1.239874384464675794e+00 6.445716562646776164e-03
5.350347750637846730e+03 1.234502555537078772e+00 5.782185977553287032e-03
5.355698098388485960e+03 1.228412338211956722e+00 4.694797150758398506e-03
5.361053796486876308e+03 1.225445705189900369e+00 4.937754123332866417e-03
5.366414850283365013e+03 1.224120574756703883e+00 5.036287658589684059e-03
5.371781265133649867e+03 1.224311436055051772e+00 4.003073560494872958e-03
5.377153046398785591e+03 1.222341006970100397e+00 3.325367050116310053e-03
5.382530199445186554e+03 1.218506076190304599e+00 3.181667227976404250e-03
5.387912729644633146e+03 1.210572314848058495e+00 3.224632712437460868e-03
5.393300642374279960e+03 1.200562732654631315e+00 3.089493574061582138e-03
5.398693943016655794e+03 1.187619122099951019e+00 2.612354746603485090e-03
5.404092636959673655e+03 1.175141000181201711e+00 2.335250112644763395e-03
5.409496729596635305e+03 1.164831093526151440e+00 2.073885148398216596e-03
5.414906226326233991e+03 1.154387372150845303e+00 1.978046450049513946e-03
5.420321132552561721e+03 1.144124165702212759e+00 2.072895631779324982e-03
5.425741453685116539e+03 1.134888988006782728e+00 2.338291334185366166e-03
5.431167195138803436e+03 1.125989272992397483e+00 2.091724559253363338e-03
5.436598362333943442e+03 1.122166714433756818e+00 2.127593928834275224e-03
5.442034960696279086e+03 1.121315805214722516e+00 2.190049348973419508e-03
5.447476995656978033e+03 1.122333767479366529e+00 2.882191726951185539e-03
5.452924472652636723e+03 1.127325725778555832e+00 3.066083193554040246e-03
5.458377397125291282e+03 1.136987150898912446e+00 3.037033244907633850e-03
5.463835774522417523e+03 1.150462866651721150e+00 3.335890046815665703e-03
5.469299610296941864e+03 1.166646846473497146e+00 5.484848011139283573e-03
5.474768909907241323e+03 1.180014562860452587e+00 5.870844389803015449e-03
5.480243678817149885e+03 1.189197126763743784e+00 5.914701126101237598e-03
5.485723922495968509e+03 1.195104887490922474e+00 5.120833916669621268e-03
5.491209646418466946e+03 1.194303165076723516e+00 4.834757193213018792e-03
5.496700856064887375e+03 1.186933471941645557e+00 4.854294391350684815e-03
5.502197556920953502e+03 1.172093574851168274e+00 5.282620215246382374e-03
5.507699754477876013e+03 1.153260838588854975e+00 5.505087938706416072e-03
5.513207454232356213e+03 1.130118140740329791e+00 5.666435588563227717e-03
5.518720661686590574e+03 1.106008309979031212e+00 5.208265015146469265e-03
5.524239382348278923e+03 1.082365105000667516e+00 4.593794774916950055e-03
5.529763621730628984e+03 1.061200492030434539e+00 3.885487045749034737e-03
5.535293385352360929e+03 1.044848066391395491e+00 3.637600777917689415e-03
5.540828678737715563e+03 1.036982193928859486e+00 3.057807806893261468e-03
5.546369507416455235e+03 1.033648045674586013e+00 2.425865020846629250e-03
5.551915876923872929e+03 1.029688641698527807e+00 3.683723301636203287e-03
5.557467792800798634e+03 1.031652030749548921e+00 3.549048463163769450e-03
5.563025260593602070e+03 1.038428440549119980e+00 3.783188664950713678e-03
5.568588285854197238e+03 1.048511620201020733e+00 4.799710838190500081e-03
5.574156874140053333e+03 1.062718556924717284e+00 5.617150760336153854e-03
5.579731031014194741e+03 1.071324404782137307e+00 5.439859320471662242e-03
5.585310762045211050e+03 1.076804281849782940e+00 5.157044450172632195e-03
5.590896072807257951e+03 1.077694366263944881e+00 4.941807044109927834e-03
5.596486968880067252e+03 1.074171750523565283e+00 4.780760582006254172e-03
5.602083455848949598e+03 1.063717042207028118e+00 5.440762932944055372e-03
5.607685539304799931e+03 1.049805509620818533e+00 5.452439825813448770e-03
5.613293224844106589e+03 1.032314459046671518e+00 5.420553570366271404e-03
5.618906518068952209e+03 1.010997579089705667e+00 5.099396346128814810e-03
5.624525424587023736e+03 9.904282704764146850e-01 4.809767763719960051e-03
5.630149950011612418e+03 9.713338381758844786e-01 4.690830746618705228e-03
5.635780099961625638e+03 9.542980733151320560e-01 5.089289550653138851e-03
5.641415880061589633e+03 9.397167628699373276e-01 5.331380283312859431e-03
5.647057295941652228e+03 9.269802826696907916e-01 4.385739812267794302e-03
5.652704353237596479e+03 9.161592058413445816e-01 3.344583892995414958e-03
5.658357057590835211e+03 9.010074166543782237e-01 4.132626546926556482e-03
5.664015414648428305e+03 8.903971758071891340e-01 5.108110069360656015e-03
5.669679430063079053e+03 8.855600139711152785e-01 5.031680898302402262e-03
5.675349109493143260e+03 8.887488886159345958e-01 4.680402552645146833e-03
5.681024458602638333e+03 9.005595316752944557e-01 4.832470142253558060e-03
5.686705483061243285e+03 9.164740686214613019e-01 4.742943372046150297e-03
5.692392188544306009e+03 9.392014000692077147e-01 5.196883621409456241e-03
5.698084580732852373e+03 9.661002518863117672e-01 5.382389997642062288e-03
5.703782665313587131e+03 9.961104590788140145e-01 5.058360155835463050e-03
5.709486447978903016e+03 1.025759557849901693e+00 4.917643331407479772e-03
5.715195934426883468e+03 1.056651385053738457e+00 4.198120643729167691e-03
5.720911130361312644e+03 1.080037829274996586e+00 3.347604358237530903e-03
5.726632041491675409e+03 1.094141644460909779e+00 3.940883922088927842e-03
5.732358673533169167e+03 1.102546825127234786e+00 3.792896031677425468e-03
5.738091032206703858e+03 1.105817190784716075e+00 3.982335673540352006e-03
5.743829123238912871e+03 1.102800954932380950e+00 4.365113154546562506e-03
5.749572952362153046e+03 1.091965157520572216e+00 4.782873194073814296e-03
5.755322525314517407e+03 1.075715965225815918e+00 6.052452290302858841e-03
5.761077847839834249e+03 1.059819810346365632e+00 6.638894876480000776e-03
5.766838925687675328e+03 1.040911586968198854e+00 6.622084810505655950e-03
5.772605764613364954e+03 1.023752817179284902e+00 5.853319063022489194e-03
5.778378370377980900e+03 1.010681134422220406e+00 5.210162119223368110e-03
5.784156748748360769e+03 1.003048298246558945e+00 5.232013833543547321e-03
5.789940905497111089e+03 1.001407108172460703e+00 5.905192809984703521e-03
5.795730846402610041e+03 1.003759401840430776e+00 6.343059964051582338e-03
5.801526577249013826e+03 1.007927835289543106e+00 5.987655768707178354e-03
5.807328103826264851e+03 1.013140073092005489e+00 5.853968982057731335e-03
5.813135431930093546e+03 1.019463099400200079e+00 5.890442129670236428e-03
5.818948567362025642e+03 1.026833388956146287e+00 5.947550746710217329e-03
5.824767515929389447e+03 1.037236548400172209e+00 5.920942244227347766e-03
5.830592283445320390e+03 1.040489476787109790e+00 5.926649282423876799e-03
5.836422875728768304e+03 1.040234084495509359e+00 5.008985004001450733e-03
5.842259298604498326e+03 1.041539164302915266e+00 5.156752847909641495e-03
5.848101557903105459e+03 1.043744642035534298e+00 4.961140482060754330e-03
5.853949659461010015e+03 1.046530780189379506e+00 4.255433171438484374e-03
5.859803609120473084e+03 1.045489606306611918e+00 5.038762936432775522e-03
5.865663412729595620e+03 1.043802287607701551e+00 5.875136997186824854e-03
5.871529076142326630e+03 1.045189071499169176e+00 6.057627553815337663e-03
5.877400605218471355e+03 1.047960159955191761e+00 5.756156677456786101e-03
5.883278005823691274e+03 1.052706081072147137e+00 5.583299183384798567e-03
5.889161283829516833e+03 1.060570279358974854e+00 6.194260728925597009e-03
5.895050445113348360e+03 1.069240312443661134e+00 6.449647493731617415e-03
5.900945495558464245e+03 1.080279583135085320e+00 5.834262765064601730e-03
5.906846441054024581e+03 1.089009218797618583e+00 4.043068083779148038e-03
5.912753287495080258e+03 1.090870237766116357e+00 4.128058405027005412e-03
5.918666040782577511e+03 1.089072401313271987e+00 4.220579871149937254e-03
5.924584706823361557e+03 1.082146006780997594e+00 4.286523591788753834e-03
5.930509291530187511e+03 1.072907008739967250e+00 4.017357053476722228e-03
5.936439800821719473e+03 1.062319063876723035e+00 4.060523455009385115e-03
5.942376240622543264e+03 1.044357654703246263e+00 3.390530340904982735e-03
5.948318616863167335e+03 1.025796093650716889e+00 3.557094027351818521e-03
5.954266935480032771e+03 1.004609656384914285e+00 3.341237348870669272e-03
5.960221202415515108e+03 9.819117095045114540e-01 3.240907513673420542e-03
5.966181423617932523e+03 9.576619371431011052e-01 3.785813398600154905e-03
5.972147605041552197e+03 9.331039504133652462e-01 4.049464344670627124e-03
5.978119752646595771e+03 9.088796399836905904e-01 3.722421345139324735e-03
5.984097872399243897e+03 8.877489814342408581e-01 3.452292839923639355e-03
5.990081970271645332e+03 8.706097854013483683e-01 3.202100447534269884e-03
5.996072052241918755e+03 8.574437001855272911e-01 3.366253351820012833e-03
6.002068124294162772e+03 8.493168789263064733e-01 4.292430144256324624e-03
6.008070192418459555e+03 8.426649794331084742e-01 4.299402863704009266e-03
6.014078262610879392e+03 8.393857092007226406e-01 3.416238031540417674e-03
6.020092340873492503e+03 8.363998505602869837e-01 2.631830339430385642e-03
6.026112433214368139e+03 8.318875168780360818e-01 2.855703528043962956e-03
6.032138545647584579e+03 8.283107766176240894e-01 2.877813403330196831e-03
6.038170684193233683e+03 8.230808648930753035e-01 2.500485889316504326e-03
6.044208854877429076e+03 8.198777375753124597e-01 2.747475549353358033e-03
6.050253063732308874e+03 8.154399982289846083e-01 2.783817940715791785e-03
6.056303316796042964e+03 8.107174484751946686e-01 3.161236212591211122e-03
6.062359620112841185e+03 8.066991971935544292e-01 2.988182375144987375e-03
6.068421979732956061e+03 7.996070174938634256e-01 3.548345572402907683e-03
6.074490401712690982e+03 7.948843249094569297e-01 3.555685131346386727e-03
6.080564892114405666e+03 7.893366562768553418e-01 4.316526986246175222e-03
6.086645457006521610e+03 7.871954618513835600e-01 4.534199369485326057e-03
6.092732102463530282e+03 7.890126357622194719e-01 4.418612093075770762e-03
6.098824834565995843e+03 7.936136004057623428e-01 4.375190291575610166e-03
6.104923659400564247e+03 8.013123312636608597e-01 4.246864721939435684e-03
6.111028583059966877e+03 8.155526230240895957e-01 4.371113873563947129e-03
6.117139611643028729e+03 8.355522354363273951e-01 4.062951347750969056e-03
6.123256751254673873e+03 8.581079776389433089e-01 4.452520633092883415e-03
6.129380008005929994e+03 8.864321120439180302e-01 5.132944832035760997e-03
6.135509388013938405e+03 9.204903497823704317e-01 5.364685829622140197e-03
6.141644897401954040e+03 9.608347213213531690e-01 5.132024926960194154e-03
6.147786542299358189e+03 1.006129553708805524e+00 4.882951168546490958e-03
6.153934328841659408e+03 1.058020090664663737e+00 5.117107930345195926e-03
6.160088263170503524e+03 1.117016224173363215e+00 8.171112034917663719e-03
6.166248351433675452e+03 1.175947796372492249e+00 9.275672672683957579e-03
6.172414599785111022e+03 1.233605142979155023e+00 7.978652714322602077e-03
6.178587014384898794e+03 1.287840500253904619e+00 6.818644244140486047e-03
6.184765601399285515e+03 1.336693215017819458e+00 6.921414163958857640e-03
6.190950367000687038e+03 1.382752012776566897e+00 6.895497394885788563e-03
6.197141317367689226e+03 1.422123437567568427e+00 6.650720502845160198e-03
6.203338458685059777e+03 1.458981706681051094e+00 6.185185494141637493e-03
6.209541797143746408e+03 1.496866065640688248e+00 6.139677805395701155e-03
6.215751338940892310e+03 1.533116093203309216e+00 6.695212487650105057e-03
6.221967090279835247e+03 1.572355115959162886e+00 7.788013253181366377e-03
6.228189057370116643e+03 1.624904839146795066e+00 7.911069991833160481e-03
6.234417246427488863e+03 1.689711924211214633e+00 7.947023858613363675e-03
6.240651663673918847e+03 1.761872892509154465e+00 9.845201615279235152e-03
6.246892315337594482e+03 1.850373005408800564e+00 9.964985329638492706e-03
6.253139207652934601e+03 1.957082595365820632e+00 9.693913725163287240e-03
6.259392346860589896e+03 2.077840959154792611e+00 1.104736222706159503e-02
6.265651739207452010e+03 2.204149586603310507e+00 1.193312611763138950e-02
6.271917390946661726e+03 2.339865503252022805e+00 1.435986386736733990e-02
6.278189308337610782e+03 2.476542859126548812e+00 1.392398455015462534e-02
6.284467497645950061e+03 2.598070222155046238e+00 1.078920069997836399e-02
6.290751965143597772e+03 2.696165815202093086e+00 9.557121758067324210e-03
6.297042717108744000e+03 2.771542318920626524e+00 9.426043813303202831e-03
6.303339759825854344e+03 2.821235451117360515e+00 9.425163944775907104e-03
6.309643099585682648e+03 2.843376577451361076e+00 9.488615673767556227e-03
6.315952742685270096e+03 2.834923252416517769e+00 9.365459496730696096e-03
6.322268695427957937e+03 2.796774130905882672e+00 9.506562547072435615e-03
6.328590964123387494e+03 2.733421818913525314e+00 9.966045068703036081e-03
6.334919555087512890e+03 2.644294415358234396e+00 9.890210344689969249e-03
6.341254474642602872e+03 2.538597925100829045e+00 9.380233969101243671e-03
6.347595729117247174e+03 2.422917909690816440e+00 9.224581446323088657e-03
