# starting wavelength: 3474.450
# ending wavelength: 7360.260
# wav flux eflux
3.477720030263898934e+03 3.374592438833489139e-01 3.922257320523245966e-02
3.481197750294164052e+03 3.629414709153936380e-01 3.446481576286581500e-02
3.484678948044459503e+03 3.884141834581320007e-01 2.743186266994995098e-02
3.488163626992504760e+03 4.122132596490126200e-01 2.190744958902674996e-02
3.491651790619498570e+03 4.321757196960570035e-01 1.917255514380192954e-02
3.495143442410119405e+03 4.544872535377720291e-01 1.563890056625718422e-02
3.498638585852530468e+03 4.759590675022288275e-01 1.345955874941045377e-02
3.502137224438384237e+03 5.010434229747621204e-01 1.491011018273870510e-02
3.505639361662823831e+03 5.268838474110191239e-01 1.415516245553992761e-02
3.509145001024487556e+03 5.515053609114228816e-01 1.326755290538702767e-02
3.512654146025513455e+03 5.709249038075714378e-01 1.217334537491988194e-02
3.516166800171540217e+03 5.878833077858857115e-01 1.141402049978515465e-02
3.519682966971712631e+03 5.978305855122205692e-01 1.083860066608734012e-02
3.523202649938685681e+03 6.026427580042660326e-01 1.053341279724936096e-02
3.526725852588625457e+03 6.041269144548586656e-01 1.026847607832626769e-02
3.530252578441215064e+03 6.055537234752187414e-01 1.000163643065877898e-02
3.533782831019657806e+03 6.034203352759168748e-01 1.010501319627237632e-02
3.537316613850678550e+03 5.943504159586954216e-01 1.066702752798395597e-02
3.540853930464530094e+03 5.807631285474682548e-01 1.222286602561195590e-02
3.544394784394995895e+03 5.674733703369345683e-01 1.282262701208045086e-02
3.547939179179392340e+03 5.538217281416240034e-01 1.323520862435630455e-02
3.551487118358572843e+03 5.314038805934796494e-01 1.379186891601963047e-02
3.555038605476932389e+03 5.177892294184751609e-01 1.289204897279360232e-02
3.558593644082410719e+03 5.016185353997729690e-01 1.120783602840051511e-02
3.562152237726494150e+03 4.897348707315971605e-01 1.134413370711748019e-02
3.565714389964221937e+03 4.829021210730325420e-01 1.303197119326709313e-02
3.569280104354187188e+03 4.720055566640773415e-01 1.336643953554466149e-02
3.572849384458542772e+03 4.625972924472429582e-01 1.359006889094507668e-02
3.576422233843002232e+03 4.526486187070356548e-01 1.378672996937279141e-02
3.579998656076846601e+03 4.449243498603464020e-01 1.338542254798200971e-02
3.583578654732924406e+03 4.376241802267247238e-01 1.316990081758749251e-02
3.587162233387658489e+03 4.328649564019055318e-01 1.221461591610122424e-02
3.590749395621047370e+03 4.294868011090913762e-01 1.160799095823230806e-02
3.594340145016669794e+03 4.185413811765382186e-01 1.227647139883478525e-02
3.597934485161687462e+03 4.068330928426555637e-01 1.353890563170377648e-02
3.601532419646850485e+03 4.006741863310960272e-01 1.360530333694972074e-02
3.605133952066498296e+03 3.953240802828743572e-01 1.350145636339208401e-02
3.608739086018566013e+03 3.862776585993152878e-01 1.272005311804479295e-02
3.612347825104585809e+03 3.785979488317712249e-01 1.183929703109431845e-02
3.615960172929691907e+03 3.710512737870834132e-01 1.182802480442962136e-02
3.619576133102622407e+03 3.665049441390432761e-01 1.178013848562955643e-02
3.623195709235726554e+03 3.688714380934343673e-01 1.268801406903199112e-02
3.626818904944963379e+03 3.672989972381270896e-01 1.288999974666144195e-02
3.630445723849909427e+03 3.681737476899594741e-01 1.332598231658120580e-02
3.634076169573760581e+03 3.682106532353477402e-01 1.282719959884231174e-02
3.637710245743335690e+03 3.677443258255166381e-01 1.265485938453581732e-02
3.641347955989080219e+03 3.714734561127884804e-01 1.222687048948398539e-02
3.644989303945070333e+03 3.744132232451148345e-01 1.108582506472678697e-02
3.648634293249016537e+03 3.742868082556394804e-01 1.086053912377307924e-02
3.652282927542266862e+03 3.631492291990091603e-01 1.506965395590914580e-02
3.655935210469810499e+03 3.619273636683832951e-01 1.513482094577783474e-02
3.659591145680281443e+03 3.563703265806659193e-01 1.609320344037769648e-02
3.663250736825963031e+03 3.532389993633794356e-01 1.474191223022201271e-02
3.666913987562790226e+03 3.527200683342130993e-01 1.195584223087433132e-02
3.670580901550354156e+03 3.638304377802847323e-01 1.185323221012398592e-02
3.674251482451905758e+03 3.807581396209738789e-01 1.231972080461195967e-02
3.677925733934358959e+03 4.057512215878953388e-01 1.396569849451058214e-02
3.681603659668294313e+03 4.295188943560417361e-01 1.486515941515135358e-02
3.685285263327964003e+03 4.566635412743833000e-01 1.535376034687353265e-02
3.688970548591293209e+03 4.843722705163928666e-01 1.576159074345545585e-02
3.692659519139885560e+03 5.076882462118881278e-01 1.445859652669069517e-02
3.696352178659026777e+03 5.262698341253093659e-01 1.312233978305675508e-02
3.700048530837686940e+03 5.377985276100366585e-01 1.332560633558505653e-02
3.703748579368525952e+03 5.435318723264952467e-01 1.368903244470149813e-02
3.707452327947895355e+03 5.452482706203427565e-01 1.419205638757705876e-02
3.711159780275844696e+03 5.424989384737902709e-01 1.417969244095060484e-02
3.714870940056121526e+03 5.286901835122890247e-01 1.404048055541180957e-02
3.718585810996179134e+03 5.122579265028132101e-01 1.379727251932938957e-02
3.722304396807176545e+03 4.958993034268589506e-01 1.341863024169618474e-02
3.726026701203984885e+03 4.812437878037474359e-01 1.444723412923617362e-02
3.729752727905190113e+03 4.578144308406904561e-01 1.420950519976255100e-02
3.733482480633096657e+03 4.310360679005165174e-01 1.479053378219038865e-02
3.737215963113731050e+03 4.055516039684700647e-01 1.509175486429593059e-02
3.740953179076846027e+03 3.815711556972274932e-01 1.438879375970140810e-02
3.744694132255923705e+03 3.668938467325207897e-01 1.027483623613202265e-02
3.748438826388181042e+03 3.354179978777829252e-01 1.199203013062856427e-02
3.752187265214570289e+03 2.954806545186588473e-01 1.386827861178801559e-02
3.755939452479786269e+03 2.625140010930004375e-01 1.488669262939149550e-02
3.759695391932267285e+03 2.373962249689345327e-01 1.404710373090581679e-02
3.763455087324201031e+03 2.206981824279053428e-01 1.369992919891999464e-02
3.767218542411526414e+03 2.099098736570054746e-01 1.400982942090781350e-02
3.770985760953939007e+03 1.974633011981246633e-01 1.390894438461632784e-02
3.774756746714894234e+03 2.008809407767357391e-01 1.593031544362803753e-02
3.778531503461610555e+03 2.081607266379304766e-01 1.815703339116295570e-02
3.782310034965073100e+03 2.255036270935626141e-01 1.498874463527378499e-02
3.786092345000039586e+03 2.257468699172084647e-01 1.515213363674831198e-02
3.789878437345040766e+03 2.243882681976680782e-01 1.595097947217491083e-02
3.793668315782387253e+03 2.262920200272382498e-01 1.588157660767638979e-02
3.797461984098170888e+03 2.240431603424527518e-01 1.695370873542792478e-02
3.801259446082270188e+03 2.197075493773050225e-01 1.778872366861887142e-02
3.805060705528353537e+03 2.132450886476912333e-01 1.515662551309769450e-02
3.808865766233883278e+03 2.141813281426876714e-01 1.362120406745390491e-02
3.812674632000118436e+03 2.150697765887598645e-01 1.374160171391276830e-02
3.816487306632119726e+03 2.277230026658225437e-01 1.478770952622907205e-02
3.820303793938753188e+03 2.413618875422307575e-01 1.494012848327378774e-02
3.824124097732693372e+03 2.630108700523735576e-01 1.391244192730289007e-02
3.827948221830427428e+03 2.937315895953104827e-01 1.092569059490736821e-02
3.831776170052258749e+03 3.183843652929244650e-01 1.057989101085700726e-02
3.835607946222312421e+03 3.358151038639979324e-01 1.109624151448885751e-02
3.839443554168536139e+03 3.539587762138390881e-01 1.055859801372562891e-02
3.843282997722705659e+03 3.710647409736978486e-01 1.016313848528202328e-02
3.847126280720429804e+03 3.883790542041440919e-01 9.854059025971258212e-03
3.850973407001151372e+03 4.025556271208248216e-01 1.016245788961248932e-02
3.854824380408153957e+03 4.217942665750892828e-01 1.078486918996202602e-02
3.858679204788563311e+03 4.399252231390322065e-01 9.407724214315358116e-03
3.862537883993353262e+03 4.553435731981879120e-01 9.097321578975612472e-03
3.866400421877347981e+03 4.633653688246473501e-01 9.273709912931559982e-03
3.870266822299226533e+03 4.664346102693009977e-01 1.046746545819973208e-02
3.874137089121526969e+03 4.743646412223915254e-01 1.034789363434138187e-02
3.878011226210649966e+03 4.765422193657825600e-01 1.013116972834692507e-02
3.881889237436861549e+03 4.739362507507750011e-01 9.685689144494710398e-03
3.885771126674299921e+03 4.719696543167166691e-01 9.792517008747936985e-03
3.889656897800975457e+03 4.732035797847916614e-01 8.179266652706447191e-03
3.893546554698777527e+03 4.683975709370420404e-01 7.896595306163649297e-03
3.897440101253477678e+03 4.563146426456390903e-01 8.425912540381892690e-03
3.901337541354732366e+03 4.484340261307396824e-01 8.825861490215063804e-03
3.905238878896088409e+03 4.469470687009307053e-01 8.815880764378981882e-03
3.909144117774985716e+03 4.455957827067066890e-01 8.597912603010356147e-03
3.913053261892762293e+03 4.515206753462502332e-01 8.921779982959702690e-03
3.916966315154656058e+03 4.606987150186798163e-01 8.834605975531916247e-03
3.920883281469812118e+03 4.724568841004704312e-01 9.258214850287153908e-03
3.924804164751283224e+03 4.960031224469038102e-01 9.245397839992871084e-03
3.928728968916035683e+03 5.307689818760426004e-01 9.529569203862640198e-03
3.932657697884953450e+03 5.656259210638636681e-01 9.483160133068536252e-03
3.936590355582839493e+03 6.070242730239934215e-01 8.910593874048999483e-03
3.940526945938423523e+03 6.485738238297958924e-01 9.112234798484551354e-03
3.944467472884363360e+03 6.854910781458353197e-01 8.887339366332196525e-03
3.948411940357249023e+03 7.270949969264667301e-01 1.294142682617429804e-02
3.952360352297607733e+03 7.568295697707714265e-01 1.245666308002629612e-02
3.956312712649906643e+03 7.716965534975179786e-01 1.190970672157077963e-02
3.960269025362557841e+03 7.744492228927994937e-01 1.177470149166359205e-02
3.964229294387921527e+03 7.675051638823514599e-01 1.170037669401194358e-02
3.968193523682310570e+03 7.495762250660112924e-01 1.170917878793898033e-02
3.972161717205994591e+03 7.174032444295510569e-01 1.187265135075509653e-02
3.976133878923201792e+03 6.789373066981043703e-01 1.187640500612551810e-02
3.980110012802126221e+03 6.413352036640634912e-01 1.100502696653017642e-02
3.984090122814929600e+03 6.120584203411744140e-01 9.372003483557815595e-03
3.988074212937745870e+03 5.974710211647783487e-01 9.324594834296890539e-03
3.992062287150684824e+03 5.867351655042929437e-01 9.474788144253119479e-03
3.996054349437837118e+03 5.872468422461203374e-01 9.084541996529388319e-03
4.000050403787276082e+03 6.098680245781812337e-01 1.019066976008872055e-02
4.004050454191064546e+03 6.476463354828685404e-01 1.146148816421789333e-02
4.008054504645257111e+03 6.832836903144979823e-01 1.137618874633997482e-02
4.012062559149903791e+03 7.224658068147528089e-01 1.175419283483225899e-02
4.016074621709055009e+03 7.631974692617157219e-01 1.223196564158332902e-02
4.020090696330765240e+03 7.985380151748883160e-01 1.249160428839923495e-02
4.024110787027097558e+03 8.294102186345833072e-01 8.801175094736567173e-03
4.028134897814125907e+03 8.433244397860564234e-01 8.845053226036476285e-03
4.032163032711941469e+03 8.436503623592611634e-01 9.502920573528687853e-03
4.036195195744654484e+03 8.317366565996299199e-01 9.563319931347935218e-03
4.040231390940400615e+03 8.156736484331083004e-01 9.139801341643915764e-03
4.044271622331342314e+03 7.940574000621870576e-01 9.142858773754303919e-03
4.048315893953675186e+03 7.662541325348404264e-01 8.501818230443266428e-03
4.052364209847629809e+03 7.371457884090658608e-01 7.680591550240051940e-03
4.056416574057479011e+03 7.102937755163141187e-01 7.526958984981959103e-03
4.060472990631537868e+03 6.908698707312174170e-01 7.729580008120589055e-03
4.064533463622170530e+03 6.779184216672504704e-01 8.194367006100895107e-03
4.068597997085794304e+03 6.689338666127817579e-01 7.301153724861481932e-03
4.072666595082881486e+03 6.682222291706736428e-01 5.634959097269228410e-03
4.076739261677965715e+03 6.834216266997449329e-01 6.243896350906739945e-03
4.080816000939644709e+03 7.086602170982582161e-01 9.106599488983894986e-03
4.084896816940585722e+03 7.308006691909176844e-01 1.061068459040392410e-02
4.088981713757527814e+03 7.546860081724627856e-01 1.110509158059301907e-02
4.093070695471286854e+03 7.740799675787328749e-01 9.468546298996715835e-03
4.097163766166759160e+03 7.879917512544838409e-01 7.385564343364085273e-03
4.101260929932927866e+03 7.912597085917624229e-01 7.132289475250079731e-03
4.105362190862862008e+03 7.846332663130075602e-01 7.489548259758736608e-03
4.109467553053726078e+03 7.661264591949474845e-01 8.807231285908018181e-03
4.113577020606780934e+03 7.430153859212136336e-01 7.323175372409345893e-03
4.117690597627389252e+03 7.195029582476376584e-01 6.753899677695648571e-03
4.121808288225018259e+03 6.939828288668076217e-01 6.511354971125954405e-03
4.125930096513244280e+03 6.687611991398866307e-01 6.622446793532328971e-03
4.130056026609759101e+03 6.435529264427213292e-01 7.517136114220681307e-03
4.134186082636369974e+03 6.233611350295499287e-01 8.713008393969035731e-03
4.138320268719007800e+03 6.105402717768600995e-01 9.585897231042290675e-03
4.142458588987728035e+03 6.059409088887822703e-01 1.009996408087364059e-02
4.146601047576717065e+03 6.121359273821090907e-01 9.400829181788156880e-03
4.150747648624294925e+03 6.273263250155497461e-01 8.695585258458720171e-03
4.154898396272920763e+03 6.530996827544440775e-01 1.062137596765246744e-02
4.159053294669195566e+03 6.867472414811390813e-01 1.204980745287236032e-02
4.163212347963865795e+03 7.210053652484770259e-01 1.314414912315501650e-02
4.167375560311830668e+03 7.505575675572906391e-01 1.170570437182255792e-02
4.171542935872143971e+03 7.662794051170485066e-01 1.044653285883059141e-02
4.175714478808017702e+03 7.727742732301574602e-01 9.547946585213627421e-03
4.179890193286827525e+03 7.663127464918679799e-01 9.883168257671664722e-03
4.184070083480115500e+03 7.481788395619005660e-01 9.856129526106576638e-03
4.188254153563597356e+03 7.134103127524079602e-01 7.866499895089387046e-03
4.192442407717161586e+03 6.742665218535396354e-01 6.184597275072388489e-03
4.196634850124880359e+03 6.297381966787610752e-01 5.994582658569992846e-03
4.200831484975006788e+03 5.876550264280590019e-01 7.417312159282009147e-03
4.205032316459983122e+03 5.512848189950240174e-01 8.625155753906873363e-03
4.209237348776444378e+03 5.228917813173896700e-01 8.193309319445259489e-03
4.213446586125221984e+03 5.081573566976762546e-01 8.449046501171147971e-03
4.217660032711349231e+03 5.007412714639108975e-01 8.358182141051025485e-03
4.221877692744061278e+03 5.026832552492570549e-01 8.527007752314953032e-03
4.226099570436806971e+03 5.154440346324838940e-01 1.018346229797758781e-02
4.230325670007245208e+03 5.320652651114006204e-01 1.050737303405529198e-02
4.234555995677254032e+03 5.517637686694486510e-01 1.011312963678946165e-02
4.238790551672932452e+03 5.713235522388435683e-01 9.126364610385533441e-03
4.243029342224606808e+03 5.915141277112311302e-01 7.156561235434390385e-03
4.247272371566832589e+03 6.045058549286201899e-01 6.193172317483063537e-03
4.251519643938400804e+03 6.052454335245311956e-01 6.074893181932042828e-03
4.255771163582340705e+03 5.992601725412259883e-01 5.763012830651463927e-03
4.260026934745924336e+03 5.879088429390995074e-01 5.045558504649107559e-03
4.264286961680671993e+03 5.756843986359798659e-01 4.919388034325679684e-03
4.268551248642354039e+03 5.586132675642523360e-01 5.778434644135960543e-03
4.272819799890998183e+03 5.453054470884798333e-01 6.627848394765341496e-03
4.277092619690890388e+03 5.308921574055450732e-01 7.965279381767978797e-03
4.281369712310583054e+03 5.229172636928872686e-01 7.039703701496730949e-03
4.285651082022895025e+03 5.222099784414286905e-01 6.810937370981345017e-03
4.289936733104918858e+03 5.295181748953426970e-01 9.782815841493902598e-03
4.294226669838025373e+03 5.394607035365520664e-01 1.054489668944121918e-02
4.298520896507864563e+03 5.445316414227528989e-01 1.059688714042746928e-02
4.302819417404373780e+03 5.486633872268342760e-01 9.703338164831338403e-03
4.307122236821779552e+03 5.513815038275879932e-01 7.738844756596282952e-03
4.311429359058603040e+03 5.447106511790106298e-01 8.053121717424128675e-03
4.315740788417662770e+03 5.322669404323804310e-01 8.797597659039578868e-03
4.320056529206081905e+03 5.149735035638814962e-01 8.666358923595122998e-03
4.324376585735290064e+03 4.986539723463030982e-01 8.236309457617149721e-03
4.328700962321026054e+03 4.804027104411514593e-01 7.513940440705910336e-03
4.333029663283348782e+03 4.626447944973458570e-01 6.637866856729562372e-03
4.337362692946633615e+03 4.497169676682018502e-01 6.310631084282490415e-03
4.341700055639581478e+03 4.437952610649971152e-01 6.402074042626358825e-03
4.346041755695222491e+03 4.481934921349043366e-01 5.626459201558114270e-03
4.350387797450919606e+03 4.568286030402860520e-01 5.689927316814763665e-03
4.354738185248371337e+03 4.720444921387840775e-01 5.668365823039862687e-03
4.359092923433621763e+03 4.902777121590072285e-01 4.634252693579597564e-03
4.363452016357056891e+03 5.158942562422010880e-01 5.138712632937139473e-03
4.367815468373414660e+03 5.466929426355520150e-01 6.051215027999375801e-03
4.372183283841789489e+03 5.822108662744814866e-01 6.205365376961333689e-03
4.376555467125633186e+03 6.139504979994553358e-01 5.322995797494145878e-03
4.380932022592760404e+03 6.418616287013786392e-01 4.975124284795103338e-03
4.385312954615354101e+03 6.659571019883303578e-01 5.024984392921499725e-03
4.389698267569970994e+03 6.885316737250259944e-01 4.888880797467301358e-03
4.394087965837542470e+03 7.004140106521228315e-01 4.814826868204547666e-03
4.398482053803381859e+03 7.058007521697161613e-01 4.537544543525062757e-03
4.402880535857186260e+03 7.080213681055977926e-01 4.082810384314691267e-03
4.407283416393044718e+03 7.085102055365398721e-01 4.131473562407088004e-03
4.411690699809440048e+03 7.035638736726407272e-01 4.505768038033743962e-03
4.416102390509250654e+03 6.980305573337435288e-01 4.540145672484046518e-03
4.420518492899761441e+03 6.912072507266843191e-01 5.108660100914313475e-03
4.424939011392662906e+03 6.850855160963212898e-01 5.385617843066104436e-03
4.429363950404056595e+03 6.843547452760548877e-01 5.311014294335857089e-03
4.433793314354462382e+03 6.840586037848903622e-01 5.399943189535123637e-03
4.438227107668818462e+03 6.911548315487386906e-01 5.450245685345188849e-03
4.442665334776488635e+03 7.028694722907038450e-01 6.398663873149097042e-03
4.447108000111265937e+03 7.181566147794083976e-01 6.649139954334589743e-03
4.451555108111379013e+03 7.357075154405272599e-01 6.265913907274938896e-03
4.456006663219492111e+03 7.547762497606878007e-01 5.022946010276021708e-03
4.460462669882713271e+03 7.716877860435411574e-01 4.943675510218860022e-03
4.464923132552597053e+03 7.867955251280605022e-01 5.014376151608379573e-03
4.469388055685150903e+03 8.011356902880165665e-01 4.953610828722193951e-03
4.473857443740837880e+03 8.154808010763469062e-01 4.695634489271685412e-03
4.478331301184580298e+03 8.241274256088952921e-01 4.362702825647640954e-03
4.482809632485766087e+03 8.309918592191312126e-01 4.211618171640002864e-03
4.487292442118253348e+03 8.371613216108129141e-01 4.166539359829845093e-03
4.491779734560373072e+03 8.407711688702124153e-01 4.109173760221086422e-03
4.496271514294934605e+03 8.423067682972764647e-01 4.127094439654317715e-03
4.500767785809231100e+03 8.446704572825547430e-01 3.952021349744455625e-03
4.505268553595042249e+03 8.433835051158941054e-01 5.206271035861201324e-03
4.509773822148638828e+03 8.448548622106007988e-01 5.077520513096608901e-03
4.514283595970789065e+03 8.488752741043903427e-01 5.021999635023889456e-03
4.518797879566761367e+03 8.543661109509997909e-01 2.775931869103219225e-03
4.523316677446328868e+03 8.683978054814074365e-01 4.919011841543160721e-03
4.527839994123776705e+03 8.843709724395203420e-01 5.235664993777608932e-03
