# starting wavelength: 3422.740
# ending wavelength: 7250.730
# wav flux eflux
3.425969201965453522e+03 3.363128660831658512e-01 5.583925326208225015e-02
3.429395171167419903e+03 3.723183420988531167e-01 4.521167165888662076e-02
3.432824566338588284e+03 3.975298071649794873e-01 3.732600689297787405e-02
3.436257390904928343e+03 4.090051852492230244e-01 3.032124865445296261e-02
3.439693648295834464e+03 4.084904727454637396e-01 2.472084946598201993e-02
3.443133341944131189e+03 4.043876810817780276e-01 2.016419220354591368e-02
3.446576475286076402e+03 3.966875359125516254e-01 1.703340966225566633e-02
3.450023051761363604e+03 3.874096118265986100e-01 1.476752712808715971e-02
3.453473074813126004e+03 3.778813342802233022e-01 1.309577512581553381e-02
3.456926547887940615e+03 3.713995412398999330e-01 1.245575512833660588e-02
3.460383474435829612e+03 3.702333284713690831e-01 1.349931443879469339e-02
3.463843857910266706e+03 3.689099837856386621e-01 1.362032463877026547e-02
3.467307701768178049e+03 3.671647608233318816e-01 1.360245334574318281e-02
3.470775009469947236e+03 3.650635941965943987e-01 1.375185587576930810e-02
3.474245784479418489e+03 3.596501015986557359e-01 1.354441627176128544e-02
3.477720030263898934e+03 3.538548612020767092e-01 1.406585542767070131e-02
3.481197750294164052e+03 3.418625186081178935e-01 1.435996123436446455e-02
3.484678948044459503e+03 3.301472305039512278e-01 1.414997603600607473e-02
3.488163626992504760e+03 3.150871073543714540e-01 1.383733331071886064e-02
3.491651790619498570e+03 2.994993812559492152e-01 1.359216779066755101e-02
3.495143442410119405e+03 2.832150015926327424e-01 1.390308063773064082e-02
3.498638585852530468e+03 2.683940190001324888e-01 1.502099889372901162e-02
3.502137224438384237e+03 2.495048320188437141e-01 1.681859961125884567e-02
3.505639361662823831e+03 2.316222560190983326e-01 1.819064452040783028e-02
3.509145001024487556e+03 2.183635484694325668e-01 1.794395913949407145e-02
3.512654146025513455e+03 2.045182508565844826e-01 1.593133055504766457e-02
3.516166800171540217e+03 1.979629618162273563e-01 1.424968204964619997e-02
3.519682966971712631e+03 1.985625442852626543e-01 1.360945483881059390e-02
3.523202649938685681e+03 1.980826673013036943e-01 1.305440944166213688e-02
3.526725852588625457e+03 2.104325382683721601e-01 1.507800593509016004e-02
3.530252578441215064e+03 2.280871209669240729e-01 1.721788182197009701e-02
3.533782831019657806e+03 2.462948982663127062e-01 1.801166927638359061e-02
3.537316613850678550e+03 2.744130074106128636e-01 1.812622816917077231e-02
3.540853930464530094e+03 2.992506507737286436e-01 1.666003176459407778e-02
3.544394784394995895e+03 3.235827543947343288e-01 1.532428570935288545e-02
3.547939179179392340e+03 3.467188265577689776e-01 1.455541622492749314e-02
3.551487118358572843e+03 3.690794702589384468e-01 1.451054587871676224e-02
3.555038605476932389e+03 3.898064768594878271e-01 1.500703958188778081e-02
3.558593644082410719e+03 4.109247466641512414e-01 1.520266632510862935e-02
3.562152237726494150e+03 4.329192631230149857e-01 1.572957627472532094e-02
3.565714389964221937e+03 4.471401697849799461e-01 1.524378967670408751e-02
3.569280104354187188e+03 4.589662078430865599e-01 1.432776167978211217e-02
3.572849384458542772e+03 4.691991462412913871e-01 1.285328810034212614e-02
3.576422233843002232e+03 4.788020283282815592e-01 1.248455387271447774e-02
3.579998656076846601e+03 4.903530529418317352e-01 1.233674322792980768e-02
3.583578654732924406e+03 5.026121444821167739e-01 1.278051436724116433e-02
3.587162233387658489e+03 5.157460317695080620e-01 1.307616547745081050e-02
3.590749395621047370e+03 5.291587460463128556e-01 1.301092296961649762e-02
3.594340145016669794e+03 5.409249682666146253e-01 1.122524212123994503e-02
3.597934485161687462e+03 5.482101158178112055e-01 1.069346398952787831e-02
3.601532419646850485e+03 5.559136125820497432e-01 1.049925635520307723e-02
3.605133952066498296e+03 5.592453971906319321e-01 1.033491982937114265e-02
3.608739086018566013e+03 5.597709872321010582e-01 1.035671780250246518e-02
3.612347825104585809e+03 5.513376741428918093e-01 1.062547339624599421e-02
3.615960172929691907e+03 5.398821614403296332e-01 9.695225761320983709e-03
3.619576133102622407e+03 5.292814829768640594e-01 8.876455130252293435e-03
3.623195709235726554e+03 5.143188251892401031e-01 6.482424975550142923e-03
3.626818904944963379e+03 5.026412701339803002e-01 6.709137575210634766e-03
3.630445723849909427e+03 4.935097352929851966e-01 7.869692500632697804e-03
3.634076169573760581e+03 4.831241198142757209e-01 7.687297643342125286e-03
3.637710245743335690e+03 4.715967569392977565e-01 7.293778172920152049e-03
3.641347955989080219e+03 4.591790746707169468e-01 6.852384327605774532e-03
3.644989303945070333e+03 4.479858051212712855e-01 5.221178788989313917e-03
3.648634293249016537e+03 4.313144788974168642e-01 6.103781541163974707e-03
3.652282927542266862e+03 4.131595355036941641e-01 6.925163046360029336e-03
3.655935210469810499e+03 3.949842546823979506e-01 7.057852039718075926e-03
3.659591145680281443e+03 3.772468762234921780e-01 6.869480448666341783e-03
3.663250736825963031e+03 3.614981366875832380e-01 6.708554097555101403e-03
3.666913987562790226e+03 3.468981348932749786e-01 6.254256960218703733e-03
3.670580901550354156e+03 3.335923294429955499e-01 5.848145270568574396e-03
3.674251482451905758e+03 3.223271020709320145e-01 5.967489868595907306e-03
3.677925733934358959e+03 3.117280431211788549e-01 6.235698596860750516e-03
3.681603659668294313e+03 3.055657645087718199e-01 7.144565321423910348e-03
3.685285263327964003e+03 3.008193850181719586e-01 7.530937151466407693e-03
3.688970548591293209e+03 2.992465636619822678e-01 5.250773103660759042e-03
3.692659519139885560e+03 2.890100730380512628e-01 5.029620388734466763e-03
3.696352178659026777e+03 2.757311722181999825e-01 5.078243748720245171e-03
3.700048530837686940e+03 2.611136282584491930e-01 4.977320673313318650e-03
3.703748579368525952e+03 2.434167720733193541e-01 5.238271690408568930e-03
3.707452327947895355e+03 2.180275584112502940e-01 6.693919063024689198e-03
3.711159780275844696e+03 1.944367325508751798e-01 6.106962379040749810e-03
3.714870940056121526e+03 1.731464261263385984e-01 5.795424999831914718e-03
3.718585810996179134e+03 1.503364966475961295e-01 4.193538186656697170e-03
3.722304396807176545e+03 1.346332839514721713e-01 4.176235477959636642e-03
3.726026701203984885e+03 1.221734826345141078e-01 4.500226105569970700e-03
3.729752727905190113e+03 1.133958204718396312e-01 4.606217688019850418e-03
3.733482480633096657e+03 1.090631722284619576e-01 4.645856900605452484e-03
3.737215963113731050e+03 1.048546003597769227e-01 4.642854268148005614e-03
3.740953179076846027e+03 1.049435050459478491e-01 4.447998325307104921e-03
3.744694132255923705e+03 1.070084368933949814e-01 4.151303020950663364e-03
3.748438826388181042e+03 1.118627787090201858e-01 4.741996785542649216e-03
3.752187265214570289e+03 1.164414884797970451e-01 5.458771389199097712e-03
3.755939452479786269e+03 1.165267991798362157e-01 5.532845676259647884e-03
3.759695391932267285e+03 1.140344142035869118e-01 5.504157290136175475e-03
3.763455087324201031e+03 1.081486432863480729e-01 5.798838076978226480e-03
3.767218542411526414e+03 9.948822549756360101e-02 6.236430581261136717e-03
3.770985760953939007e+03 8.799074340638933511e-02 6.946242905404170949e-03
3.774756746714894234e+03 7.690833671619021206e-02 7.114273253224955712e-03
3.778531503461610555e+03 6.969088937899192704e-02 6.895431156874135686e-03
3.782310034965073100e+03 6.602350036730900151e-02 6.881477020881677023e-03
3.786092345000039586e+03 6.252040880533023259e-02 6.840940822019634868e-03
3.789878437345040766e+03 6.080656857083908268e-02 5.632212812092874006e-03
3.793668315782387253e+03 6.533440819035785108e-02 5.971081754273720350e-03
3.797461984098170888e+03 7.452765759896740061e-02 6.126978879602698776e-03
3.801259446082270188e+03 9.098563314089849752e-02 6.249777506452215865e-03
3.805060705528353537e+03 1.082606944484569844e-01 5.559602889677300007e-03
3.808865766233883278e+03 1.260412633540547445e-01 4.997178227526327329e-03
3.812674632000118436e+03 1.436303293354085908e-01 4.651957821869129144e-03
3.816487306632119726e+03 1.579824371370395497e-01 4.462152532287463717e-03
3.820303793938753188e+03 1.704156680522889711e-01 4.172608767867542513e-03
3.824124097732693372e+03 1.810673423642732427e-01 4.172034434865886168e-03
3.827948221830427428e+03 1.933481786046299944e-01 5.191932783647794890e-03
3.831776170052258749e+03 2.014337384622807425e-01 4.176543383735171686e-03
3.835607946222312421e+03 2.035462257599659486e-01 4.570007865872226412e-03
3.839443554168536139e+03 2.014301111594307137e-01 7.180948378127461999e-03
3.843282997722705659e+03 2.004910725169013752e-01 8.028804507081361772e-03
3.847126280720429804e+03 2.028732064253563339e-01 7.153293722967313424e-03
3.850973407001151372e+03 2.104437030862449098e-01 6.482396495580068814e-03
3.854824380408153957e+03 2.249926072586540815e-01 6.565007967501084764e-03
3.858679204788563311e+03 2.441961203797366475e-01 6.678791033228751242e-03
3.862537883993353262e+03 2.674779368342794506e-01 6.758795007895089697e-03
3.866400421877347981e+03 2.962889808076970555e-01 6.769192820169136864e-03
3.870266822299226533e+03 3.299857673161692428e-01 6.361649452159511692e-03
3.874137089121526969e+03 3.690979620740953426e-01 5.370715291295451166e-03
3.878011226210649966e+03 4.066664024726960869e-01 5.271600547626409047e-03
3.881889237436861549e+03 4.446275262433766473e-01 5.260298197395252111e-03
3.885771126674299921e+03 4.813052818266383981e-01 5.108618286515405685e-03
3.889656897800975457e+03 5.169373176464951980e-01 5.078349652676217990e-03
3.893546554698777527e+03 5.494984890102605490e-01 4.862718438907074128e-03
3.897440101253477678e+03 5.821396562301393018e-01 5.244415668453406877e-03
3.901337541354732366e+03 6.133521033580290327e-01 3.927822314151133143e-03
3.905238878896088409e+03 6.409856750618958543e-01 2.887160438964195015e-03
3.909144117774985716e+03 6.625797283284253769e-01 3.163398505382332328e-03
3.913053261892762293e+03 6.774322101465187762e-01 3.886209706718157363e-03
3.916966315154656058e+03 6.914344888786471133e-01 3.817262009028287318e-03
3.920883281469812118e+03 7.061955195056776047e-01 3.690478461523286676e-03
3.924804164751283224e+03 7.226210442963351133e-01 3.143513481754711767e-03
3.928728968916035683e+03 7.414694152958299922e-01 2.600503077721645195e-03
3.932657697884953450e+03 7.643177984089587484e-01 2.811006590152436910e-03
3.936590355582839493e+03 7.899166844483583860e-01 3.216472779415465930e-03
3.940526945938423523e+03 8.174543626585378808e-01 3.786827670038853382e-03
3.944467472884363360e+03 8.456863520760696806e-01 4.417224658990073424e-03
3.948411940357249023e+03 8.726594202107826881e-01 3.124168846103378850e-03
3.952360352297607733e+03 8.935176834054489037e-01 2.759560888578324947e-03
3.956312712649906643e+03 9.109379687874445963e-01 2.310210746796455879e-03
3.960269025362557841e+03 9.223860476403755726e-01 2.578431014702472265e-03
3.964229294387921527e+03 9.299557884660780704e-01 2.742826986974481168e-03
3.968193523682310570e+03 9.323412236175410150e-01 2.820725307859552576e-03
3.972161717205994591e+03 9.337990272828232685e-01 2.695558313829004259e-03
3.976133878923201792e+03 9.334934517964758038e-01 2.190784724595661124e-03
3.980110012802126221e+03 9.369847445362570193e-01 2.109573468915105100e-03
3.984090122814929600e+03 9.419081562071767166e-01 2.168089632531652704e-03
3.988074212937745870e+03 9.499326670335493938e-01 2.878114332696181128e-03
3.992062287150684824e+03 9.657296889516238103e-01 2.850482284431788121e-03
3.996054349437837118e+03 9.889732493832944504e-01 2.746767947538490164e-03
4.000050403787276082e+03 1.019121861295698928e+00 3.184626481372345060e-03
4.004050454191064546e+03 1.053856923876724361e+00 3.641128424730585757e-03
4.008054504645257111e+03 1.093012688213097050e+00 4.417483855058784020e-03
4.012062559149903791e+03 1.131878887516833299e+00 4.394011285518385594e-03
4.016074621709055009e+03 1.170846650004991218e+00 4.162830315630230461e-03
4.020090696330765240e+03 1.207792466982111179e+00 3.486360083695998029e-03
4.024110787027097558e+03 1.238101035728644383e+00 2.944934464969945973e-03
4.028134897814125907e+03 1.261289001183464542e+00 3.042517826789329499e-03
4.032163032711941469e+03 1.274278231565603603e+00 3.028385705466548217e-03
4.036195195744654484e+03 1.276690700911950804e+00 3.452332280628458636e-03
4.040231390940400615e+03 1.271614822327250094e+00 3.378127177257563528e-03
4.044271622331342314e+03 1.258055168620214381e+00 3.056580692328062648e-03
4.048315893953675186e+03 1.237016907075617400e+00 2.997876514652541950e-03
4.052364209847629809e+03 1.209069837140881232e+00 3.033745765594923847e-03
4.056416574057479011e+03 1.177442249070526969e+00 3.151973534701486401e-03
4.060472990631537868e+03 1.141013857376840468e+00 3.459930773561754533e-03
4.064533463622170530e+03 1.101078355110316709e+00 3.259589454621855155e-03
4.068597997085794304e+03 1.062954028214024627e+00 2.922340024303585020e-03
4.072666595082881486e+03 1.026398249272511887e+00 2.889336057345026024e-03
4.076739261677965715e+03 9.919874198609328619e-01 2.926702253228506950e-03
4.080816000939644709e+03 9.592632360132475888e-01 3.010467680480679795e-03
4.084896816940585722e+03 9.311220613166333315e-01 2.938046703649570181e-03
4.088981713757527814e+03 9.050764968409220623e-01 2.817544008558006251e-03
4.093070695471286854e+03 8.849021240522043641e-01 3.369606939020216869e-03
4.097163766166759160e+03 8.682543885022346863e-01 3.702300498410954384e-03
4.101260929932927866e+03 8.530229590445145282e-01 3.528285452456604229e-03
4.105362190862862008e+03 8.402884339163418925e-01 2.942757441395538014e-03
4.109467553053726078e+03 8.272530548537754269e-01 2.900634031625827416e-03
4.113577020606780934e+03 8.166821375939882222e-01 3.089095337595037030e-03
4.117690597627389252e+03 8.067649323267284123e-01 3.112199704063195720e-03
4.121808288225018259e+03 7.983303056467855319e-01 3.371193891430526376e-03
4.125930096513244280e+03 7.912999527931353638e-01 3.620907207931834109e-03
4.130056026609759101e+03 7.867066357364538298e-01 3.559029541350461866e-03
4.134186082636369974e+03 7.842949813188481167e-01 3.399821281454371447e-03
4.138320268719007800e+03 7.841992072049974727e-01 3.373699744389793264e-03
4.142458588987728035e+03 7.851327155962342097e-01 3.441636957858357822e-03
4.146601047576717065e+03 7.885980621002602886e-01 3.536242943451219263e-03
4.150747648624294925e+03 7.920242286534718845e-01 3.196879802785992323e-03
4.154898396272920763e+03 7.937310683933775923e-01 2.635945148076733816e-03
4.159053294669195566e+03 7.915817389433549289e-01 2.565082532518504332e-03
4.163212347963865795e+03 7.869346540965496128e-01 2.597253208084347818e-03
4.167375560311830668e+03 7.765640542550062975e-01 2.719775720608890498e-03
4.171542935872143971e+03 7.641821371472200530e-01 2.785117932417326223e-03
4.175714478808017702e+03 7.485707588481339547e-01 2.931360915999223563e-03
4.179890193286827525e+03 7.294126126641042873e-01 2.732000144923852486e-03
4.184070083480115500e+03 7.091945043772627244e-01 1.912372378245213219e-03
4.188254153563597356e+03 6.904587712507643804e-01 2.277958157361965972e-03
4.192442407717161586e+03 6.724730435059517175e-01 1.902062890180303322e-03
4.196634850124880359e+03 6.525092209790467335e-01 3.547382648031179031e-03
4.200831484975006788e+03 6.364631734326319235e-01 3.632409679512275946e-03
4.205032316459983122e+03 6.247832769053528468e-01 3.478323197668535365e-03
4.209237348776444378e+03 6.168738165750287106e-01 3.416664663968423891e-03
4.213446586125221984e+03 6.132907390529213076e-01 3.692878561788857320e-03
4.217660032711349231e+03 6.130551051895904990e-01 3.760148679199446300e-03
4.221877692744061278e+03 6.147644274327876968e-01 3.737272528811640127e-03
4.226099570436806971e+03 6.189322960960036424e-01 3.690139672951158606e-03
4.230325670007245208e+03 6.243999523434974330e-01 3.648138922855378042e-03
4.234555995677254032e+03 6.304370258771481161e-01 3.629682620258371534e-03
4.238790551672932452e+03 6.355890618771222744e-01 3.479536003035690710e-03
4.243029342224606808e+03 6.404495659390435636e-01 3.142410730799612226e-03
4.247272371566832589e+03 6.415300305842183137e-01 3.261089236959336269e-03
4.251519643938400804e+03 6.414005090251265750e-01 3.144098099085209774e-03
4.255771163582340705e+03 6.397778460306249304e-01 3.127753460930251042e-03
4.260026934745924336e+03 6.356620879860976903e-01 3.060360099589206490e-03
4.264286961680671993e+03 6.307655755043235501e-01 3.010587327283607666e-03
4.268551248642354039e+03 6.251465922320202928e-01 2.209665766328905694e-03
4.272819799890998183e+03 6.158458744858267275e-01 3.035854968450619768e-03
4.277092619690890388e+03 6.041614622836820603e-01 2.597536268109473974e-03
4.281369712310583054e+03 5.943960596358337511e-01 2.389959684384131058e-03
4.285651082022895025e+03 5.855163105300120741e-01 2.328235357584657311e-03
4.289936733104918858e+03 5.769531711524038542e-01 2.251745770615974553e-03
4.294226669838025373e+03 5.704691056422793727e-01 2.480042676435537368e-03
4.298520896507864563e+03 5.634055531462984767e-01 2.473346185118876356e-03
4.302819417404373780e+03 5.571083562264484978e-01 2.692395576383099006e-03
4.307122236821779552e+03 5.507881914793136824e-01 2.588266441374661303e-03
4.311429359058603040e+03 5.437542501281279472e-01 2.445808067137078285e-03
4.315740788417662770e+03 5.367868687079081491e-01 2.485358568823590672e-03
4.320056529206081905e+03 5.293518468592779413e-01 2.640471318757249466e-03
4.324376585735290064e+03 5.230788535743950973e-01 2.608095473210805121e-03
4.328700962321026054e+03 5.160683422681402455e-01 2.169718378986841209e-03
4.333029663283348782e+03 5.102662853165539358e-01 2.044926445738963396e-03
4.337362692946633615e+03 5.061273334806419832e-01 2.180744563684841510e-03
4.341700055639581478e+03 5.046949813038466015e-01 2.221005155727544863e-03
4.346041755695222491e+03 5.059622636591416533e-01 2.467741404997228320e-03
4.350387797450919606e+03 5.104371959710027884e-01 2.506084824417462251e-03
4.354738185248371337e+03 5.176933446909425252e-01 2.403739786197772472e-03
4.359092923433621763e+03 5.277276976900042715e-01 2.555043337504173378e-03
4.363452016357056891e+03 5.399610727835120194e-01 2.651463657144330008e-03
4.367815468373414660e+03 5.533460796349256583e-01 2.705108268797877091e-03
4.372183283841789489e+03 5.673312637849622364e-01 2.783754528202933044e-03
4.376555467125633186e+03 5.812653954514509502e-01 2.576235022020426785e-03
4.380932022592760404e+03 5.934490434912382817e-01 2.507682999659241463e-03
4.385312954615354101e+03 6.048785122126579816e-01 2.197108324154886660e-03
4.389698267569970994e+03 6.139417827781763481e-01 2.171853240385536194e-03
4.394087965837542470e+03 6.193612551351688200e-01 2.059829218972147706e-03
4.398482053803381859e+03 6.225237386879671764e-01 1.769836941804107033e-03
4.402880535857186260e+03 6.233154770236882802e-01 1.927148419199067658e-03
4.407283416393044718e+03 6.223819452449081968e-01 1.984978793826918352e-03
4.411690699809440048e+03 6.183520299379609009e-01 1.730008051659888933e-03
4.416102390509250654e+03 6.109164993794663490e-01 1.735229369827687163e-03
4.420518492899761441e+03 6.006605791316251830e-01 2.228716426871186346e-03
4.424939011392662906e+03 5.893735749933497470e-01 2.446784012418616941e-03
4.429363950404056595e+03 5.768050932142944065e-01 2.117940685553390979e-03
4.433793314354462382e+03 5.649874979613068726e-01 1.832516316280839806e-03
4.438227107668818462e+03 5.541799300275532802e-01 1.857448936610507292e-03
4.442665334776488635e+03 5.448057131302278533e-01 2.166459153103976465e-03
4.447108000111265937e+03 5.399255657609054460e-01 1.941670916032661124e-03
4.451555108111379013e+03 5.395133743787561276e-01 2.156531907987108403e-03
4.456006663219492111e+03 5.437860574124500079e-01 2.686422007779661406e-03
4.460462669882713271e+03 5.503426371440152121e-01 2.503346647362650942e-03
