# starting wavelength: 3439.890
# ending wavelength: 7308.940
# wav flux eflux
3.443133341944131189e+03 1.649149419842332209e+00 5.075436473753326509e-03
3.446576475286076402e+03 1.653569224673329341e+00 4.125540815350964285e-03
3.450023051761363604e+03 1.658581612108492864e+00 3.366944432790453835e-03
3.453473074813126004e+03 1.663644489983799435e+00 2.854619136469629948e-03
3.456926547887940615e+03 1.667606645968445989e+00 2.803106032731646474e-03
3.460383474435829612e+03 1.668992031097616069e+00 3.741653528518238021e-03
3.463843857910266706e+03 1.668798059708191506e+00 3.991939290477843072e-03
3.467307701768178049e+03 1.666828852042435472e+00 4.358633574170643100e-03
3.470775009469947236e+03 1.664400345125372382e+00 4.434803311385897284e-03
3.474245784479418489e+03 1.661250878022779487e+00 4.617832051848189470e-03
3.477720030263898934e+03 1.658070931675202475e+00 4.815276186931146188e-03
3.481197750294164052e+03 1.655396575502717127e+00 4.996939639089449485e-03
3.484678948044459503e+03 1.655206288602262044e+00 4.764313554627668500e-03
3.488163626992504760e+03 1.656279382971231229e+00 4.590927147527633194e-03
3.491651790619498570e+03 1.656118355473283454e+00 4.478183187331773521e-03
3.495143442410119405e+03 1.658133019090974658e+00 4.639064882146556358e-03
3.498638585852530468e+03 1.661263791328132511e+00 5.185729641807607093e-03
3.502137224438384237e+03 1.664042133764451314e+00 5.490104762080694548e-03
3.505639361662823831e+03 1.666531098890217555e+00 5.618082496754154241e-03
3.509145001024487556e+03 1.668523955041543383e+00 5.765213487224345873e-03
3.512654146025513455e+03 1.671035453404435156e+00 5.608861104655554763e-03
3.516166800171540217e+03 1.673701830434713100e+00 5.310504977788210387e-03
3.519682966971712631e+03 1.674946056548590967e+00 5.212768960530905250e-03
3.523202649938685681e+03 1.676387223734597143e+00 4.984601868736355385e-03
3.526725852588625457e+03 1.676713014919901212e+00 4.852070509018245950e-03
3.530252578441215064e+03 1.677430783640523115e+00 4.848096162989076752e-03
3.533782831019657806e+03 1.675912097352546981e+00 4.959290485913591361e-03
3.537316613850678550e+03 1.673190451834511538e+00 5.181953647367268725e-03
3.540853930464530094e+03 1.668555364811924902e+00 5.383845421648771404e-03
3.544394784394995895e+03 1.662313343707618074e+00 5.011858786482669033e-03
3.547939179179392340e+03 1.657817623140012575e+00 4.784087594038794085e-03
3.551487118358572843e+03 1.653371366679060372e+00 4.877784217730839894e-03
3.555038605476932389e+03 1.647970676076675023e+00 4.967077798473076150e-03
3.558593644082410719e+03 1.641902895487008962e+00 5.070098255974984577e-03
3.562152237726494150e+03 1.635757444490244961e+00 5.193190307637948408e-03
3.565714389964221937e+03 1.630997743378246323e+00 5.262637153891095744e-03
3.569280104354187188e+03 1.624640185254824898e+00 5.128931293403787145e-03
3.572849384458542772e+03 1.618451033738120381e+00 4.558442847608399490e-03
3.576422233843002232e+03 1.610383257259364376e+00 4.655193697080493333e-03
3.579998656076846601e+03 1.601864473999398797e+00 4.914978976595220025e-03
3.583578654732924406e+03 1.593796124247196522e+00 5.278961805935766458e-03
3.587162233387658489e+03 1.582816356277222836e+00 6.268747057235833121e-03
3.590749395621047370e+03 1.571949127381415900e+00 6.259490845129488459e-03
3.594340145016669794e+03 1.562355883026223857e+00 5.379952129556958389e-03
3.597934485161687462e+03 1.556201604164641150e+00 4.651373547562529485e-03
3.601532419646850485e+03 1.551913406493709235e+00 4.582223345719630726e-03
3.605133952066498296e+03 1.550111521852882257e+00 4.902454477715936787e-03
3.608739086018566013e+03 1.547978897672925847e+00 5.074278456966548577e-03
3.612347825104585809e+03 1.549401811317871580e+00 5.357705732935000818e-03
3.615960172929691907e+03 1.550931939614933475e+00 5.503177758001989023e-03
3.619576133102622407e+03 1.553568926572437281e+00 5.762687105642688885e-03
3.623195709235726554e+03 1.557469609285907719e+00 5.463333440727245402e-03
3.626818904944963379e+03 1.560372435416523818e+00 4.956813853214278760e-03
3.630445723849909427e+03 1.561897783661214012e+00 4.440986535953220238e-03
3.634076169573760581e+03 1.559800094865394726e+00 3.931373133782907654e-03
3.637710245743335690e+03 1.554565180293126181e+00 3.936885775768541630e-03
3.641347955989080219e+03 1.545294747509643241e+00 4.308573543301240372e-03
3.644989303945070333e+03 1.532392011547713206e+00 4.326377650525986551e-03
3.648634293249016537e+03 1.516987061956083238e+00 3.979404137805795175e-03
3.652282927542266862e+03 1.498618627538693238e+00 3.796259169586941890e-03
3.655935210469810499e+03 1.478762546880495021e+00 3.657753922413713686e-03
3.659591145680281443e+03 1.455800611923022903e+00 3.533143695578497886e-03
3.663250736825963031e+03 1.432523197592108666e+00 3.891769922612363462e-03
3.666913987562790226e+03 1.407404245501943318e+00 4.001035159291792438e-03
3.670580901550354156e+03 1.381633784500582385e+00 3.829046436099382746e-03
3.674251482451905758e+03 1.351168948455044649e+00 3.772221648959617896e-03
3.677925733934358959e+03 1.316880173020342992e+00 3.742820303437341661e-03
3.681603659668294313e+03 1.280796799855506540e+00 3.614449894128571143e-03
3.685285263327964003e+03 1.240479574091129855e+00 4.705628473043267646e-03
3.688970548591293209e+03 1.199478531856480235e+00 4.466044549899021027e-03
3.692659519139885560e+03 1.156622254914643655e+00 4.673683799690524394e-03
3.696352178659026777e+03 1.114977475763254677e+00 4.603189136225063934e-03
3.700048530837686940e+03 1.072995898601297515e+00 4.317781970084593086e-03
3.703748579368525952e+03 1.033786248036444810e+00 4.341573481602560396e-03
3.707452327947895355e+03 9.955039653094259755e-01 4.392474597447792138e-03
3.711159780275844696e+03 9.589619493437715469e-01 4.701612928108572613e-03
3.714870940056121526e+03 9.243408305868054953e-01 4.824833851770501079e-03
3.718585810996179134e+03 8.906372721864141973e-01 4.817208291338338777e-03
3.722304396807176545e+03 8.598377528131211367e-01 4.369627180728335135e-03
3.726026701203984885e+03 8.324233399446361314e-01 3.996198520765483105e-03
3.729752727905190113e+03 8.046458943596376256e-01 4.385281306927390176e-03
3.733482480633096657e+03 7.805745231441972853e-01 4.440691538931142851e-03
3.737215963113731050e+03 7.557076487075844451e-01 4.895205007277654737e-03
3.740953179076846027e+03 7.345475194766339921e-01 4.445379421866433450e-03
3.744694132255923705e+03 7.178794486238808670e-01 3.910571505930692145e-03
3.748438826388181042e+03 7.053809549813997437e-01 3.837619827946418469e-03
3.752187265214570289e+03 6.971014626988685237e-01 4.205621371514454282e-03
3.755939452479786269e+03 6.926906063109291578e-01 4.704547335215945175e-03
3.759695391932267285e+03 6.927696884783853815e-01 4.306555903231627618e-03
3.763455087324201031e+03 6.936820457805422668e-01 3.531687109846854203e-03
3.767218542411526414e+03 6.943381158865594704e-01 2.842501827003324211e-03
3.770985760953939007e+03 6.947952913789947615e-01 1.772726135777968589e-03
3.774756746714894234e+03 6.926876199873317486e-01 1.816126479514299950e-03
3.778531503461610555e+03 6.883378683462383352e-01 2.088866388982152031e-03
3.782310034965073100e+03 6.823029012789656456e-01 1.786237098238543800e-03
3.786092345000039586e+03 6.760298211712788552e-01 1.716262844129425079e-03
3.789878437345040766e+03 6.704288608073198930e-01 1.634823364627477609e-03
3.793668315782387253e+03 6.665762389826805911e-01 1.952834719233045597e-03
3.797461984098170888e+03 6.667662653631452052e-01 1.810151189136313026e-03
3.801259446082270188e+03 6.701635427933883005e-01 1.722115853934426616e-03
3.805060705528353537e+03 6.776962964594802630e-01 1.788088203098366427e-03
3.808865766233883278e+03 6.894501257109539871e-01 1.965291084259280629e-03
3.812674632000118436e+03 7.076570352494009342e-01 2.208342364421171048e-03
3.816487306632119726e+03 7.309071650696671307e-01 1.809962711799661126e-03
3.820303793938753188e+03 7.605625388804596598e-01 1.746707070525880829e-03
3.824124097732693372e+03 7.971626139520587850e-01 1.874098692675971959e-03
3.827948221830427428e+03 8.388482505048568960e-01 2.340661592976050597e-03
3.831776170052258749e+03 8.836503903376443647e-01 2.629385338352250006e-03
3.835607946222312421e+03 9.319360387389067357e-01 3.712072131285483207e-03
3.839443554168536139e+03 9.799811600450689664e-01 3.826876722228977901e-03
3.843282997722705659e+03 1.025631700652817724e+00 3.690505695547781004e-03
3.847126280720429804e+03 1.067186016769471779e+00 3.231146007783319840e-03
3.850973407001151372e+03 1.104774041931547490e+00 2.624467795689438068e-03
3.854824380408153957e+03 1.135940669766178690e+00 4.210997633165987700e-03
3.858679204788563311e+03 1.164531743919565931e+00 5.316026960377566273e-03
3.862537883993353262e+03 1.191335469183637530e+00 5.777568365922506992e-03
3.866400421877347981e+03 1.219841347456483760e+00 4.823157461248450684e-03
3.870266822299226533e+03 1.252157030267276649e+00 3.494162012812172639e-03
3.874137089121526969e+03 1.290296094340760868e+00 3.764772390297129248e-03
3.878011226210649966e+03 1.331900282004903735e+00 3.769867149128758050e-03
3.881889237436861549e+03 1.378313556255761130e+00 3.854307767070730244e-03
3.885771126674299921e+03 1.428650736872109528e+00 3.702854353457918531e-03
3.889656897800975457e+03 1.483167943381182852e+00 3.473085894597217373e-03
3.893546554698777527e+03 1.540319504575729637e+00 3.445501677367955682e-03
3.897440101253477678e+03 1.600022849614675557e+00 3.495167792978848362e-03
3.901337541354732366e+03 1.659697440846888528e+00 3.974933244653532614e-03
3.905238878896088409e+03 1.716298731493447249e+00 4.304639699999681345e-03
3.909144117774985716e+03 1.770988996194332588e+00 5.008436973004908206e-03
3.913053261892762293e+03 1.820036048596954892e+00 5.552858965775213200e-03
3.916966315154656058e+03 1.861516355635270292e+00 4.969037109315023112e-03
3.920883281469812118e+03 1.894775356240559372e+00 4.234695750067255827e-03
3.924804164751283224e+03 1.918994874997188793e+00 4.578026408420109161e-03
3.928728968916035683e+03 1.933140127446084211e+00 5.996155802826848812e-03
3.932657697884953450e+03 1.941121704268975900e+00 6.407098933510138941e-03
3.936590355582839493e+03 1.944776663191628119e+00 5.013654123143805250e-03
3.940526945938423523e+03 1.948087931492077374e+00 3.638692013785391893e-03
3.944467472884363360e+03 1.952747911297419758e+00 4.265900333342768740e-03
3.948411940357249023e+03 1.956409214176268341e+00 4.343955568492268056e-03
3.952360352297607733e+03 1.960313268131510078e+00 4.301981085090760687e-03
3.956312712649906643e+03 1.965960294624703897e+00 3.604167692285947452e-03
3.960269025362557841e+03 1.969100108082223688e+00 3.929076448049444864e-03
3.964229294387921527e+03 1.972103302748292153e+00 4.370977809762987415e-03
3.968193523682310570e+03 1.976103257516308442e+00 4.310103168085339942e-03
3.972161717205994591e+03 1.979449657474305679e+00 4.193986373300940748e-03
3.976133878923201792e+03 1.982732618339301922e+00 4.552567388597824477e-03
3.980110012802126221e+03 1.984093454552907643e+00 5.690164021117588740e-03
3.984090122814929600e+03 1.982825461238866049e+00 6.281219975129861618e-03
3.988074212937745870e+03 1.977281555739104579e+00 5.813190835580996085e-03
3.992062287150684824e+03 1.964524900984265354e+00 5.166641710991795415e-03
3.996054349437837118e+03 1.945829013712304434e+00 5.036643049715253118e-03
4.000050403787276082e+03 1.920294119787243403e+00 5.937009383979115033e-03
4.004050454191064546e+03 1.889863651498453034e+00 5.925565077255327828e-03
4.008054504645257111e+03 1.855259823998763657e+00 5.207579125711749544e-03
4.012062559149903791e+03 1.819280414957042291e+00 4.027249341796461900e-03
4.016074621709055009e+03 1.784776963315888754e+00 3.562931325887878833e-03
4.020090696330765240e+03 1.753019568101591874e+00 3.770052508568827541e-03
4.024110787027097558e+03 1.721645393091756349e+00 3.740802717156207352e-03
4.028134897814125907e+03 1.694337466082850296e+00 3.540278569749723964e-03
4.032163032711941469e+03 1.671088375011783089e+00 2.945745493577970643e-03
4.036195195744654484e+03 1.648490697863848720e+00 3.051319326801841484e-03
4.040231390940400615e+03 1.628997992580340837e+00 3.021085120131413240e-03
4.044271622331342314e+03 1.611550579062686506e+00 3.031610669280032557e-03
4.048315893953675186e+03 1.595105348319306504e+00 3.333089878233311178e-03
4.052364209847629809e+03 1.580649726579956171e+00 4.321732487627612772e-03
4.056416574057479011e+03 1.566094838092252806e+00 4.329333325722136208e-03
4.060472990631537868e+03 1.549190492718220291e+00 3.591582507909598775e-03
4.064533463622170530e+03 1.529691199429251247e+00 3.138640241134034448e-03
4.068597997085794304e+03 1.506806282926602014e+00 3.726988565290319418e-03
4.072666595082881486e+03 1.482087135622479179e+00 3.978468280222740606e-03
4.076739261677965715e+03 1.456168887700582282e+00 3.589576605744487694e-03
4.080816000939644709e+03 1.431249069395299944e+00 3.314109865274915932e-03
4.084896816940585722e+03 1.406017647685231076e+00 2.759209548945623647e-03
4.088981713757527814e+03 1.383153145997002342e+00 2.445228527046522122e-03
4.093070695471286854e+03 1.364618521700104781e+00 2.431306554573186684e-03
4.097163766166759160e+03 1.350267017940468772e+00 2.285791563667672992e-03
4.101260929932927866e+03 1.339010719733407795e+00 2.271431930219568011e-03
4.105362190862862008e+03 1.331936994863984092e+00 2.207855420202162015e-03
4.109467553053726078e+03 1.328654405267256644e+00 2.171032953886393307e-03
4.113577020606780934e+03 1.327716132860081055e+00 2.307147741918154794e-03
4.117690597627389252e+03 1.328706499371012262e+00 2.297827437117101745e-03
4.121808288225018259e+03 1.331323684076474834e+00 2.217544174551157061e-03
4.125930096513244280e+03 1.336864401740178065e+00 2.237922632266584402e-03
4.130056026609759101e+03 1.344510391318361808e+00 1.878892279064286281e-03
4.134186082636369974e+03 1.352581899378656249e+00 1.482430270094153932e-03
4.138320268719007800e+03 1.360105587566705632e+00 1.597379565807712431e-03
4.142458588987728035e+03 1.366721192131810980e+00 1.817406343972067335e-03
4.146601047576717065e+03 1.373817847567778472e+00 1.407141199335687704e-03
4.150747648624294925e+03 1.381407647430283436e+00 1.303270382769290475e-03
4.154898396272920763e+03 1.389346892150440382e+00 1.589441509641680234e-03
4.159053294669195566e+03 1.397083365590507276e+00 1.542619466082386726e-03
4.163212347963865795e+03 1.402469448443943945e+00 1.485131215692901468e-03
4.167375560311830668e+03 1.406082207277215002e+00 1.453487416287050022e-03
4.171542935872143971e+03 1.408411133447996066e+00 1.318275839087628201e-03
4.175714478808017702e+03 1.407993604093561668e+00 1.345084462638415938e-03
4.179890193286827525e+03 1.405423672305401883e+00 1.320803945856321819e-03
4.184070083480115500e+03 1.400759977988251137e+00 1.296023584663575463e-03
4.188254153563597356e+03 1.393972575779888867e+00 1.318833536066723721e-03
4.192442407717161586e+03 1.385655220729955284e+00 1.343819401455483660e-03
4.196634850124880359e+03 1.375490262705692635e+00 1.168935938403552633e-03
4.200831484975006788e+03 1.364956634080407794e+00 1.197612384486733059e-03
4.205032316459983122e+03 1.353722243860157493e+00 1.202324608471787770e-03
4.209237348776444378e+03 1.342621227634563930e+00 1.166319927092216010e-03
4.213446586125221984e+03 1.331428537870498197e+00 1.265797361342766835e-03
4.217660032711349231e+03 1.320429457564588072e+00 1.470763901552726068e-03
4.221877692744061278e+03 1.310383304334168164e+00 1.043358381106956195e-03
4.226099570436806971e+03 1.302729367018663709e+00 9.188121720407666946e-04
4.230325670007245208e+03 1.297553944958650174e+00 1.194914209738879088e-03
4.234555995677254032e+03 1.294358749798782959e+00 1.283584106733502836e-03
4.238790551672932452e+03 1.292484493194690387e+00 1.169521524097764942e-03
4.243029342224606808e+03 1.291360919031711241e+00 1.561173019705658881e-03
4.247272371566832589e+03 1.292169893165634686e+00 1.694432063173440060e-03
4.251519643938400804e+03 1.295831089707821127e+00 1.764015837024032621e-03
4.255771163582340705e+03 1.300167656988766574e+00 1.814706517651061904e-03
4.260026934745924336e+03 1.305730849577260377e+00 2.245585215479590797e-03
4.264286961680671993e+03 1.311036985900999374e+00 2.762971922566944630e-03
4.268551248642354039e+03 1.313318608418727829e+00 2.724772425139590504e-03
4.272819799890998183e+03 1.313519914395659738e+00 2.647978609614743718e-03
4.277092619690890388e+03 1.310682662292796508e+00 2.503473898255263123e-03
4.281369712310583054e+03 1.304972825444861373e+00 2.470555873237741812e-03
4.285651082022895025e+03 1.295573799233117773e+00 2.890228794543937916e-03
4.289936733104918858e+03 1.284152629886189834e+00 3.069138100163661120e-03
4.294226669838025373e+03 1.270764144322815037e+00 2.896243489877986434e-03
4.298520896507864563e+03 1.255617704415905367e+00 2.310693328598250121e-03
4.302819417404373780e+03 1.240880569104663822e+00 1.916084498426376100e-03
4.307122236821779552e+03 1.226809771905161828e+00 2.256268763627223596e-03
4.311429359058603040e+03 1.213442650550540680e+00 2.313747841682005889e-03
4.315740788417662770e+03 1.199366653037491348e+00 1.857176549568823271e-03
4.320056529206081905e+03 1.184764676118533533e+00 1.697776341408616238e-03
4.324376585735290064e+03 1.168954307877730914e+00 1.924176213795477947e-03
4.328700962321026054e+03 1.153328888940005070e+00 1.871062192794836678e-03
4.333029663283348782e+03 1.137835093706365264e+00 1.992160273769287820e-03
4.337362692946633615e+03 1.120796245981470873e+00 1.938018327699723596e-03
4.341700055639581478e+03 1.104085915072169577e+00 2.272055737108505565e-03
4.346041755695222491e+03 1.086448399976290169e+00 2.222040216028809204e-03
4.350387797450919606e+03 1.066724633147796419e+00 2.197757719358399073e-03
4.354738185248371337e+03 1.047155037643080933e+00 1.974822746191313375e-03
4.359092923433621763e+03 1.026277747139159313e+00 2.166071076337868634e-03
4.363452016357056891e+03 1.005626910561865595e+00 2.313844164492301087e-03
4.367815468373414660e+03 9.850297058371011438e-01 2.530370810999469505e-03
4.372183283841789489e+03 9.662897904081835243e-01 2.610957850869188596e-03
4.376555467125633186e+03 9.511259677650150124e-01 2.166916645738075926e-03
4.380932022592760404e+03 9.396218238616574903e-01 1.530619612465617925e-03
4.385312954615354101e+03 9.331651875844395594e-01 1.469710515738320697e-03
4.389698267569970994e+03 9.326304780788966520e-01 1.452794454774761993e-03
4.394087965837542470e+03 9.367353716657427221e-01 1.217290482769547858e-03
4.398482053803381859e+03 9.450379596707798591e-01 1.229429818233270617e-03
4.402880535857186260e+03 9.582847161888001786e-01 1.318725347144343411e-03
4.407283416393044718e+03 9.745480019055531296e-01 1.356821131166787743e-03
4.411690699809440048e+03 9.945629470636013769e-01 1.644988623551115262e-03
4.416102390509250654e+03 1.016462430685174612e+00 1.789410688658483930e-03
4.420518492899761441e+03 1.039070164140783570e+00 1.974894983297372387e-03
4.424939011392662906e+03 1.062055915454747979e+00 1.686663461002915233e-03
4.429363950404056595e+03 1.083920768679480950e+00 1.529919554717885368e-03
4.433793314354462382e+03 1.104373104762422120e+00 1.540298765023922524e-03
4.438227107668818462e+03 1.123904292384134251e+00 1.552777599855284128e-03
4.442665334776488635e+03 1.141793227214408013e+00 1.535205973014726723e-03
4.447108000111265937e+03 1.158467422187702489e+00 1.612681475344138323e-03
4.451555108111379013e+03 1.173592137629901666e+00 1.403670304779463911e-03
4.456006663219492111e+03 1.188477929765412444e+00 8.423529730280285809e-04
4.460462669882713271e+03 1.204865404714462906e+00 8.465748837992985052e-04
4.464923132552597053e+03 1.221107381460768027e+00 1.427134590080257484e-03
4.469388055685150903e+03 1.239023602223693343e+00 1.546949858459106472e-03
4.473857443740837880e+03 1.259782266621952251e+00 1.551821753033733996e-03
4.478331301184580298e+03 1.281767796807907978e+00 1.593985099424067523e-03
4.482809632485766087e+03 1.305091098795795990e+00 1.712138706962018858e-03
