# starting wavelength: 3488.370
# ending wavelength: 7345.560
# wav flux eflux
3.491651790619498570e+03 7.226900096408316321e-01 4.565569314442768922e-02
3.495143442410119405e+03 7.122539423938075709e-01 3.427307067142176811e-02
3.498638585852530468e+03 6.914239118338998402e-01 2.856172086076282091e-02
3.502137224438384237e+03 6.682562273266806629e-01 2.300449566020483852e-02
3.505639361662823831e+03 6.435369033952751394e-01 2.268291654332548965e-02
3.509145001024487556e+03 6.238611815264206717e-01 2.188319163570266040e-02
3.512654146025513455e+03 6.110334957600478401e-01 2.081068103447555190e-02
3.516166800171540217e+03 6.043932126503294144e-01 1.787222160875170593e-02
3.519682966971712631e+03 6.003999139222274684e-01 1.493407203888215060e-02
3.523202649938685681e+03 5.996125610113026694e-01 1.317812500052812502e-02
3.526725852588625457e+03 6.016454962423791741e-01 1.213345305434188753e-02
3.530252578441215064e+03 6.025057561831791419e-01 1.101746515625545014e-02
3.533782831019657806e+03 6.006322645988748654e-01 1.031180653384682587e-02
3.537316613850678550e+03 5.978101224656408030e-01 9.842378243992143047e-03
3.540853930464530094e+03 5.945464198734516925e-01 9.491168496377313732e-03
3.544394784394995895e+03 5.915776393026186408e-01 9.145534007812860036e-03
3.547939179179392340e+03 5.872697399894171166e-01 9.073952769254958056e-03
3.551487118358572843e+03 5.840311161817131058e-01 8.868553714497988058e-03
3.555038605476932389e+03 5.802491274923936571e-01 9.391699014845189195e-03
3.558593644082410719e+03 5.797006038274375994e-01 9.654626472373112334e-03
3.562152237726494150e+03 5.774631227013413692e-01 1.002952736858525595e-02
3.565714389964221937e+03 5.738089638940797599e-01 1.002376344535792045e-02
3.569280104354187188e+03 5.709963667137525345e-01 9.447392352211321509e-03
3.572849384458542772e+03 5.678798775132251064e-01 8.724121339979903217e-03
3.576422233843002232e+03 5.626791762377293393e-01 7.957008640099176577e-03
3.579998656076846601e+03 5.621408619790636552e-01 8.057988266743577183e-03
3.583578654732924406e+03 5.613835573061208839e-01 8.032764310731957055e-03
3.587162233387658489e+03 5.612186316676465170e-01 8.008400681739760718e-03
3.590749395621047370e+03 5.641554006344393635e-01 7.901554367208164786e-03
3.594340145016669794e+03 5.699686015574173537e-01 7.292651583445577262e-03
3.597934485161687462e+03 5.746154816191137993e-01 7.409195005692978571e-03
3.601532419646850485e+03 5.816680304642235511e-01 6.914123293380720209e-03
3.605133952066498296e+03 5.884716132642536790e-01 6.532183350487351381e-03
3.608739086018566013e+03 5.942203071646536827e-01 6.335970613004901844e-03
3.612347825104585809e+03 6.005252007254312518e-01 6.308881404669204086e-03
3.615960172929691907e+03 6.046076873788215345e-01 6.286217039083158778e-03
3.619576133102622407e+03 6.067867683149713587e-01 5.925567485414970012e-03
3.623195709235726554e+03 6.079729358650843851e-01 5.606424868153199112e-03
3.626818904944963379e+03 6.079572149527225911e-01 5.148299960414912807e-03
3.630445723849909427e+03 6.078231192054379672e-01 5.146061910498351578e-03
3.634076169573760581e+03 6.071106569707293010e-01 5.182645045921709624e-03
3.637710245743335690e+03 6.074746488248239373e-01 5.354385414771198858e-03
3.641347955989080219e+03 6.074468724800274888e-01 5.375048310391962458e-03
3.644989303945070333e+03 6.085234127924584735e-01 5.322253024670653421e-03
3.648634293249016537e+03 6.106328880886601196e-01 4.861606681947183706e-03
3.652282927542266862e+03 6.111736640463797388e-01 5.046499510618316156e-03
3.655935210469810499e+03 6.110490678810920340e-01 4.968999651179961501e-03
3.659591145680281443e+03 6.090353614965988704e-01 5.392459538493158538e-03
3.663250736825963031e+03 6.071387606333586984e-01 5.972109075945256779e-03
3.666913987562790226e+03 6.036831327626563937e-01 6.771512864473076820e-03
3.670580901550354156e+03 6.021234650575577607e-01 6.887567290934327666e-03
3.674251482451905758e+03 5.989800574598730387e-01 5.389774453657230659e-03
3.677925733934358959e+03 5.997631331643401564e-01 4.886796178223002003e-03
3.681603659668294313e+03 6.038760414692838641e-01 4.726474540951154137e-03
3.685285263327964003e+03 6.132522317286477342e-01 5.145879208506118525e-03
3.688970548591293209e+03 6.231702440700567225e-01 5.478846998151019193e-03
3.692659519139885560e+03 6.365538522973819280e-01 5.956179901903667015e-03
3.696352178659026777e+03 6.493956692075463222e-01 6.812875797467838647e-03
3.700048530837686940e+03 6.601981426122927044e-01 7.087807271707317024e-03
3.703748579368525952e+03 6.720088731233793133e-01 7.136886394354139893e-03
3.707452327947895355e+03 6.817409565976517705e-01 6.846970681066003039e-03
3.711159780275844696e+03 6.898722877077536619e-01 6.651419056578724773e-03
3.714870940056121526e+03 6.939580870095918286e-01 6.719899696219977167e-03
3.718585810996179134e+03 6.938773421601112101e-01 6.822218655073802179e-03
3.722304396807176545e+03 6.911707961978243997e-01 6.626199779070620667e-03
3.726026701203984885e+03 6.845835442970343854e-01 6.353263667814995630e-03
3.729752727905190113e+03 6.716780547646344912e-01 7.007992319236409223e-03
3.733482480633096657e+03 6.527882668998875593e-01 7.277729974209563857e-03
3.737215963113731050e+03 6.303518859500193416e-01 5.671934510612030959e-03
3.740953179076846027e+03 6.067940794230959334e-01 4.299550499925124808e-03
3.744694132255923705e+03 5.828744791968403227e-01 4.496521029210619885e-03
3.748438826388181042e+03 5.607252062660736946e-01 4.193266161946434742e-03
3.752187265214570289e+03 5.419626091647616883e-01 4.372944729035444129e-03
3.755939452479786269e+03 5.298037963743277290e-01 4.536046508969312184e-03
3.759695391932267285e+03 5.219197305737052206e-01 4.523249779304892339e-03
3.763455087324201031e+03 5.163175828915634868e-01 4.116353771428217859e-03
3.767218542411526414e+03 5.159407751581835955e-01 4.438983022799300286e-03
3.770985760953939007e+03 5.219247815787160238e-01 5.158551946119398039e-03
3.774756746714894234e+03 5.289332213881700051e-01 5.159178897590126732e-03
3.778531503461610555e+03 5.374797260577803826e-01 4.876537999888946179e-03
3.782310034965073100e+03 5.495032472603708085e-01 4.458244194123870720e-03
3.786092345000039586e+03 5.626189663822784848e-01 4.537838176850900011e-03
3.789878437345040766e+03 5.775571070492759862e-01 4.053341605501146853e-03
3.793668315782387253e+03 5.899280022268957868e-01 3.629252722902121756e-03
3.797461984098170888e+03 5.996255198315129098e-01 3.728923736845838992e-03
3.801259446082270188e+03 6.063776319052828212e-01 3.688956688565806982e-03
3.805060705528353537e+03 6.074245964352970040e-01 3.936052436179563602e-03
3.808865766233883278e+03 6.044793346090500119e-01 4.093957810612399752e-03
3.812674632000118436e+03 5.988381066750091408e-01 4.148724567921374326e-03
3.816487306632119726e+03 5.896617990113383057e-01 4.613350677661397919e-03
3.820303793938753188e+03 5.790689978025711504e-01 4.447078758035829561e-03
3.824124097732693372e+03 5.683474477817592740e-01 4.621585747421531019e-03
3.827948221830427428e+03 5.589967448450988696e-01 4.797566926919234580e-03
3.831776170052258749e+03 5.513743920912449470e-01 4.951048011493409083e-03
3.835607946222312421e+03 5.446375314139897394e-01 4.548056100293393356e-03
3.839443554168536139e+03 5.412880112742947114e-01 5.202733519593705051e-03
3.843282997722705659e+03 5.405453652950221732e-01 5.544040314952747989e-03
3.847126280720429804e+03 5.400573709237690423e-01 5.475072820798638357e-03
3.850973407001151372e+03 5.430486872843944823e-01 5.259114698263524755e-03
3.854824380408153957e+03 5.497320520796106225e-01 5.124876482026113900e-03
3.858679204788563311e+03 5.575860383660662389e-01 5.412636862992288925e-03
3.862537883993353262e+03 5.691850906651366726e-01 4.910115313866869613e-03
3.866400421877347981e+03 5.847719027566554706e-01 5.062454705842020335e-03
3.870266822299226533e+03 6.009401491894743597e-01 5.283225532987981775e-03
3.874137089121526969e+03 6.212842802924060104e-01 5.467844945775019415e-03
3.878011226210649966e+03 6.435938779172422075e-01 5.418800910337950513e-03
3.881889237436861549e+03 6.677280226640590621e-01 5.201021622711551710e-03
3.885771126674299921e+03 6.922219768179682653e-01 5.179098356875627175e-03
3.889656897800975457e+03 7.188548977323916400e-01 4.991937049894237290e-03
3.893546554698777527e+03 7.460401647416980975e-01 4.736881610120095148e-03
3.897440101253477678e+03 7.700536228863064103e-01 4.846511601985061153e-03
3.901337541354732366e+03 7.936318808958578996e-01 4.850081076207198548e-03
3.905238878896088409e+03 8.150639403658839210e-01 4.224545674665050078e-03
3.909144117774985716e+03 8.364126453063693845e-01 3.987987049720431894e-03
3.913053261892762293e+03 8.587809116405336063e-01 4.297979322541688185e-03
3.916966315154656058e+03 8.813151983758118480e-01 3.399292049076042214e-03
3.920883281469812118e+03 9.001993906643801502e-01 2.655526163749267685e-03
3.924804164751283224e+03 9.144168533365983897e-01 3.692163780612555540e-03
3.928728968916035683e+03 9.269053194263644491e-01 4.277571473616176637e-03
3.932657697884953450e+03 9.393860047835057570e-01 3.828599014163894254e-03
3.936590355582839493e+03 9.511118833166100073e-01 3.003963532827877425e-03
3.940526945938423523e+03 9.650010127523938053e-01 3.462363207029717574e-03
3.944467472884363360e+03 9.788620558171926556e-01 3.665012273826592955e-03
3.948411940357249023e+03 9.911770112283724288e-01 3.677558562133470457e-03
3.952360352297607733e+03 1.001504075019933770e+00 3.551429740236961181e-03
3.956312712649906643e+03 1.009804633545113184e+00 3.568136454215743106e-03
3.960269025362557841e+03 1.017804070732208910e+00 3.538290250139200510e-03
3.964229294387921527e+03 1.024669889426215397e+00 3.288191055173956320e-03
3.968193523682310570e+03 1.028821471976178570e+00 3.273450489756438760e-03
3.972161717205994591e+03 1.029371736880574373e+00 3.525563911625694425e-03
3.976133878923201792e+03 1.029609409299688361e+00 3.232839353092757662e-03
3.980110012802126221e+03 1.030933894953249164e+00 2.529724975141028811e-03
3.984090122814929600e+03 1.035547804264217664e+00 2.447793284616556209e-03
3.988074212937745870e+03 1.042600504708977027e+00 2.449467385228610607e-03
3.992062287150684824e+03 1.052761442944242676e+00 2.238179310140220226e-03
3.996054349437837118e+03 1.064517073523711721e+00 2.488556213398590306e-03
4.000050403787276082e+03 1.075597105609918058e+00 2.483765792317310910e-03
4.004050454191064546e+03 1.086307321438863438e+00 2.616261772231097144e-03
4.008054504645257111e+03 1.099113172559482043e+00 2.567767308051929331e-03
4.012062559149903791e+03 1.111680390094072823e+00 2.561634315684578438e-03
4.016074621709055009e+03 1.125671459835878796e+00 2.672837020804366866e-03
4.020090696330765240e+03 1.137496173020809742e+00 2.600512539534235133e-03
4.024110787027097558e+03 1.147528635255535168e+00 2.582119684293404833e-03
4.028134897814125907e+03 1.154602892368070455e+00 2.476538144165696224e-03
4.032163032711941469e+03 1.159259004312707786e+00 2.393990280933810423e-03
4.036195195744654484e+03 1.162899082667321338e+00 2.303759018990555064e-03
4.040231390940400615e+03 1.163083663371583976e+00 1.965113795541151721e-03
4.044271622331342314e+03 1.159451293498461100e+00 1.938088309395546429e-03
4.048315893953675186e+03 1.151773515500665646e+00 2.033659981205393139e-03
4.052364209847629809e+03 1.141316490558426100e+00 1.979418820530092372e-03
4.056416574057479011e+03 1.128282142925219445e+00 2.043839012352361307e-03
4.060472990631537868e+03 1.111997900372403869e+00 2.019841269150791149e-03
4.064533463622170530e+03 1.092894673743548539e+00 1.943686416191740818e-03
4.068597997085794304e+03 1.072954479659830707e+00 1.995181804435703764e-03
4.072666595082881486e+03 1.052781962077073308e+00 2.276234610682430649e-03
4.076739261677965715e+03 1.032092125473062616e+00 2.496602323298722104e-03
4.080816000939644709e+03 1.011674657994309445e+00 2.092727244925336478e-03
4.084896816940585722e+03 9.932823665821867154e-01 1.934953277961014555e-03
4.088981713757527814e+03 9.772714245455804694e-01 2.069998726623168295e-03
4.093070695471286854e+03 9.640400450112713848e-01 2.635053620811239703e-03
4.097163766166759160e+03 9.502128310933176669e-01 2.815955111554603856e-03
4.101260929932927866e+03 9.369703403975244704e-01 2.788743045658129832e-03
4.105362190862862008e+03 9.234948659331497778e-01 2.781078260734881364e-03
4.109467553053726078e+03 9.083330895702271812e-01 2.227487776871280196e-03
4.113577020606780934e+03 8.909256204868755136e-01 1.853996373904314527e-03
4.117690597627389252e+03 8.706147599488909261e-01 2.301089251613187836e-03
4.121808288225018259e+03 8.488467425651415876e-01 2.335055367068058184e-03
4.125930096513244280e+03 8.257383161892101198e-01 1.907783103407031120e-03
4.130056026609759101e+03 8.035900696212761041e-01 1.464073081774184193e-03
4.134186082636369974e+03 7.826313787254587373e-01 1.451023234196909114e-03
4.138320268719007800e+03 7.633478412172635119e-01 1.275956081742247051e-03
4.142458588987728035e+03 7.474557368744672026e-01 1.241300083971795098e-03
4.146601047576717065e+03 7.345456819932233428e-01 1.250434293958288404e-03
4.150747648624294925e+03 7.242210862386752046e-01 1.418311563965468517e-03
4.154898396272920763e+03 7.179993316692996341e-01 1.424146390785355513e-03
4.159053294669195566e+03 7.148970987581310110e-01 1.676580203830643117e-03
4.163212347963865795e+03 7.138614725784108161e-01 2.145538912339045676e-03
4.167375560311830668e+03 7.153978684383149877e-01 2.798135373768429607e-03
4.171542935872143971e+03 7.158964957924052186e-01 2.500804286505835250e-03
4.175714478808017702e+03 7.151129774785186521e-01 2.414163720617739945e-03
4.179890193286827525e+03 7.139065635417282119e-01 2.273447199595946162e-03
4.184070083480115500e+03 7.119063554135824923e-01 1.944983376703039593e-03
4.188254153563597356e+03 7.070074278970800430e-01 2.085330372239871128e-03
4.192442407717161586e+03 7.001810120341712684e-01 2.176254638045189028e-03
4.196634850124880359e+03 6.921979341761322901e-01 2.000660351201398717e-03
4.200831484975006788e+03 6.840571851800444358e-01 1.925412873650539109e-03
4.205032316459983122e+03 6.765634397264314037e-01 1.712785306545179737e-03
4.209237348776444378e+03 6.714087291959858206e-01 1.649014575543113247e-03
4.213446586125221984e+03 6.680520635296699483e-01 1.510518725807491556e-03
4.217660032711349231e+03 6.679196757027368037e-01 1.492903107557810166e-03
4.221877692744061278e+03 6.712155939254854653e-01 1.413661034102563739e-03
4.226099570436806971e+03 6.765600336004279347e-01 1.404699874656179220e-03
4.230325670007245208e+03 6.836883573510694756e-01 1.299599811493052466e-03
4.234555995677254032e+03 6.940103923411997666e-01 1.541638664618870912e-03
4.238790551672932452e+03 7.059242545981297967e-01 1.584777955807240750e-03
4.243029342224606808e+03 7.194486531428232468e-01 1.515366396744462132e-03
4.247272371566832589e+03 7.336819162168168873e-01 7.673989645529596124e-04
4.251519643938400804e+03 7.460575201188147654e-01 1.038595599156116444e-03
4.255771163582340705e+03 7.584942199776292249e-01 9.843547422734042016e-04
4.260026934745924336e+03 7.705554539881489529e-01 1.041949964707944085e-03
4.264286961680671993e+03 7.818356421958824187e-01 1.399564165153213214e-03
4.268551248642354039e+03 7.901836163329706286e-01 1.451731369428276540e-03
4.272819799890998183e+03 7.962003084098442374e-01 1.393600069512553746e-03
4.277092619690890388e+03 8.004649518940212261e-01 1.412471819772816248e-03
4.281369712310583054e+03 8.010097474953054020e-01 1.560534159755905910e-03
4.285651082022895025e+03 7.997512581736802018e-01 1.576481902810271873e-03
4.289936733104918858e+03 7.958314703495064091e-01 2.350290114898932921e-03
4.294226669838025373e+03 7.915560631762683652e-01 2.365070326771984404e-03
4.298520896507864563e+03 7.873948578546042798e-01 2.288308189719603924e-03
4.302819417404373780e+03 7.844580165925405524e-01 2.101374954337518770e-03
4.307122236821779552e+03 7.828053626767439432e-01 1.956303990772296185e-03
4.311429359058603040e+03 7.823941763357185053e-01 1.819081530536021318e-03
4.315740788417662770e+03 7.848905171671779479e-01 1.800015161237826337e-03
4.320056529206081905e+03 7.890918619978050108e-01 1.790169885625307773e-03
4.324376585735290064e+03 7.958372476281200258e-01 1.683804028667743209e-03
4.328700962321026054e+03 8.042165369193021718e-01 1.662476501582606583e-03
4.333029663283348782e+03 8.134222350342514840e-01 1.584641114012520476e-03
4.337362692946633615e+03 8.240185075629725686e-01 1.805879132466991837e-03
4.341700055639581478e+03 8.346583635819577740e-01 2.281013266234491622e-03
4.346041755695222491e+03 8.448067440435245157e-01 2.874920511672558049e-03
4.350387797450919606e+03 8.513584040552688581e-01 2.923201303950715563e-03
4.354738185248371337e+03 8.544815701559220766e-01 2.764613241234146340e-03
4.359092923433621763e+03 8.539914301228542781e-01 2.079097817363784531e-03
4.363452016357056891e+03 8.482436577805504418e-01 2.228247801063737085e-03
4.367815468373414660e+03 8.388943562518872410e-01 2.565915971659938483e-03
4.372183283841789489e+03 8.244277471531020751e-01 3.129675845210031903e-03
4.376555467125633186e+03 8.091666674964640427e-01 3.119986954040825447e-03
4.380932022592760404e+03 7.939355234992940824e-01 2.294016285014890879e-03
4.385312954615354101e+03 7.810603381910002918e-01 1.706007197052182133e-03
4.389698267569970994e+03 7.707718675756011217e-01 1.681888992057213594e-03
4.394087965837542470e+03 7.631670851382096332e-01 1.867465016148696540e-03
4.398482053803381859e+03 7.583361955298607571e-01 1.710436455522876004e-03
4.402880535857186260e+03 7.558030997966991293e-01 1.602548357435381720e-03
4.407283416393044718e+03 7.557498667988492569e-01 1.506600837427568779e-03
4.411690699809440048e+03 7.583844573548326196e-01 1.697039188702603252e-03
4.416102390509250654e+03 7.617142188454973928e-01 2.058252530433284100e-03
4.420518492899761441e+03 7.649945595187339631e-01 2.447442732920884767e-03
4.424939011392662906e+03 7.669571889610738991e-01 2.493145044769410831e-03
4.429363950404056595e+03 7.674393294447372504e-01 2.284655734171557335e-03
4.433793314354462382e+03 7.655491992220866404e-01 2.241500721313350632e-03
4.438227107668818462e+03 7.617082996706450171e-01 2.103027183212746558e-03
4.442665334776488635e+03 7.546735837776277211e-01 2.082913496189225163e-03
4.447108000111265937e+03 7.452236952570935324e-01 2.650310175172345285e-03
4.451555108111379013e+03 7.345629946225044060e-01 3.446756916181146612e-03
4.456006663219492111e+03 7.232550110127509146e-01 3.829788194606990014e-03
4.460462669882713271e+03 7.158466916292259841e-01 3.064947567851142134e-03
4.464923132552597053e+03 7.133363632246091379e-01 2.505047492005694262e-03
4.469388055685150903e+03 7.157546455603699398e-01 2.473030049353293781e-03
4.473857443740837880e+03 7.239464791763415841e-01 2.672241239437871986e-03
4.478331301184580298e+03 7.374253086142275038e-01 2.534750129244843671e-03
4.482809632485766087e+03 7.548221297206700875e-01 2.368425666471070130e-03
4.487292442118253348e+03 7.763719764864956963e-01 2.287802883870869962e-03
4.491779734560373072e+03 8.015842051023646109e-01 2.266140455969633399e-03
4.496271514294934605e+03 8.301743488544729432e-01 2.119617789349206947e-03
4.500767785809231100e+03 8.610944451057319649e-01 2.080836407719304903e-03
4.505268553595042249e+03 8.937615707536491483e-01 2.158672070680950177e-03
4.509773822148638828e+03 9.263295665563885395e-01 2.148547898622577175e-03
4.514283595970789065e+03 9.591759406923272557e-01 2.386093255610188552e-03
4.518797879566761367e+03 9.919323550015416435e-01 2.617458694126527114e-03
4.523316677446328868e+03 1.023189390474416927e+00 2.103981718133052584e-03
4.527839994123776705e+03 1.051833082274582054e+00 1.748911764499298848e-03
4.532367834117902021e+03 1.077511450174874152e+00 1.934452670261369110e-03
4.536900201952022144e+03 1.100101546866862900e+00 2.224900943220343985e-03
4.541437102153975502e+03 1.120161596198179899e+00 1.576780438086144900e-03
4.545978539256130716e+03 1.139777698537295603e+00 1.337008582225577853e-03
