# starting wavelength: 3470.980
# ending wavelength: 7360.260
# wav flux eflux
3.474245784479418489e+03 1.852642055704157575e-01 4.258805219085091964e-02
3.477720030263898934e+03 2.021414775369176353e-01 3.488851551413058028e-02
3.481197750294164052e+03 2.061294535478813139e-01 2.869849064247376180e-02
3.484678948044459503e+03 2.069810270515934358e-01 2.241426915938338552e-02
3.488163626992504760e+03 2.047959090834264584e-01 1.859255408250141961e-02
3.491651790619498570e+03 1.932780452082359102e-01 1.588658410710788380e-02
3.495143442410119405e+03 1.823697024644095055e-01 1.295788154874347696e-02
3.498638585852530468e+03 1.720833417471967497e-01 1.248655137074964304e-02
3.502137224438384237e+03 1.642831551633425202e-01 1.117761342936917333e-02
3.505639361662823831e+03 1.589566010646566441e-01 1.021784206294176073e-02
3.509145001024487556e+03 1.518905609569283499e-01 9.496767200468705580e-03
3.512654146025513455e+03 1.480141525525055513e-01 8.728828795854376432e-03
3.516166800171540217e+03 1.486870298357734765e-01 8.189217786972216931e-03
3.519682966971712631e+03 1.512105615684017912e-01 7.730544953130425931e-03
3.523202649938685681e+03 1.565125765768551613e-01 7.433944285345736244e-03
3.526725852588625457e+03 1.655262071934884838e-01 7.255694877396785467e-03
3.530252578441215064e+03 1.815576334283746929e-01 7.252639337905569805e-03
3.533782831019657806e+03 2.005753766411216832e-01 7.436357340559068135e-03
3.537316613850678550e+03 2.252419857867501707e-01 7.439021459009120298e-03
3.540853930464530094e+03 2.550567269085198263e-01 7.909659878003932887e-03
3.544394784394995895e+03 2.867082623412695042e-01 7.897421566973655480e-03
3.547939179179392340e+03 3.221114610996054783e-01 7.939104573883158655e-03
3.551487118358572843e+03 3.600119041049720248e-01 7.918961114538112037e-03
3.555038605476932389e+03 3.962074616884110889e-01 8.019457814378750868e-03
3.558593644082410719e+03 4.293300785879390347e-01 7.858628165422295100e-03
3.562152237726494150e+03 4.665441729488258860e-01 8.797445914804774558e-03
3.565714389964221937e+03 5.044162595089655143e-01 9.521580037787505738e-03
3.569280104354187188e+03 5.394056783603313754e-01 9.911710141724061965e-03
3.572849384458542772e+03 5.678354568086154686e-01 9.793646949807907273e-03
3.576422233843002232e+03 5.904972040949741929e-01 9.737513117340289986e-03
3.579998656076846601e+03 6.087182079259110257e-01 9.155747376526043521e-03
3.583578654732924406e+03 6.235313301748233172e-01 8.658635048668499382e-03
3.587162233387658489e+03 6.312354100253696476e-01 7.995982817018574759e-03
3.590749395621047370e+03 6.316661351106709343e-01 7.723178415300600147e-03
3.594340145016669794e+03 6.211981246453885941e-01 7.724888364527065718e-03
3.597934485161687462e+03 6.008204594792848630e-01 8.008517157078485355e-03
3.601532419646850485e+03 5.765972532545413642e-01 8.449213256777301367e-03
3.605133952066498296e+03 5.427975684866914730e-01 9.590490528169487439e-03
3.608739086018566013e+03 5.035558817890576355e-01 9.119103052934410258e-03
3.612347825104585809e+03 4.614528429489251349e-01 7.961525946011561300e-03
3.615960172929691907e+03 4.229245188431560720e-01 8.181783130318795449e-03
3.619576133102622407e+03 3.830008811479064801e-01 8.170146708958360426e-03
3.623195709235726554e+03 3.407070799817396023e-01 8.306689146794388190e-03
3.626818904944963379e+03 2.987763877123160716e-01 9.104173619708827783e-03
3.630445723849909427e+03 2.593231125950551386e-01 7.833807332894517431e-03
3.634076169573760581e+03 2.291017209118936804e-01 7.743613477418346928e-03
3.637710245743335690e+03 2.008805158716911454e-01 7.241389988714813999e-03
3.641347955989080219e+03 1.775838577961016407e-01 6.779787958456034817e-03
3.644989303945070333e+03 1.612958825851247835e-01 6.551541112332308521e-03
3.648634293249016537e+03 1.571689102311029373e-01 6.872872805126697439e-03
3.652282927542266862e+03 1.610241949100629233e-01 7.813931059222976871e-03
3.655935210469810499e+03 1.684266283258427088e-01 7.754128763099941632e-03
3.659591145680281443e+03 1.814660449460082092e-01 8.076248019546946808e-03
3.663250736825963031e+03 2.005059044963010961e-01 8.557545913457408407e-03
3.666913987562790226e+03 2.209507880685687431e-01 9.109600326005799428e-03
3.670580901550354156e+03 2.421215264958326285e-01 9.932987430695736780e-03
3.674251482451905758e+03 2.677384082168336454e-01 9.598283388746515002e-03
3.677925733934358959e+03 2.906131686795474511e-01 9.949840746739211858e-03
3.681603659668294313e+03 3.051111820174201572e-01 9.233469181630067982e-03
3.685285263327964003e+03 3.081043226552852565e-01 9.420101021148210088e-03
3.688970548591293209e+03 3.073668439899350235e-01 9.341979439471613869e-03
3.692659519139885560e+03 3.038042815697605259e-01 8.800284762170991482e-03
3.696352178659026777e+03 2.907465820381900379e-01 8.914760744001742898e-03
3.700048530837686940e+03 2.689312982685769238e-01 1.052692990567915578e-02
3.703748579368525952e+03 2.421140560616074633e-01 1.254031537907349982e-02
3.707452327947895355e+03 2.063107977083171729e-01 1.259453575904504082e-02
3.711159780275844696e+03 1.731934061168828587e-01 1.112751371447187956e-02
3.714870940056121526e+03 1.460935356079605674e-01 1.006128460410517234e-02
3.718585810996179134e+03 1.222487926014060033e-01 9.367132031632700168e-03
3.722304396807176545e+03 1.031123159033366099e-01 9.109340640505910955e-03
3.726026701203984885e+03 9.169590411925002127e-02 8.230065172936890452e-03
3.729752727905190113e+03 8.896406654624008925e-02 8.238917162221937388e-03
3.733482480633096657e+03 9.661967654368430747e-02 7.983531448920484427e-03
3.737215963113731050e+03 1.132169665098275435e-01 7.743690785000444110e-03
3.740953179076846027e+03 1.347483535325388060e-01 7.724764276557649460e-03
3.744694132255923705e+03 1.622300753963927811e-01 7.910610371216581990e-03
3.748438826388181042e+03 1.987029291908021522e-01 7.322630030131596982e-03
3.752187265214570289e+03 2.364583935208658672e-01 6.916452240526547481e-03
3.755939452479786269e+03 2.706399374867722307e-01 6.924972788587723492e-03
3.759695391932267285e+03 3.034912903861965439e-01 6.890373116006823055e-03
3.763455087324201031e+03 3.327021487885338802e-01 6.875370474590330148e-03
3.767218542411526414e+03 3.603214451477482205e-01 7.005789122633823349e-03
3.770985760953939007e+03 3.840001822675546683e-01 6.914539842813364166e-03
3.774756746714894234e+03 4.058132879696902950e-01 6.598281241508174681e-03
3.778531503461610555e+03 4.140188780126517476e-01 7.238121143121401153e-03
3.782310034965073100e+03 4.181209966183965787e-01 7.382260458429560669e-03
3.786092345000039586e+03 4.179401638332281843e-01 7.609819328931079728e-03
3.789878437345040766e+03 4.073589406728871376e-01 8.603719480779698295e-03
3.793668315782387253e+03 3.986314325461552399e-01 7.629585490542423014e-03
3.797461984098170888e+03 3.888679410276789095e-01 7.343436745512318606e-03
3.801259446082270188e+03 3.788231796053005418e-01 7.426482575380297969e-03
3.805060705528353537e+03 3.680771759221077577e-01 7.436692809160989903e-03
3.808865766233883278e+03 3.579548321999458382e-01 7.377746644502348322e-03
3.812674632000118436e+03 3.478993228689992723e-01 7.677772966441519069e-03
3.816487306632119726e+03 3.454762976702303590e-01 8.045237610297299030e-03
3.820303793938753188e+03 3.410946011288280011e-01 8.176989727883483480e-03
3.824124097732693372e+03 3.327119591785075992e-01 9.308419801676431904e-03
3.827948221830427428e+03 3.308952156148312063e-01 9.233953269039319942e-03
3.831776170052258749e+03 3.342151942488352234e-01 9.199679814886143475e-03
3.835607946222312421e+03 3.372087142903352763e-01 9.198068845140515079e-03
3.839443554168536139e+03 3.383061712065673632e-01 9.266093011971577795e-03
3.843282997722705659e+03 3.451239805177809816e-01 8.958547445070715390e-03
3.847126280720429804e+03 3.572702133983682304e-01 9.032537774147451209e-03
3.850973407001151372e+03 3.735761780677691046e-01 9.486228151565566716e-03
3.854824380408153957e+03 3.965266523984494196e-01 8.525587532305294730e-03
3.858679204788563311e+03 4.177881968008889113e-01 8.824754862984778014e-03
3.862537883993353262e+03 4.395515657137920029e-01 8.703833357190847442e-03
3.866400421877347981e+03 4.595230818757104485e-01 9.641235299112281554e-03
3.870266822299226533e+03 4.787873255154306285e-01 8.612266643797722096e-03
3.874137089121526969e+03 5.071788301081315842e-01 8.598676425950402963e-03
3.878011226210649966e+03 5.360496461581770733e-01 9.562084640107135908e-03
3.881889237436861549e+03 5.616265157996687130e-01 9.859174855524779554e-03
3.885771126674299921e+03 5.786629413652193410e-01 1.026565354957163605e-02
3.889656897800975457e+03 5.985616994689769710e-01 1.071512595359985429e-02
3.893546554698777527e+03 6.191427008641730012e-01 1.248469472572958164e-02
3.897440101253477678e+03 6.405708713973193857e-01 1.163436050292563154e-02
3.901337541354732366e+03 6.633072673137335729e-01 1.068575708531428053e-02
3.905238878896088409e+03 6.933120981405587191e-01 1.176208532078456409e-02
3.909144117774985716e+03 7.209758994800808951e-01 1.222619622300340561e-02
3.913053261892762293e+03 7.423847857043238685e-01 1.209922361004219481e-02
3.916966315154656058e+03 7.551493733424494703e-01 1.211062786961183101e-02
3.920883281469812118e+03 7.678678293459404447e-01 1.193290422160426384e-02
3.924804164751283224e+03 7.734192495571928783e-01 1.160895375203803599e-02
3.928728968916035683e+03 7.718826975463196627e-01 1.131741661442224947e-02
3.932657697884953450e+03 7.646586373485355637e-01 1.104730218008329219e-02
3.936590355582839493e+03 7.464876117608315598e-01 1.175638567675740126e-02
3.940526945938423523e+03 7.196685056192704266e-01 1.031046730441877689e-02
3.944467472884363360e+03 6.976964493079926832e-01 7.857273314392910699e-03
3.948411940357249023e+03 6.834722840290533563e-01 7.524905006323724665e-03
3.952360352297607733e+03 6.789893634709258663e-01 8.539811150357642586e-03
3.956312712649906643e+03 6.776447693861911148e-01 7.764877232952871293e-03
3.960269025362557841e+03 6.722520556889464149e-01 7.801988369462306387e-03
3.964229294387921527e+03 6.702611182588664729e-01 7.640704085133634416e-03
3.968193523682310570e+03 6.660655893178636378e-01 7.258879230798226216e-03
3.972161717205994591e+03 6.660635866899919932e-01 7.125995502497506698e-03
3.976133878923201792e+03 6.645300037889849687e-01 7.197899021094180880e-03
3.980110012802126221e+03 6.647413766196489382e-01 7.148773328353411061e-03
3.984090122814929600e+03 6.660843960852594892e-01 7.280613144397990975e-03
3.988074212937745870e+03 6.646132567018925297e-01 7.745623086625326795e-03
3.992062287150684824e+03 6.578647686273340067e-01 7.431017251119463596e-03
3.996054349437837118e+03 6.522821597444030672e-01 7.216780101969058961e-03
4.000050403787276082e+03 6.454330806270943688e-01 7.125002365967960001e-03
4.004050454191064546e+03 6.392567325137141765e-01 6.949287877235441578e-03
4.008054504645257111e+03 6.319997736787132947e-01 7.757764045813219864e-03
4.012062559149903791e+03 6.274935492265891757e-01 7.679235210621154599e-03
4.016074621709055009e+03 6.192436805114373000e-01 6.715497023555730242e-03
4.020090696330765240e+03 6.165735113103143483e-01 6.075385915918758359e-03
4.024110787027097558e+03 6.196772335187941128e-01 6.286379592677659479e-03
4.028134897814125907e+03 6.342315216628685581e-01 6.465153555795464732e-03
4.032163032711941469e+03 6.529196375234923577e-01 6.436714509355724763e-03
4.036195195744654484e+03 6.761823111004064968e-01 6.410548236413873141e-03
4.040231390940400615e+03 7.078891446995791981e-01 7.490567396195664009e-03
4.044271622331342314e+03 7.392980000167268528e-01 7.017690070775215588e-03
4.048315893953675186e+03 7.675634700239346575e-01 6.373960945514164055e-03
4.052364209847629809e+03 7.892580068621898315e-01 6.343760134505130495e-03
4.056416574057479011e+03 8.071142228240095751e-01 6.674517006988913391e-03
4.060472990631537868e+03 8.209419158719202247e-01 6.902085436178226861e-03
4.064533463622170530e+03 8.236663699649278136e-01 6.132099734366330997e-03
4.068597997085794304e+03 8.134466272952894927e-01 7.683259406129887108e-03
4.072666595082881486e+03 7.955526917703853451e-01 8.279018269838457969e-03
4.076739261677965715e+03 7.727016445203079842e-01 7.794860862264743791e-03
4.080816000939644709e+03 7.454480042558535580e-01 7.362864649419540060e-03
4.084896816940585722e+03 7.144663873181140712e-01 7.544032743151404992e-03
4.088981713757527814e+03 6.856781118392311081e-01 7.806032799408035502e-03
4.093070695471286854e+03 6.453715744384773689e-01 8.986015921767042877e-03
4.097163766166759160e+03 6.052723402402423458e-01 1.087492578857992935e-02
4.101260929932927866e+03 5.679861782800127434e-01 1.125702118849352361e-02
4.105362190862862008e+03 5.412634598220023019e-01 1.115282145727166004e-02
4.109467553053726078e+03 5.180548595829024272e-01 1.049890452935552630e-02
4.113577020606780934e+03 5.054676335918754093e-01 1.124024850176475257e-02
4.117690597627389252e+03 4.994120173440058097e-01 1.131917990818158588e-02
4.121808288225018259e+03 4.963645268208329298e-01 1.133740026677622879e-02
4.125930096513244280e+03 4.966196919698370738e-01 1.128017746617470014e-02
4.130056026609759101e+03 5.023359292018571010e-01 1.120937403984277776e-02
4.134186082636369974e+03 5.158488101748405219e-01 1.051163448909443916e-02
4.138320268719007800e+03 5.301388395951064370e-01 9.978366084859901022e-03
4.142458588987728035e+03 5.434328938911990869e-01 1.034577649041341744e-02
4.146601047576717065e+03 5.556445569262914441e-01 9.465788679546855572e-03
4.150747648624294925e+03 5.690174434772127254e-01 8.631585833616686743e-03
4.154898396272920763e+03 5.828482185714856101e-01 8.570096383847685545e-03
4.159053294669195566e+03 5.992578553962610854e-01 1.008235531994979353e-02
4.163212347963865795e+03 6.153023996984345878e-01 9.584060313610446788e-03
4.167375560311830668e+03 6.270497122410332302e-01 4.574194429013560097e-03
4.171542935872143971e+03 6.220358046068799052e-01 7.129534528826099969e-03
4.175714478808017702e+03 6.104960410350566136e-01 8.650445247564314197e-03
4.179890193286827525e+03 5.961228131966244126e-01 8.276373480262133944e-03
4.184070083480115500e+03 5.802314702071620367e-01 7.909004423943863382e-03
4.188254153563597356e+03 5.612418200828014347e-01 7.267363308177797292e-03
4.192442407717161586e+03 5.440575808485479392e-01 7.435791699390477578e-03
4.196634850124880359e+03 5.243981475237992074e-01 7.350993902451315176e-03
4.200831484975006788e+03 5.068273240223436504e-01 7.380710995474243363e-03
4.205032316459983122e+03 4.929529308502220708e-01 7.402500199112811534e-03
4.209237348776444378e+03 4.859897628567514394e-01 7.204333707854435054e-03
4.213446586125221984e+03 4.833673848914325499e-01 7.184075806322468699e-03
4.217660032711349231e+03 4.813263171823436437e-01 7.735839235230779730e-03
4.221877692744061278e+03 4.883507403575333972e-01 7.321600889326202247e-03
4.226099570436806971e+03 5.013613356777841812e-01 7.242330613682535292e-03
4.230325670007245208e+03 5.195808132061396911e-01 7.992987282407937322e-03
4.234555995677254032e+03 5.419501888273667856e-01 1.023501354882862605e-02
4.238790551672932452e+03 5.670859061790147759e-01 1.022628879389986430e-02
4.243029342224606808e+03 5.880869884306931805e-01 7.524289386111502123e-03
4.247272371566832589e+03 5.991152144801401569e-01 7.116528990206087701e-03
4.251519643938400804e+03 6.006113034145320606e-01 8.504861019736586342e-03
4.255771163582340705e+03 5.971069878943932041e-01 9.032468209669700099e-03
4.260026934745924336e+03 5.921401619691022411e-01 8.679624538394383262e-03
4.264286961680671993e+03 5.864574153912619492e-01 7.993702612820393488e-03
4.268551248642354039e+03 5.803376951552263741e-01 7.670697114182071542e-03
4.272819799890998183e+03 5.757544096181561599e-01 8.081047650275065622e-03
4.277092619690890388e+03 5.697647456953534029e-01 8.129633651370395814e-03
4.281369712310583054e+03 5.650229928607801710e-01 8.014075423463006692e-03
4.285651082022895025e+03 5.641249134505936791e-01 7.480608495328153196e-03
4.289936733104918858e+03 5.659800731864774725e-01 6.650907008170774126e-03
4.294226669838025373e+03 5.646843846928983890e-01 9.530228558321722152e-03
4.298520896507864563e+03 5.672503289180800268e-01 9.462590790904697527e-03
4.302819417404373780e+03 5.792808346264829433e-01 8.724585407584676058e-03
4.307122236821779552e+03 5.951856338577783401e-01 7.561482931965216384e-03
4.311429359058603040e+03 6.195005860495202965e-01 9.618403636909670165e-03
4.315740788417662770e+03 6.495426833483058937e-01 1.103784909424931557e-02
4.320056529206081905e+03 6.793064050801111975e-01 9.717195619105903348e-03
4.324376585735290064e+03 7.050402947542577792e-01 7.420343389416833232e-03
4.328700962321026054e+03 7.210888491255362798e-01 7.143595696033810429e-03
4.333029663283348782e+03 7.310272082583598729e-01 6.970639310373092506e-03
4.337362692946633615e+03 7.314506650450207648e-01 7.144260477724273702e-03
4.341700055639581478e+03 7.241330665962545377e-01 6.952285494032027849e-03
4.346041755695222491e+03 7.104529737449650773e-01 6.531172674276092445e-03
4.350387797450919606e+03 6.901284964884372153e-01 6.011953966523315811e-03
4.354738185248371337e+03 6.679691581120005273e-01 5.915070619894429761e-03
4.359092923433621763e+03 6.460116281120468207e-01 5.638041175387160410e-03
4.363452016357056891e+03 6.264246454302545564e-01 5.644771311927524425e-03
4.367815468373414660e+03 6.127158249425237457e-01 5.328369797751456374e-03
4.372183283841789489e+03 6.012257436456190929e-01 5.899823561897620666e-03
4.376555467125633186e+03 5.910302190258022170e-01 4.876093188300199832e-03
4.380932022592760404e+03 5.886344446073000780e-01 4.090421627883456500e-03
4.385312954615354101e+03 5.952097540673685350e-01 5.609031938746366665e-03
4.389698267569970994e+03 6.037964518619426402e-01 6.396468817832242672e-03
4.394087965837542470e+03 6.192086197736493824e-01 7.092379799637139708e-03
4.398482053803381859e+03 6.327139275504701788e-01 5.915187744817823438e-03
4.402880535857186260e+03 6.420363517888894034e-01 4.730340067294407438e-03
4.407283416393044718e+03 6.459316914904855711e-01 3.680432114991364495e-03
4.411690699809440048e+03 6.402953843207992435e-01 4.081707781947383970e-03
4.416102390509250654e+03 6.284662490117911560e-01 5.013290574634879718e-03
4.420518492899761441e+03 6.122995509568724959e-01 5.017768709553309912e-03
4.424939011392662906e+03 5.926456565161570822e-01 5.372955793060944611e-03
4.429363950404056595e+03 5.726179144435428192e-01 5.744884927044254311e-03
4.433793314354462382e+03 5.533868368303180851e-01 5.001101773814732761e-03
4.438227107668818462e+03 5.416197361844803382e-01 3.658029398170479368e-03
4.442665334776488635e+03 5.395178397296730433e-01 5.170481422970628349e-03
4.447108000111265937e+03 5.423588401761991751e-01 5.101702116681176499e-03
4.451555108111379013e+03 5.522706205511529465e-01 4.812926434838659361e-03
4.456006663219492111e+03 5.681061450021017700e-01 4.837785527275499133e-03
4.460462669882713271e+03 5.899930649084053069e-01 5.214391002936634087e-03
4.464923132552597053e+03 6.155164124576060214e-01 5.347990968364684829e-03
4.469388055685150903e+03 6.451140118041932547e-01 5.019614778600166478e-03
4.473857443740837880e+03 6.749298872442105468e-01 5.130512735816373376e-03
4.478331301184580298e+03 7.076789588700417299e-01 5.331922867047470503e-03
4.482809632485766087e+03 7.357958134523367999e-01 5.298236074604153155e-03
4.487292442118253348e+03 7.632419618044856691e-01 5.199519211605674492e-03
4.491779734560373072e+03 7.897551991314724074e-01 4.983103574144452479e-03
4.496271514294934605e+03 8.117586153400814242e-01 5.256430604341302999e-03
4.500767785809231100e+03 8.334811733862934613e-01 5.331038458737353408e-03
4.505268553595042249e+03 8.570085288228446174e-01 5.224428687262654483e-03
4.509773822148638828e+03 8.781124306660368362e-01 5.021881486724492916e-03
4.514283595970789065e+03 8.992701836942991189e-01 4.662556924309094533e-03
4.518797879566761367e+03 9.195009574997489166e-01 4.386828144735089099e-03
4.523316677446328868e+03 9.430281359938575969e-01 4.786822116010512433e-03
