# starting wavelength: 3450.220
# ending wavelength: 7272.510
# wav flux eflux
3.453473074813126004e+03 2.211403754453309389e+00 3.428148797257178637e-02
3.456926547887940615e+03 2.196220458949185605e+00 2.546623355411534520e-02
3.460383474435829612e+03 2.176356518359588321e+00 2.091770601228790105e-02
3.463843857910266706e+03 2.157311172696241286e+00 1.617059911443034445e-02
3.467307701768178049e+03 2.138829093657680147e+00 1.291526387860133726e-02
3.470775009469947236e+03 2.120518024020316084e+00 1.371100538428050332e-02
3.474245784479418489e+03 2.106890728994836870e+00 1.206670166869564312e-02
3.477720030263898934e+03 2.095837523247501721e+00 1.001592048636263527e-02
3.481197750294164052e+03 2.085497551936536631e+00 8.334610735096489864e-03
3.484678948044459503e+03 2.076064492128354200e+00 7.249034480832593046e-03
3.488163626992504760e+03 2.066389436209218999e+00 6.434285418459743944e-03
3.491651790619498570e+03 2.053823178985976661e+00 6.683890950615395052e-03
3.495143442410119405e+03 2.040731687880331879e+00 6.942808556974466513e-03
3.498638585852530468e+03 2.030263968729072221e+00 6.561777598660261529e-03
3.502137224438384237e+03 2.021145270761103951e+00 6.220586843310645445e-03
3.505639361662823831e+03 2.012804090309007421e+00 5.961554590465588735e-03
3.509145001024487556e+03 2.006182830665062866e+00 5.729127326992276663e-03
3.512654146025513455e+03 2.000674436310983406e+00 5.541842132587861645e-03
3.516166800171540217e+03 1.995087784901345085e+00 5.622400604444085549e-03
3.519682966971712631e+03 1.990955238671089145e+00 5.742653422633578648e-03
3.523202649938685681e+03 1.987094968624296909e+00 5.795133587815193277e-03
3.526725852588625457e+03 1.985107251666732298e+00 5.703447428709333168e-03
3.530252578441215064e+03 1.985525211638655252e+00 5.705529476609448938e-03
3.533782831019657806e+03 1.986097487259065542e+00 5.596865060056166116e-03
3.537316613850678550e+03 1.986556897392320664e+00 5.669200569572600129e-03
3.540853930464530094e+03 1.990254146759447673e+00 5.677218731687809668e-03
3.544394784394995895e+03 1.994940899557574365e+00 5.685370493167062229e-03
3.547939179179392340e+03 2.000834505732790092e+00 5.678955909673687359e-03
3.551487118358572843e+03 2.009524023641280355e+00 6.038075182166791587e-03
3.555038605476932389e+03 2.019160478716448104e+00 6.305467641939170587e-03
3.558593644082410719e+03 2.027929093659191828e+00 6.291241436722584679e-03
3.562152237726494150e+03 2.039925116746122313e+00 5.095621962883713565e-03
3.565714389964221937e+03 2.048862904624877856e+00 4.796767245181974941e-03
3.569280104354187188e+03 2.056647907936304254e+00 4.780895353429528982e-03
3.572849384458542772e+03 2.062197011213597886e+00 5.024210770726570546e-03
3.576422233843002232e+03 2.066916491649263055e+00 5.072085236446316134e-03
3.579998656076846601e+03 2.071149779484903419e+00 4.990824678185870784e-03
3.583578654732924406e+03 2.074468050251205398e+00 4.902466428491345125e-03
3.587162233387658489e+03 2.077068350960561638e+00 4.659758110159286162e-03
3.590749395621047370e+03 2.078423954759580194e+00 4.969150917136250060e-03
3.594340145016669794e+03 2.081244115183993326e+00 5.209605535168026179e-03
3.597934485161687462e+03 2.085207343591749307e+00 5.390445259617504363e-03
3.601532419646850485e+03 2.086041068435769752e+00 6.026605167581049714e-03
3.605133952066498296e+03 2.089753157114596416e+00 6.168566112592498152e-03
3.608739086018566013e+03 2.093529635043339443e+00 5.900328882796355805e-03
3.612347825104585809e+03 2.093148345228861729e+00 4.347239561600762560e-03
3.615960172929691907e+03 2.098212558770291114e+00 4.363320170083996759e-03
3.619576133102622407e+03 2.104152271646275718e+00 4.572289029456792255e-03
3.623195709235726554e+03 2.110857859188679964e+00 5.117737334064600442e-03
3.626818904944963379e+03 2.116749308662803308e+00 5.179369161052357722e-03
3.630445723849909427e+03 2.123266797348987378e+00 6.401305052260192197e-03
3.634076169573760581e+03 2.126988816227764367e+00 7.930806517151592697e-03
3.637710245743335690e+03 2.123366896886840216e+00 7.833230632563640411e-03
3.641347955989080219e+03 2.119041787383473263e+00 7.484094990688697907e-03
3.644989303945070333e+03 2.108143588310048777e+00 6.848349120680620981e-03
3.648634293249016537e+03 2.092124010140292256e+00 6.473581310317555459e-03
3.652282927542266862e+03 2.063482059910270561e+00 5.895120246544926189e-03
3.655935210469810499e+03 2.026944532669322285e+00 5.626225339127746174e-03
3.659591145680281443e+03 1.979688328242242612e+00 6.027721027870034179e-03
3.663250736825963031e+03 1.923893833199633141e+00 7.761211518846947675e-03
3.666913987562790226e+03 1.859568301734783491e+00 9.958212730783221403e-03
3.670580901550354156e+03 1.789716503569324990e+00 1.086980157605640408e-02
3.674251482451905758e+03 1.720361209187858176e+00 1.025494344974123978e-02
3.677925733934358959e+03 1.645510037779290835e+00 1.059035997373343127e-02
3.681603659668294313e+03 1.572287177560577787e+00 8.716071603463392686e-03
3.685285263327964003e+03 1.505011408386209171e+00 7.842336919300387649e-03
3.688970548591293209e+03 1.439890807280538976e+00 7.077972340596310787e-03
3.692659519139885560e+03 1.384859409770771599e+00 7.302425919523185434e-03
3.696352178659026777e+03 1.335781380810956875e+00 8.053222174737337952e-03
3.700048530837686940e+03 1.291727374033956321e+00 8.281029065899427055e-03
3.703748579368525952e+03 1.254448659149602019e+00 8.492325749965409440e-03
3.707452327947895355e+03 1.224364463077431298e+00 7.696752482504421247e-03
3.711159780275844696e+03 1.198697198104533124e+00 6.276414072700694548e-03
3.714870940056121526e+03 1.175318853218743964e+00 5.943882167436066039e-03
3.718585810996179134e+03 1.155673419318244965e+00 5.596789347602584321e-03
3.722304396807176545e+03 1.136592884225548383e+00 5.345930857872016953e-03
3.726026701203984885e+03 1.116131022079038582e+00 5.690354347211878071e-03
3.729752727905190113e+03 1.095146966091894658e+00 5.557722037489062385e-03
3.733482480633096657e+03 1.071130411803158600e+00 5.555495875164466642e-03
3.737215963113731050e+03 1.044597008311285880e+00 5.332675371627077464e-03
3.740953179076846027e+03 1.016792327265764850e+00 5.645395077544120531e-03
3.744694132255923705e+03 9.919016475913312592e-01 5.693392554893392764e-03
3.748438826388181042e+03 9.648314907452549827e-01 6.926074370152511886e-03
3.752187265214570289e+03 9.470961441600798114e-01 7.098748202595290581e-03
3.755939452479786269e+03 9.269540459528393672e-01 8.850759226151281439e-03
3.759695391932267285e+03 9.129192746013119475e-01 8.447265116093815793e-03
3.763455087324201031e+03 9.037492340812420810e-01 7.111683464534114020e-03
3.767218542411526414e+03 9.061508817394954285e-01 6.607849571799144332e-03
3.770985760953939007e+03 9.180139965350471165e-01 6.904266112861796346e-03
3.774756746714894234e+03 9.391808248329175379e-01 7.472098195501933153e-03
3.778531503461610555e+03 9.678144617990508403e-01 7.922833367274131899e-03
3.782310034965073100e+03 1.003037940036139553e+00 7.093417227656941340e-03
3.786092345000039586e+03 1.042696808989190371e+00 5.878195189955688453e-03
3.789878437345040766e+03 1.086510109680957736e+00 6.040691272012565192e-03
3.793668315782387253e+03 1.132374983241143385e+00 5.996088774055045000e-03
3.797461984098170888e+03 1.178022364902366448e+00 6.039102918851281705e-03
3.801259446082270188e+03 1.222862554859186046e+00 5.854982230522441308e-03
3.805060705528353537e+03 1.268555273556214447e+00 5.728646879105292467e-03
3.808865766233883278e+03 1.313565747824384733e+00 5.803179251900252716e-03
3.812674632000118436e+03 1.357364057556720072e+00 6.255195488996896647e-03
3.816487306632119726e+03 1.398677086826076499e+00 6.800705447823972988e-03
3.820303793938753188e+03 1.437558490175669723e+00 7.115899410417252449e-03
3.824124097732693372e+03 1.465973840816344298e+00 6.118158750308366062e-03
3.827948221830427428e+03 1.484995699050350559e+00 5.231450326215592202e-03
3.831776170052258749e+03 1.495637852066655560e+00 5.526353241928591217e-03
3.835607946222312421e+03 1.493875130927654116e+00 6.435566628308144431e-03
3.839443554168536139e+03 1.489868943000835833e+00 6.440629912829379591e-03
3.843282997722705659e+03 1.483344464349371172e+00 6.217436279920897889e-03
3.847126280720429804e+03 1.476286335809734229e+00 6.072081526052059558e-03
3.850973407001151372e+03 1.472010588204838211e+00 4.700695352341221697e-03
3.854824380408153957e+03 1.476483297910390347e+00 5.080419580776318611e-03
3.858679204788563311e+03 1.485997060120289648e+00 5.028168789808050952e-03
3.862537883993353262e+03 1.502178422971161886e+00 5.096447133884559298e-03
3.866400421877347981e+03 1.523422638177818866e+00 5.061983452316802870e-03
3.870266822299226533e+03 1.554033010656162617e+00 4.801293872916654638e-03
3.874137089121526969e+03 1.590727058247444869e+00 4.713599895934116567e-03
3.878011226210649966e+03 1.634639197926753384e+00 4.597211447787279831e-03
3.881889237436861549e+03 1.680722342170301919e+00 4.742235065713703603e-03
3.885771126674299921e+03 1.727270400070711087e+00 4.605552207178318508e-03
3.889656897800975457e+03 1.776867781026364224e+00 5.775168636261236201e-03
3.893546554698777527e+03 1.825704202743799076e+00 6.264726270664456101e-03
3.897440101253477678e+03 1.872724995160809369e+00 4.580149568467286637e-03
3.901337541354732366e+03 1.909829822592374660e+00 4.686918897743714424e-03
3.905238878896088409e+03 1.939522239387557079e+00 5.599755696640174897e-03
3.909144117774985716e+03 1.964170199931828176e+00 5.739178786578088415e-03
3.913053261892762293e+03 1.984476616683433781e+00 5.716218770988428823e-03
3.916966315154656058e+03 1.997221339236280979e+00 5.525149121932337523e-03
3.920883281469812118e+03 2.005732979237380587e+00 5.019964171243599185e-03
3.924804164751283224e+03 2.012009489255990324e+00 6.865670690852731725e-03
3.928728968916035683e+03 2.012073534097230443e+00 6.501137198437671391e-03
3.932657697884953450e+03 2.004391923994467639e+00 6.786637983384190796e-03
3.936590355582839493e+03 1.995309136730522237e+00 6.852626309355866127e-03
3.940526945938423523e+03 1.981947217419783192e+00 7.741707018728413367e-03
3.944467472884363360e+03 1.969308247534611311e+00 7.793471793302871042e-03
3.948411940357249023e+03 1.957032664343406170e+00 7.372827233020982050e-03
3.952360352297607733e+03 1.948305491188706551e+00 7.459002847147410548e-03
3.956312712649906643e+03 1.939042051034681746e+00 7.117324324725724134e-03
3.960269025362557841e+03 1.933713555751168434e+00 6.700760358631519496e-03
3.964229294387921527e+03 1.935824394764812162e+00 6.593002714989946306e-03
3.968193523682310570e+03 1.943573092945229064e+00 6.215345000329693462e-03
3.972161717205994591e+03 1.954889003257274549e+00 6.181996811752011461e-03
3.976133878923201792e+03 1.968418860355712230e+00 6.442262325375671533e-03
3.980110012802126221e+03 1.986672572134253301e+00 6.352208471443659965e-03
3.984090122814929600e+03 2.008374723752950786e+00 7.210721814877836013e-03
3.988074212937745870e+03 2.028358276716951014e+00 7.924297504386107818e-03
3.992062287150684824e+03 2.043241360091899939e+00 7.997655678098618270e-03
3.996054349437837118e+03 2.058794507148769437e+00 8.171235811455351480e-03
4.000050403787276082e+03 2.069301591481238045e+00 5.783241213862311270e-03
4.004050454191064546e+03 2.068338952457261737e+00 4.867846866398787241e-03
4.008054504645257111e+03 2.056612897267146689e+00 4.765051425245705151e-03
4.012062559149903791e+03 2.033447063971628221e+00 5.555195407606332986e-03
4.016074621709055009e+03 1.999690866382305421e+00 5.367469829110336522e-03
4.020090696330765240e+03 1.961474589180243422e+00 4.668360168113298327e-03
4.024110787027097558e+03 1.918394884316474203e+00 4.130107923601094091e-03
4.028134897814125907e+03 1.874036296052486339e+00 4.115613149139762776e-03
4.032163032711941469e+03 1.826770825017391298e+00 4.014385540468023289e-03
4.036195195744654484e+03 1.784921825617977964e+00 4.121543835646802705e-03
4.040231390940400615e+03 1.747629992385979714e+00 4.513787674437738304e-03
4.044271622331342314e+03 1.716937341444612741e+00 4.749135561110383666e-03
4.048315893953675186e+03 1.691708428561701671e+00 4.037485452290365262e-03
4.052364209847629809e+03 1.675807449471172994e+00 4.040826901078669979e-03
4.056416574057479011e+03 1.668841618958401884e+00 5.148090484021547800e-03
4.060472990631537868e+03 1.668871092375991516e+00 5.264852738810839317e-03
4.064533463622170530e+03 1.670866461107256118e+00 4.924896295810550322e-03
4.068597997085794304e+03 1.675623692562939082e+00 4.939240207369530525e-03
4.072666595082881486e+03 1.684112819931547822e+00 4.254389611305767205e-03
4.076739261677965715e+03 1.690049273369458760e+00 3.910939403386617073e-03
4.080816000939644709e+03 1.693245109713406471e+00 3.870062900153998283e-03
4.084896816940585722e+03 1.690789254589589952e+00 3.563597495675376557e-03
4.088981713757527814e+03 1.680159455792061385e+00 3.909623283728129624e-03
4.093070695471286854e+03 1.665747935193154339e+00 3.959497095568610507e-03
4.097163766166759160e+03 1.650443601542264549e+00 4.154094426458253796e-03
4.101260929932927866e+03 1.632706574783942877e+00 4.691202408164286443e-03
4.105362190862862008e+03 1.614442763008050008e+00 6.104050467268880460e-03
4.109467553053726078e+03 1.599423886689472329e+00 5.664503251596968506e-03
4.113577020606780934e+03 1.590708495059352634e+00 5.377904421152606904e-03
4.117690597627389252e+03 1.585837900904924380e+00 5.356235364536929278e-03
4.121808288225018259e+03 1.585211395450813132e+00 6.340087983414898452e-03
4.125930096513244280e+03 1.587469000874241587e+00 7.470778604084643386e-03
4.130056026609759101e+03 1.591778016293298625e+00 7.112970674336245407e-03
4.134186082636369974e+03 1.593671988676886642e+00 5.239969991771079028e-03
4.138320268719007800e+03 1.590927817183396487e+00 3.911228275365184748e-03
4.142458588987728035e+03 1.581276865106669316e+00 4.236725871260366150e-03
4.146601047576717065e+03 1.567665647986492550e+00 4.438236127119421677e-03
4.150747648624294925e+03 1.549160484916867864e+00 4.915943854997251693e-03
4.154898396272920763e+03 1.528699016460296267e+00 4.361729343932849168e-03
4.159053294669195566e+03 1.510514180101553139e+00 4.206111395272288216e-03
4.163212347963865795e+03 1.492139840336203394e+00 4.009343701927367207e-03
4.167375560311830668e+03 1.474162164039859224e+00 3.804817818713049447e-03
4.171542935872143971e+03 1.460892522979519104e+00 4.242536746274482191e-03
4.175714478808017702e+03 1.453713129303631391e+00 4.931722395564139098e-03
4.179890193286827525e+03 1.451940868261018425e+00 5.761434606425663331e-03
4.184070083480115500e+03 1.457087291206973445e+00 5.050896771410265558e-03
4.188254153563597356e+03 1.470981677355821970e+00 5.451406176199462793e-03
4.192442407717161586e+03 1.490555048463103605e+00 6.372805238515268783e-03
4.196634850124880359e+03 1.513186547105364932e+00 6.922594692280459316e-03
4.200831484975006788e+03 1.539207255826873455e+00 7.877828357837431475e-03
4.205032316459983122e+03 1.563360041355667418e+00 7.268860028254270703e-03
4.209237348776444378e+03 1.583280213083986476e+00 5.966260840183321493e-03
4.213446586125221984e+03 1.595145259671497673e+00 5.604056884062656903e-03
4.217660032711349231e+03 1.600326539993975672e+00 5.779084503251753942e-03
4.221877692744061278e+03 1.597694244626782334e+00 6.496076930628557657e-03
4.226099570436806971e+03 1.588428450634635336e+00 6.774270233581874100e-03
4.230325670007245208e+03 1.573951049825957238e+00 4.756089546515414324e-03
4.234555995677254032e+03 1.559195281329492255e+00 2.965462665991200862e-03
4.238790551672932452e+03 1.545904436496596146e+00 3.151483073381331022e-03
4.243029342224606808e+03 1.533585024161159049e+00 3.274703250381964196e-03
4.247272371566832589e+03 1.520043361001040427e+00 3.090974414154957529e-03
4.251519643938400804e+03 1.507395362599535993e+00 2.846614669786443237e-03
4.255771163582340705e+03 1.494271674688440132e+00 2.957632628192216531e-03
4.260026934745924336e+03 1.481162854950967667e+00 2.807411946563889010e-03
4.264286961680671993e+03 1.470228588791734126e+00 2.950825924895212737e-03
4.268551248642354039e+03 1.459905091481308981e+00 3.129407201555880775e-03
4.272819799890998183e+03 1.447746476057296006e+00 3.104740159631069578e-03
4.277092619690890388e+03 1.435613499693662032e+00 2.982022121413598764e-03
4.281369712310583054e+03 1.426442931460099262e+00 3.192990802390748180e-03
4.285651082022895025e+03 1.415038759428152604e+00 3.046831142642295390e-03
4.289936733104918858e+03 1.402593200675282370e+00 3.314129001788154120e-03
4.294226669838025373e+03 1.389477667677621930e+00 3.697358284000831080e-03
4.298520896507864563e+03 1.378265239812985765e+00 3.697870414240903535e-03
4.302819417404373780e+03 1.365842310702152895e+00 3.573913443862609170e-03
4.307122236821779552e+03 1.355050979978860148e+00 3.103176600397846048e-03
4.311429359058603040e+03 1.345713936855106541e+00 3.060491042845034631e-03
4.315740788417662770e+03 1.338520774290980819e+00 3.096909852971308722e-03
4.320056529206081905e+03 1.331162984957776185e+00 3.111988767950388604e-03
4.324376585735290064e+03 1.326521950500917590e+00 3.002922051619091263e-03
4.328700962321026054e+03 1.319350509286643103e+00 2.980678720168020764e-03
4.333029663283348782e+03 1.311870664894927652e+00 2.901034498526868042e-03
4.337362692946633615e+03 1.302832021272090079e+00 3.289058513015967033e-03
4.341700055639581478e+03 1.291809720953102758e+00 4.094579540049022963e-03
4.346041755695222491e+03 1.276402915652932846e+00 3.865051643811982015e-03
4.350387797450919606e+03 1.255990726332143703e+00 3.691345084353057915e-03
4.354738185248371337e+03 1.229953599091671679e+00 4.072052324836592137e-03
4.359092923433621763e+03 1.203072035636364667e+00 4.239056930946571294e-03
4.363452016357056891e+03 1.176372893024731470e+00 4.438153408388481255e-03
4.367815468373414660e+03 1.148446847558530992e+00 4.862271352555143540e-03
4.372183283841789489e+03 1.122331285045460536e+00 4.418183349845097342e-03
4.376555467125633186e+03 1.101600773311840031e+00 3.626461497262065820e-03
4.380932022592760404e+03 1.087013003909262698e+00 3.405422519131545006e-03
4.385312954615354101e+03 1.080713605510240871e+00 2.670928811784596506e-03
4.389698267569970994e+03 1.085512017992960709e+00 2.973947377210669606e-03
4.394087965837542470e+03 1.098289393578928630e+00 2.914239243537189005e-03
4.398482053803381859e+03 1.119828789536854163e+00 3.086484245488910465e-03
4.402880535857186260e+03 1.145607713980385522e+00 3.001102702843415262e-03
4.407283416393044718e+03 1.178064700310992530e+00 2.311503981457205779e-03
4.411690699809440048e+03 1.211996674045555222e+00 2.291232128099039873e-03
4.416102390509250654e+03 1.248815481271706718e+00 2.797436227891345918e-03
4.420518492899761441e+03 1.287190423215522239e+00 3.361726041917503099e-03
4.424939011392662906e+03 1.324398045391822487e+00 2.940757181225929669e-03
4.429363950404056595e+03 1.356346119103732706e+00 2.695123144994903460e-03
4.433793314354462382e+03 1.384285088855989443e+00 2.612715775072022885e-03
4.438227107668818462e+03 1.406347762794070810e+00 2.840252721229779599e-03
4.442665334776488635e+03 1.424760152427912763e+00 3.072850097013682044e-03
4.447108000111265937e+03 1.439210189906835691e+00 3.097215993660018367e-03
4.451555108111379013e+03 1.449651718383691668e+00 2.912993795180486133e-03
4.456006663219492111e+03 1.457897304831847984e+00 2.792506157093029278e-03
4.460462669882713271e+03 1.463647334711671411e+00 2.904106710055075983e-03
4.464923132552597053e+03 1.467040312187693596e+00 2.403519923008053463e-03
4.469388055685150903e+03 1.472583807498374808e+00 2.427109694199700973e-03
4.473857443740837880e+03 1.478746955797818119e+00 2.410991836018518651e-03
4.478331301184580298e+03 1.485069968878581115e+00 2.433083902016707802e-03
4.482809632485766087e+03 1.493763402894134229e+00 2.164355823746109703e-03
4.487292442118253348e+03 1.501275023141519949e+00 2.577136903552243279e-03
4.491779734560373072e+03 1.511156489223741239e+00 2.412382619672126787e-03
4.496271514294934605e+03 1.523196986326138980e+00 2.550404958923028695e-03
