# starting wavelength: 3464.040
# ending wavelength: 7352.910
# wav flux eflux
3.467307701768178049e+03 3.841133779339000465e-01 3.616709548072884195e-02
3.470775009469947236e+03 3.664124345533175675e-01 2.588872648415671898e-02
3.474245784479418489e+03 3.605676531728737033e-01 2.268164656475148491e-02
3.477720030263898934e+03 3.599932965170296595e-01 1.803161281653684750e-02
3.481197750294164052e+03 3.624413537059933965e-01 1.484308374101403830e-02
3.484678948044459503e+03 3.641584144018750746e-01 1.171238971942022318e-02
3.488163626992504760e+03 3.656362972604762507e-01 9.405132625939241486e-03
3.491651790619498570e+03 3.688874153706522829e-01 7.727761979129337162e-03
3.495143442410119405e+03 3.722943088948754142e-01 6.308568755356234667e-03
3.498638585852530468e+03 3.766347745621115295e-01 5.507045470289732847e-03
3.502137224438384237e+03 3.809872018889131073e-01 4.824922331987360931e-03
3.505639361662823831e+03 3.854374281380104073e-01 4.299751532661444560e-03
3.509145001024487556e+03 3.900251751525911637e-01 3.903571515581946705e-03
3.512654146025513455e+03 3.948375061856900237e-01 3.612193658673395428e-03
3.516166800171540217e+03 3.991330426408116194e-01 3.387839470803335681e-03
3.519682966971712631e+03 4.032625062262895077e-01 3.213630841788979106e-03
3.523202649938685681e+03 4.063870921113735823e-01 3.126801635804706860e-03
3.526725852588625457e+03 4.092558576819349536e-01 3.062067363026510242e-03
3.530252578441215064e+03 4.126955047812976840e-01 3.040857577113132999e-03
3.533782831019657806e+03 4.152941512556720394e-01 3.106640100633265966e-03
3.537316613850678550e+03 4.177223198880867239e-01 3.087666966903150189e-03
3.540853930464530094e+03 4.192610892895395347e-01 3.017177646504143416e-03
3.544394784394995895e+03 4.209262134762503660e-01 3.139063702255953138e-03
3.547939179179392340e+03 4.214536424876834109e-01 3.127986905362468723e-03
3.551487118358572843e+03 4.228757173577916140e-01 2.770675228308467405e-03
3.555038605476932389e+03 4.228448037878636545e-01 2.826390761509870592e-03
3.558593644082410719e+03 4.212456110872265791e-01 3.414115643386926319e-03
3.562152237726494150e+03 4.197769794898662532e-01 3.739390828885569978e-03
3.565714389964221937e+03 4.192100327074094746e-01 3.732326474682858778e-03
3.569280104354187188e+03 4.190226284047472438e-01 3.619814329092928967e-03
3.572849384458542772e+03 4.200769243900321359e-01 3.478862539325365284e-03
3.576422233843002232e+03 4.211417408673156504e-01 3.354087443464424424e-03
3.579998656076846601e+03 4.228281899860165671e-01 3.023203149105711633e-03
3.583578654732924406e+03 4.263113554479411316e-01 3.109631660701143389e-03
3.587162233387658489e+03 4.309698197320316893e-01 3.334412928559222274e-03
3.590749395621047370e+03 4.378276862473648445e-01 3.352074098348952272e-03
3.594340145016669794e+03 4.436623315223919284e-01 3.302850354216012828e-03
3.597934485161687462e+03 4.479148770294306692e-01 3.327532062864019778e-03
3.601532419646850485e+03 4.531959721971567934e-01 3.331997343413896015e-03
3.605133952066498296e+03 4.586654058447613425e-01 3.327498142133247360e-03
3.608739086018566013e+03 4.658032880950214727e-01 3.320687967267169690e-03
3.612347825104585809e+03 4.727008177983904602e-01 3.206743895488996070e-03
3.615960172929691907e+03 4.789047766278535789e-01 3.307654669794319116e-03
3.619576133102622407e+03 4.860314730320098309e-01 3.123009607774897192e-03
3.623195709235726554e+03 4.907324270820180856e-01 3.131496141704711873e-03
3.626818904944963379e+03 4.958967999280078365e-01 3.119572224513878118e-03
3.630445723849909427e+03 4.999968818981699870e-01 3.191713523844423236e-03
3.634076169573760581e+03 5.030749972546925131e-01 3.214121134354393401e-03
3.637710245743335690e+03 5.051509407515584194e-01 3.316313575837341772e-03
3.641347955989080219e+03 5.053751090227761589e-01 3.324243299976070622e-03
3.644989303945070333e+03 5.044331113368869524e-01 3.370243206008260994e-03
3.648634293249016537e+03 5.021493002148689211e-01 3.323915729345399816e-03
3.652282927542266862e+03 4.996610127968136306e-01 3.327121569169926626e-03
3.655935210469810499e+03 4.955844632474739053e-01 3.436268125684306413e-03
3.659591145680281443e+03 4.912021914786127708e-01 3.668713510368265540e-03
3.663250736825963031e+03 4.854971921180342709e-01 4.134109702059967847e-03
3.666913987562790226e+03 4.785696888509210489e-01 4.354168740049723166e-03
3.670580901550354156e+03 4.717372153615931873e-01 3.929100000537593881e-03
3.674251482451905758e+03 4.662575015506547071e-01 3.517659882800522157e-03
3.677925733934358959e+03 4.618943960590837783e-01 3.279745952674785123e-03
3.681603659668294313e+03 4.587757874680598591e-01 3.297687439380594075e-03
3.685285263327964003e+03 4.570784762973933990e-01 3.666265040861220372e-03
3.688970548591293209e+03 4.558558366930509642e-01 3.880160671092365392e-03
3.692659519139885560e+03 4.548362002857577746e-01 3.887440091880076283e-03
3.696352178659026777e+03 4.559224428725013323e-01 3.740943410967648847e-03
3.700048530837686940e+03 4.567652947360722471e-01 3.368328858942856805e-03
3.703748579368525952e+03 4.561866264800070181e-01 3.169285695120204437e-03
3.707452327947895355e+03 4.535103579236683946e-01 3.126873335485513133e-03
3.711159780275844696e+03 4.498942957903389606e-01 3.146195997833480407e-03
3.714870940056121526e+03 4.457947221919743575e-01 3.056165485968771744e-03
3.718585810996179134e+03 4.392052090369372719e-01 3.129071337962256900e-03
3.722304396807176545e+03 4.316046804792254554e-01 3.079887789178233082e-03
3.726026701203984885e+03 4.218499955521537448e-01 2.522512223799672562e-03
3.729752727905190113e+03 4.117293327716490259e-01 2.364852284572765279e-03
3.733482480633096657e+03 3.995403619081324131e-01 2.031776207531948552e-03
3.737215963113731050e+03 3.892316445661628266e-01 2.872268322694706329e-03
3.740953179076846027e+03 3.778301357104696945e-01 2.854487268133845592e-03
3.744694132255923705e+03 3.666822703525605132e-01 2.246680148553032320e-03
3.748438826388181042e+03 3.530716120970369687e-01 2.354379489022124204e-03
3.752187265214570289e+03 3.379969134110508699e-01 3.165061032695919586e-03
3.755939452479786269e+03 3.232322062169882271e-01 3.621678080461360801e-03
3.759695391932267285e+03 3.095843359077817269e-01 3.659457301421393128e-03
3.763455087324201031e+03 2.974110124265839095e-01 3.458980697338021482e-03
3.767218542411526414e+03 2.866041171881544281e-01 3.100224970730709739e-03
3.770985760953939007e+03 2.782181240394074884e-01 2.920492441462436712e-03
3.774756746714894234e+03 2.726974589181390130e-01 2.777848124902424203e-03
3.778531503461610555e+03 2.707507167141532389e-01 3.287853635484768843e-03
3.782310034965073100e+03 2.716823337695920548e-01 3.846073196095992942e-03
3.786092345000039586e+03 2.749500538244831205e-01 3.622475613007911793e-03
3.789878437345040766e+03 2.789659796304023165e-01 2.954215058182087239e-03
3.793668315782387253e+03 2.821764525449094174e-01 2.648066949231443149e-03
3.797461984098170888e+03 2.852256595566934894e-01 2.519876186257097306e-03
3.801259446082270188e+03 2.880053761052983607e-01 2.468042757615540334e-03
3.805060705528353537e+03 2.898987110782111909e-01 2.533894688457922692e-03
3.808865766233883278e+03 2.905158359400286661e-01 2.363596796955926092e-03
3.812674632000118436e+03 2.908865946188334828e-01 2.186400046308371002e-03
3.816487306632119726e+03 2.905624583338239919e-01 1.692544521274525534e-03
3.820303793938753188e+03 2.927293474943269969e-01 1.346741437774645351e-03
3.824124097732693372e+03 2.969021577850084470e-01 1.348425479166598428e-03
3.827948221830427428e+03 3.024351294525915446e-01 1.439777675197050555e-03
3.831776170052258749e+03 3.103982488355634950e-01 1.573553638481823939e-03
3.835607946222312421e+03 3.199046476486062107e-01 1.763704355852696104e-03
3.839443554168536139e+03 3.333053413809710097e-01 1.801706308888173860e-03
3.843282997722705659e+03 3.510174178531273448e-01 1.824458702404891568e-03
3.847126280720429804e+03 3.715266345833917461e-01 1.809301590335258463e-03
3.850973407001151372e+03 3.938214984136943486e-01 1.657001220016847366e-03
3.854824380408153957e+03 4.201635736147442124e-01 2.011342758235346202e-03
3.858679204788563311e+03 4.493399692120078059e-01 2.708785927633450535e-03
3.862537883993353262e+03 4.785751745037174487e-01 2.663973069999576483e-03
3.866400421877347981e+03 5.067564335909642281e-01 2.105402281298851975e-03
3.870266822299226533e+03 5.324312721940613891e-01 1.868599540427299350e-03
3.874137089121526969e+03 5.553039739036963462e-01 2.218173052144510864e-03
3.878011226210649966e+03 5.764192936980611082e-01 2.487980760143248139e-03
3.881889237436861549e+03 5.961764273889663679e-01 2.489748535574800182e-03
3.885771126674299921e+03 6.139979800887989114e-01 2.426505102248623005e-03
3.889656897800975457e+03 6.313309973683287613e-01 2.141430168671863959e-03
3.893546554698777527e+03 6.474183665635909746e-01 1.496773478646584461e-03
3.897440101253477678e+03 6.649810740578224744e-01 1.794505915344486464e-03
3.901337541354732366e+03 6.829478466409555359e-01 2.046752467217449831e-03
3.905238878896088409e+03 6.990795931472922886e-01 1.915413346762731952e-03
3.909144117774985716e+03 7.146131336248514598e-01 1.750549979092398635e-03
3.913053261892762293e+03 7.288740492219911715e-01 1.733963835423270750e-03
3.916966315154656058e+03 7.416441594860100350e-01 1.715824505187003683e-03
3.920883281469812118e+03 7.522396559785669012e-01 1.732191792456328318e-03
3.924804164751283224e+03 7.603644688070684277e-01 1.548600657118993137e-03
3.928728968916035683e+03 7.669845014178007236e-01 1.579217754384817365e-03
3.932657697884953450e+03 7.725777036083194549e-01 1.760303005364241558e-03
3.936590355582839493e+03 7.754632268860519595e-01 1.726327767536969902e-03
3.940526945938423523e+03 7.757295957561921584e-01 1.562553000475255197e-03
3.944467472884363360e+03 7.728731460573653456e-01 1.754195876263863179e-03
3.948411940357249023e+03 7.681567872917879347e-01 1.966951677408582556e-03
3.952360352297607733e+03 7.624252817634541435e-01 2.162484769304720295e-03
3.956312712649906643e+03 7.567656690467177150e-01 2.211630095048940092e-03
3.960269025362557841e+03 7.510416313262433530e-01 1.938163437700132991e-03
3.964229294387921527e+03 7.471975947159706921e-01 1.740927426339936197e-03
3.968193523682310570e+03 7.447159794588249504e-01 1.406002408348699202e-03
3.972161717205994591e+03 7.460027358059846403e-01 1.462989067809493523e-03
3.976133878923201792e+03 7.494928362032178271e-01 1.325636321723731685e-03
3.980110012802126221e+03 7.548533260482798157e-01 1.298447081645151676e-03
3.984090122814929600e+03 7.634744211532970004e-01 1.279094940095301019e-03
3.988074212937745870e+03 7.748205778194748872e-01 1.180620070420884465e-03
3.992062287150684824e+03 7.882031382454245394e-01 1.239814783914139221e-03
3.996054349437837118e+03 8.029786288677480677e-01 1.051923697655113114e-03
4.000050403787276082e+03 8.200052699694390101e-01 1.027686091293016427e-03
4.004050454191064546e+03 8.386506799234384468e-01 1.586167363261026817e-03
4.008054504645257111e+03 8.580117280652718170e-01 2.059072240098548581e-03
4.012062559149903791e+03 8.761987352486932945e-01 2.012604561051652922e-03
4.016074621709055009e+03 8.922357371041417240e-01 1.605942770918753924e-03
4.020090696330765240e+03 9.046323736448488306e-01 1.342698284305756046e-03
4.024110787027097558e+03 9.132599813365294139e-01 1.194511771694324424e-03
4.028134897814125907e+03 9.174434000748087348e-01 1.441874401904686938e-03
4.032163032711941469e+03 9.175859594208490844e-01 1.709868338737177218e-03
4.036195195744654484e+03 9.141975187840694073e-01 1.611085657165888278e-03
4.040231390940400615e+03 9.081286206376285586e-01 1.492279372172153340e-03
4.044271622331342314e+03 8.996325422641554548e-01 1.095567958073964980e-03
4.048315893953675186e+03 8.898265566925798176e-01 9.824741391947344055e-04
4.052364209847629809e+03 8.784204240733137770e-01 8.751584603894894563e-04
4.056416574057479011e+03 8.662017720154226996e-01 8.986794867293288174e-04
4.060472990631537868e+03 8.531208923539448374e-01 5.968772261486403937e-04
4.064533463622170530e+03 8.382772575032133577e-01 7.625669420453654382e-04
4.068597997085794304e+03 8.228893758978895745e-01 8.488963210760878345e-04
4.072666595082881486e+03 8.058604810250330486e-01 9.487608748401292567e-04
4.076739261677965715e+03 7.875455811023525099e-01 1.049705524761408108e-03
4.080816000939644709e+03 7.679409343124324883e-01 1.154194770129673238e-03
4.084896816940585722e+03 7.466780383245936736e-01 1.072073705737787647e-03
4.088981713757527814e+03 7.236837608315808135e-01 1.033773863822738150e-03
4.093070695471286854e+03 6.996651776094540143e-01 9.832176169663328288e-04
4.097163766166759160e+03 6.745567917550133741e-01 1.007064578829831945e-03
4.101260929932927866e+03 6.487519129673923191e-01 1.322097541798883261e-03
4.105362190862862008e+03 6.230121684434057894e-01 1.681107951707202673e-03
4.109467553053726078e+03 5.984691940088857631e-01 1.870552881676820029e-03
4.113577020606780934e+03 5.765676162325557019e-01 1.813821713507176485e-03
4.117690597627389252e+03 5.583298292538230179e-01 1.366269061138333145e-03
4.121808288225018259e+03 5.444407573898601971e-01 1.216883521387884023e-03
4.125930096513244280e+03 5.348777209699645541e-01 1.527235044397470343e-03
4.130056026609759101e+03 5.292825816694485264e-01 1.801581851410688278e-03
4.134186082636369974e+03 5.264371407156199778e-01 1.760741005556366911e-03
4.138320268719007800e+03 5.255804657038869454e-01 1.759666135103130514e-03
4.142458588987728035e+03 5.248180652284093473e-01 1.673867837818571137e-03
4.146601047576717065e+03 5.250794508263992855e-01 1.180490383974006205e-03
4.150747648624294925e+03 5.240686738471314055e-01 9.026826623161895513e-04
4.154898396272920763e+03 5.215811364530705818e-01 8.985115960731505317e-04
4.159053294669195566e+03 5.177522956863203074e-01 9.024229092948290488e-04
4.163212347963865795e+03 5.120219748941460258e-01 7.760432986224658630e-04
4.167375560311830668e+03 5.051508049702100323e-01 5.189981893152081568e-04
4.171542935872143971e+03 4.979802851879986392e-01 4.905934333500561401e-04
4.175714478808017702e+03 4.903520477431649316e-01 7.031300300925370219e-04
4.179890193286827525e+03 4.827696110772600191e-01 1.199440066477041504e-03
4.184070083480115500e+03 4.760980773735676297e-01 1.670267115405494208e-03
4.188254153563597356e+03 4.715024989165279012e-01 1.554925764648180248e-03
4.192442407717161586e+03 4.691619383342880423e-01 1.281770586586416377e-03
4.196634850124880359e+03 4.703808934962004362e-01 1.242906682040368195e-03
4.200831484975006788e+03 4.744232888081596489e-01 1.347807778186218717e-03
4.205032316459983122e+03 4.812155171309475676e-01 1.557330334169520613e-03
4.209237348776444378e+03 4.900504993398082654e-01 1.598089477389147764e-03
4.213446586125221984e+03 5.004037856805272355e-01 1.618857368210180683e-03
4.217660032711349231e+03 5.116399075120864337e-01 1.337272933080211864e-03
4.221877692744061278e+03 5.218961909908131913e-01 1.147448920811987988e-03
4.226099570436806971e+03 5.314839735801941689e-01 8.393469600404041995e-04
4.230325670007245208e+03 5.391525952061239080e-01 8.618658842206991175e-04
4.234555995677254032e+03 5.449563348576694777e-01 8.263943115397262432e-04
4.238790551672932452e+03 5.492556105030172997e-01 8.798299779738231758e-04
4.243029342224606808e+03 5.511101896853252136e-01 8.096936787849993468e-04
4.247272371566832589e+03 5.514570808749451603e-01 8.047393014561478666e-04
4.251519643938400804e+03 5.504710263806356085e-01 7.263650000668221739e-04
4.255771163582340705e+03 5.476685824852906004e-01 9.039051269323775725e-04
4.260026934745924336e+03 5.435704164453905030e-01 1.126947955684714196e-03
4.264286961680671993e+03 5.387692347317536434e-01 1.189710293620277470e-03
4.268551248642354039e+03 5.346672667474783314e-01 1.115702838088530099e-03
4.272819799890998183e+03 5.307018116028352495e-01 8.987688030851800468e-04
4.277092619690890388e+03 5.285861107314187013e-01 8.765816457345764617e-04
4.281369712310583054e+03 5.275461630062761031e-01 8.218594065566472680e-04
4.285651082022895025e+03 5.280591665129303891e-01 8.475924707118384161e-04
4.289936733104918858e+03 5.301035798620613582e-01 9.752323562059802154e-04
4.294226669838025373e+03 5.338588028387279971e-01 1.125321793474674077e-03
4.298520896507864563e+03 5.382389466279819956e-01 8.966617805058562209e-04
4.302819417404373780e+03 5.422909797238132379e-01 7.652344529528937785e-04
4.307122236821779552e+03 5.463067948577156052e-01 8.081444145018994987e-04
4.311429359058603040e+03 5.501643802656672744e-01 9.257431268435500167e-04
4.315740788417662770e+03 5.541828216618029934e-01 9.582913393559655329e-04
4.320056529206081905e+03 5.589117943640649067e-01 9.416767709601209539e-04
4.324376585735290064e+03 5.635742785936447286e-01 7.881499439320010635e-04
4.328700962321026054e+03 5.688466135524871126e-01 8.452087364782765464e-04
4.333029663283348782e+03 5.743511475118618925e-01 9.058818434678586910e-04
4.337362692946633615e+03 5.793970233666017045e-01 8.986620802686780393e-04
4.341700055639581478e+03 5.843412826772642621e-01 8.880424001074133664e-04
4.346041755695222491e+03 5.889651907531222585e-01 9.118281380838534319e-04
4.350387797450919606e+03 5.936333125483023165e-01 8.592894234631482872e-04
4.354738185248371337e+03 5.974666120866710672e-01 8.485828452065568303e-04
4.359092923433621763e+03 6.010623944318967959e-01 9.286759337753049169e-04
4.363452016357056891e+03 6.032629365450050685e-01 9.485626706209224169e-04
4.367815468373414660e+03 6.040140102586214477e-01 9.107728921732485957e-04
4.372183283841789489e+03 6.040740754690008263e-01 1.065211443167001296e-03
4.376555467125633186e+03 6.030877502848193128e-01 9.826254718468040248e-04
4.380932022592760404e+03 6.001430438823960323e-01 8.075081467941837635e-04
4.385312954615354101e+03 5.954071188677436677e-01 8.926502543955888366e-04
4.389698267569970994e+03 5.891337930606753703e-01 1.155421323056439247e-03
4.394087965837542470e+03 5.817673925731250417e-01 1.284109336642389387e-03
4.398482053803381859e+03 5.741361786000191980e-01 1.070069094127548302e-03
4.402880535857186260e+03 5.669130409181720731e-01 1.059122024573330365e-03
4.407283416393044718e+03 5.598692008037144952e-01 1.171594123413731469e-03
4.411690699809440048e+03 5.534158621915252763e-01 1.240962414574185496e-03
4.416102390509250654e+03 5.473981771243133787e-01 1.145451916550334348e-03
4.420518492899761441e+03 5.419860257146245086e-01 1.198127654162993308e-03
4.424939011392662906e+03 5.380894642673614836e-01 1.193474042444059692e-03
4.429363950404056595e+03 5.354045646138311243e-01 1.263362730547832593e-03
4.433793314354462382e+03 5.346842784392996650e-01 1.283657005873891114e-03
4.438227107668818462e+03 5.363079431007311548e-01 1.208490965845602930e-03
4.442665334776488635e+03 5.407173718192628264e-01 1.195704426215064018e-03
4.447108000111265937e+03 5.480759363883256352e-01 1.009299102878627669e-03
4.451555108111379013e+03 5.587646413401261558e-01 8.090396772454372517e-04
4.456006663219492111e+03 5.737564805812932489e-01 8.574577874410258503e-04
4.460462669882713271e+03 5.922037476277518531e-01 7.524548826896948310e-04
4.464923132552597053e+03 6.136687612566564809e-01 7.052850714885337824e-04
4.469388055685150903e+03 6.377590574165854509e-01 6.444768314658375335e-04
4.473857443740837880e+03 6.633980697911413538e-01 6.515787988921624809e-04
4.478331301184580298e+03 6.904382875657416596e-01 7.715931635632706717e-04
4.482809632485766087e+03 7.187530412751995668e-01 1.098453561863512199e-03
4.487292442118253348e+03 7.474191274318883194e-01 1.066922438000943120e-03
4.491779734560373072e+03 7.752971449441350416e-01 8.296202043417260372e-04
4.496271514294934605e+03 8.021355923962664169e-01 7.801429825959515976e-04
4.500767785809231100e+03 8.275756581146662683e-01 9.538050701068855270e-04
4.505268553595042249e+03 8.520291298453006590e-01 9.126870937078634342e-04
4.509773822148638828e+03 8.757202033574252864e-01 8.908057808913127061e-04
4.514283595970789065e+03 8.979851489885353200e-01 8.410177167945046125e-04
