# starting wavelength: 3457.130
# ending wavelength: 7360.260
# wav flux eflux
3.460383474435829612e+03 8.491723049424157455e-02 2.061122125219794557e-02
3.463843857910266706e+03 1.241683199834250351e-01 1.811625567041369803e-02
3.467307701768178049e+03 1.654053720787190263e-01 1.682464312787780580e-02
3.470775009469947236e+03 2.025042758489671302e-01 1.362101710131514987e-02
3.474245784479418489e+03 2.331659392587603907e-01 1.060147603486317862e-02
3.477720030263898934e+03 2.575576143903296478e-01 8.284554003521080526e-03
3.481197750294164052e+03 2.773947936729856401e-01 6.624823163165968753e-03
3.484678948044459503e+03 2.934052932389375479e-01 5.487257464566748510e-03
3.488163626992504760e+03 3.065790153069147816e-01 4.479213812052356899e-03
3.491651790619498570e+03 3.170238697548286577e-01 3.976452555112047586e-03
3.495143442410119405e+03 3.254532023961856924e-01 3.667396917350802376e-03
3.498638585852530468e+03 3.311640185034453454e-01 3.250189271068316347e-03
3.502137224438384237e+03 3.345638094392459072e-01 2.942095318019988422e-03
3.505639361662823831e+03 3.359335108767523281e-01 2.721574027531347036e-03
3.509145001024487556e+03 3.354400574099124510e-01 2.570538360502642311e-03
3.512654146025513455e+03 3.336135065018841495e-01 2.568651184062659566e-03
3.516166800171540217e+03 3.295704343873541164e-01 2.502672266083603558e-03
3.519682966971712631e+03 3.241219649910702660e-01 2.535751350540601037e-03
3.523202649938685681e+03 3.163346139916348720e-01 2.529374447770372028e-03
3.526725852588625457e+03 3.072135068298182947e-01 2.513822323087782414e-03
3.530252578441215064e+03 2.966916239651642417e-01 2.554144352850675273e-03
3.533782831019657806e+03 2.853191915988659844e-01 2.484336486712185495e-03
3.537316613850678550e+03 2.726299057667916359e-01 2.513799116083890919e-03
3.540853930464530094e+03 2.597721891865893418e-01 2.495672743196883803e-03
3.544394784394995895e+03 2.465378743317302168e-01 2.781378733099330088e-03
3.547939179179392340e+03 2.324610466001348630e-01 3.300327362954758297e-03
3.551487118358572843e+03 2.177046741718257072e-01 3.882694678238521671e-03
3.555038605476932389e+03 2.037036978421332134e-01 4.034729540268149582e-03
3.558593644082410719e+03 1.916270441496000787e-01 3.761720305591472347e-03
3.562152237726494150e+03 1.814733485459059104e-01 3.138847476368736289e-03
3.565714389964221937e+03 1.740252744363806336e-01 2.742393954440541879e-03
3.569280104354187188e+03 1.683257147429517708e-01 2.522417229028752882e-03
3.572849384458542772e+03 1.659961090697876784e-01 2.546417263846861498e-03
3.576422233843002232e+03 1.667292673556859950e-01 2.745690169594431664e-03
3.579998656076846601e+03 1.704852126869970119e-01 2.923871085578815063e-03
3.583578654732924406e+03 1.772099539733512086e-01 3.002308330924496112e-03
3.587162233387658489e+03 1.857522817555816164e-01 3.069511060234274627e-03
3.590749395621047370e+03 1.959121129800549532e-01 3.151714202546034970e-03
3.594340145016669794e+03 2.079368715727474282e-01 3.105375158191672931e-03
3.597934485161687462e+03 2.213465594054466468e-01 2.958536598161786921e-03
3.601532419646850485e+03 2.357129540893980746e-01 2.765394840980114986e-03
3.605133952066498296e+03 2.506367005118442792e-01 2.718426160626543232e-03
3.608739086018566013e+03 2.671408467784864849e-01 2.662107875589162301e-03
3.612347825104585809e+03 2.835144987793979388e-01 2.637855415882831792e-03
3.615960172929691907e+03 2.994998747119726468e-01 2.736145383885978284e-03
3.619576133102622407e+03 3.144276964494147064e-01 2.628141670498444164e-03
3.623195709235726554e+03 3.285988906949461885e-01 2.400124857003298629e-03
3.626818904944963379e+03 3.431857917343738573e-01 2.394909634364684667e-03
3.630445723849909427e+03 3.578192900552727984e-01 2.880412296091130510e-03
3.634076169573760581e+03 3.712286798879438354e-01 3.490450410167254304e-03
3.637710245743335690e+03 3.836548488645284971e-01 4.015955154213726730e-03
3.641347955989080219e+03 3.934156000422507904e-01 4.264632662021205188e-03
3.644989303945070333e+03 4.009880100585886953e-01 4.093171441589216197e-03
3.648634293249016537e+03 4.049185079302875523e-01 3.728471840975842045e-03
3.652282927542266862e+03 4.059945969143587963e-01 3.188000256517615170e-03
3.655935210469810499e+03 4.033579545744499506e-01 2.595420710061354091e-03
3.659591145680281443e+03 3.962072212853217090e-01 3.064589879983815792e-03
3.663250736825963031e+03 3.840471571589451072e-01 3.533712556933589575e-03
3.666913987562790226e+03 3.690564212376318265e-01 3.911687984762730191e-03
3.670580901550354156e+03 3.523385029858164819e-01 4.146596459605309329e-03
3.674251482451905758e+03 3.340149857208793427e-01 4.277780310935453724e-03
3.677925733934358959e+03 3.150835708656649636e-01 4.147415986631305951e-03
3.681603659668294313e+03 2.967742104323097818e-01 3.559945366864601321e-03
3.685285263327964003e+03 2.793395420201447710e-01 2.990391539130930667e-03
3.688970548591293209e+03 2.640271181584654681e-01 2.623139452083212472e-03
3.692659519139885560e+03 2.511725247590928523e-01 2.899807294387069315e-03
3.696352178659026777e+03 2.410847731269879501e-01 3.240456011231462874e-03
3.700048530837686940e+03 2.341739626593129509e-01 3.062259182762730632e-03
3.703748579368525952e+03 2.287228795306385509e-01 2.766598759192578048e-03
3.707452327947895355e+03 2.246571767032721767e-01 2.925380275639077529e-03
3.711159780275844696e+03 2.229696241162399672e-01 3.139672385622751215e-03
3.714870940056121526e+03 2.241900607454093974e-01 3.183977056151974724e-03
3.718585810996179134e+03 2.270105102825587529e-01 3.173414509096182147e-03
3.722304396807176545e+03 2.320374939849205731e-01 3.152580460635985397e-03
3.726026701203984885e+03 2.377208658235619720e-01 3.219859815529484050e-03
3.729752727905190113e+03 2.448783867703916706e-01 3.360457121298645027e-03
3.733482480633096657e+03 2.534588413018640796e-01 3.876513043982936918e-03
3.737215963113731050e+03 2.635827441417151751e-01 4.612853879936377327e-03
3.740953179076846027e+03 2.727631359271739386e-01 4.903686322343918033e-03
3.744694132255923705e+03 2.799068935680768533e-01 4.494286069736113699e-03
3.748438826388181042e+03 2.837922928268915013e-01 4.033213530215506819e-03
3.752187265214570289e+03 2.839266498834920882e-01 3.910044742367141390e-03
3.755939452479786269e+03 2.807098854145246292e-01 4.199211017329604334e-03
3.759695391932267285e+03 2.737237666512021272e-01 5.105376776390084179e-03
3.763455087324201031e+03 2.642996854383963257e-01 5.567605168592823506e-03
3.767218542411526414e+03 2.542487229014206429e-01 5.516273112050279134e-03
3.770985760953939007e+03 2.404355820251491138e-01 4.746863555137379245e-03
3.774756746714894234e+03 2.274364774337476192e-01 3.332746667694367823e-03
3.778531503461610555e+03 2.158354630657526585e-01 2.918779960281315655e-03
3.782310034965073100e+03 2.089136533989000843e-01 3.378978406142920006e-03
3.786092345000039586e+03 2.034517426140614316e-01 3.312861298211239834e-03
3.789878437345040766e+03 1.988612982115377514e-01 3.046417817543971805e-03
3.793668315782387253e+03 1.958305471416620092e-01 2.573271988053139978e-03
3.797461984098170888e+03 1.928693411088877596e-01 2.516740895389279597e-03
3.801259446082270188e+03 1.906010254094714917e-01 2.652458778271428539e-03
3.805060705528353537e+03 1.901797611185867543e-01 2.783604824727680532e-03
3.808865766233883278e+03 1.889886563755375504e-01 2.931854974049811092e-03
3.812674632000118436e+03 1.893387619725950266e-01 2.799319026816874442e-03
3.816487306632119726e+03 1.894802035762566672e-01 2.006316781410279974e-03
3.820303793938753188e+03 1.941108594724593739e-01 2.437157726871199206e-03
3.824124097732693372e+03 2.008677314988681906e-01 2.706239919822839464e-03
3.827948221830427428e+03 2.082935134493228979e-01 2.574234645665919499e-03
3.831776170052258749e+03 2.162945972189158350e-01 2.402730427256087771e-03
3.835607946222312421e+03 2.248951310978666851e-01 2.625521525472576927e-03
3.839443554168536139e+03 2.339042826233658223e-01 2.945536242347443229e-03
3.843282997722705659e+03 2.433104697639640601e-01 2.883910013052647884e-03
3.847126280720429804e+03 2.525750894835789295e-01 2.632120779310416492e-03
3.850973407001151372e+03 2.620568294798771847e-01 2.464221254383310803e-03
3.854824380408153957e+03 2.725493492266691797e-01 3.345646364155590094e-03
3.858679204788563311e+03 2.818231266807981750e-01 3.986296624672285537e-03
3.862537883993353262e+03 2.881952771219658538e-01 3.868223101558622250e-03
3.866400421877347981e+03 2.906793194464107333e-01 3.535835953210929652e-03
3.870266822299226533e+03 2.891314397334740494e-01 3.415891172749906286e-03
3.874137089121526969e+03 2.843184261069670038e-01 3.496893509079677335e-03
3.878011226210649966e+03 2.752565068416593097e-01 4.211922083076832628e-03
3.881889237436861549e+03 2.633575953417202631e-01 4.246767692250479412e-03
3.885771126674299921e+03 2.505311853262894850e-01 3.494628905219312760e-03
3.889656897800975457e+03 2.385062963666416680e-01 3.033385349185141293e-03
3.893546554698777527e+03 2.278296907330406851e-01 3.528075086720192967e-03
3.897440101253477678e+03 2.188587133367422832e-01 3.720815864216366585e-03
3.901337541354732366e+03 2.110803735654345759e-01 3.290055992749250490e-03
3.905238878896088409e+03 2.046893366866082142e-01 3.378642103156282838e-03
3.909144117774985716e+03 2.003743886591896339e-01 3.883825433016828161e-03
3.913053261892762293e+03 1.987145612916928761e-01 4.315549815894379956e-03
3.916966315154656058e+03 2.009835551265289344e-01 4.007720766809338454e-03
3.920883281469812118e+03 2.082637525458401750e-01 3.571479785657260403e-03
3.924804164751283224e+03 2.209249664201022589e-01 4.145346195678065171e-03
3.928728968916035683e+03 2.381569433304437933e-01 4.851375550819055950e-03
3.932657697884953450e+03 2.578624653146364687e-01 4.656787778979747799e-03
3.936590355582839493e+03 2.802400250813966709e-01 4.395529417847199131e-03
3.940526945938423523e+03 3.048535283847148003e-01 4.177527943495527689e-03
3.944467472884363360e+03 3.305096744173063317e-01 4.267584012395862596e-03
3.948411940357249023e+03 3.569158092056174958e-01 4.335071127816760017e-03
3.952360352297607733e+03 3.822674610767837211e-01 4.087262378155034556e-03
3.956312712649906643e+03 4.071259422165174890e-01 4.163447824513688902e-03
3.960269025362557841e+03 4.303186169055711607e-01 4.565168644063023057e-03
3.964229294387921527e+03 4.517408686887175451e-01 4.801190371868209288e-03
3.968193523682310570e+03 4.706771930795108361e-01 4.380332970340269742e-03
3.972161717205994591e+03 4.850292533133856443e-01 3.824881581782240032e-03
3.976133878923201792e+03 4.943848908891647631e-01 3.923925726016681652e-03
3.980110012802126221e+03 4.989230892337111478e-01 4.231059569164356826e-03
3.984090122814929600e+03 4.989643849813893417e-01 4.277457955483073872e-03
3.988074212937745870e+03 4.948599113103067104e-01 3.575239594806366508e-03
3.992062287150684824e+03 4.886540408248237211e-01 3.131460303154454203e-03
3.996054349437837118e+03 4.808956038335872041e-01 3.167869386784782828e-03
4.000050403787276082e+03 4.730413641569274907e-01 3.044116722918443780e-03
4.004050454191064546e+03 4.647206292603796585e-01 2.918391707207716214e-03
4.008054504645257111e+03 4.555711545045408872e-01 3.570881583718951355e-03
4.012062559149903791e+03 4.490251661660626947e-01 3.642771486790465085e-03
4.016074621709055009e+03 4.441232086142150037e-01 3.638788997950423258e-03
4.020090696330765240e+03 4.404823651738170032e-01 3.316762540951463320e-03
4.024110787027097558e+03 4.399844207155221287e-01 2.938364655081183909e-03
4.028134897814125907e+03 4.430072851171634740e-01 2.807533586195240863e-03
4.032163032711941469e+03 4.510286877734510091e-01 3.170460948150673804e-03
4.036195195744654484e+03 4.615747228234007848e-01 3.042413204918973605e-03
4.040231390940400615e+03 4.745313541923857348e-01 2.677288861180432845e-03
4.044271622331342314e+03 4.894301505348953585e-01 2.241838232597901780e-03
4.048315893953675186e+03 5.042267928870404203e-01 2.215825508370590675e-03
4.052364209847629809e+03 5.187316718805292659e-01 2.221950002978219981e-03
4.056416574057479011e+03 5.323478194219405379e-01 2.443139135239966783e-03
4.060472990631537868e+03 5.438963539111685286e-01 2.628758017211562173e-03
4.064533463622170530e+03 5.537551753821029488e-01 2.841276149260840017e-03
4.068597997085794304e+03 5.616729123922196143e-01 2.382258682959781555e-03
4.072666595082881486e+03 5.654502476838920710e-01 2.483805526945809857e-03
4.076739261677965715e+03 5.663270977679013551e-01 2.891638646438416012e-03
4.080816000939644709e+03 5.639274679210378727e-01 3.104186548092390148e-03
4.084896816940585722e+03 5.596376269542093773e-01 2.621138041186454708e-03
4.088981713757527814e+03 5.555518087934560034e-01 2.611905967100157638e-03
4.093070695471286854e+03 5.499475305939631742e-01 2.498169945442466674e-03
4.097163766166759160e+03 5.435140646454683644e-01 2.352226660154257878e-03
4.101260929932927866e+03 5.381711917017834024e-01 2.337457090973625150e-03
4.105362190862862008e+03 5.340190931288252285e-01 2.330829250564280235e-03
4.109467553053726078e+03 5.320486357036876557e-01 1.995668915973216467e-03
4.113577020606780934e+03 5.302437022021621038e-01 2.027623793157651202e-03
4.117690597627389252e+03 5.275480583597368378e-01 2.084660680605347587e-03
4.121808288225018259e+03 5.249244384220156379e-01 2.315577263774725239e-03
4.125930096513244280e+03 5.232015929613075267e-01 2.194396495917844483e-03
4.130056026609759101e+03 5.225323883073934583e-01 2.003243879518372666e-03
4.134186082636369974e+03 5.237625449841559755e-01 2.055266138109816589e-03
4.138320268719007800e+03 5.262398096903599942e-01 2.241485391381686267e-03
4.142458588987728035e+03 5.297582702827453582e-01 2.140128385380822996e-03
4.146601047576717065e+03 5.326456173049354259e-01 1.868590890333588373e-03
4.150747648624294925e+03 5.333631991063995104e-01 1.931464141517680094e-03
4.154898396272920763e+03 5.336645601492308044e-01 1.924720617621724370e-03
4.159053294669195566e+03 5.335001703227539860e-01 2.086020684907197425e-03
4.163212347963865795e+03 5.324255691753060349e-01 2.028123945676472192e-03
4.167375560311830668e+03 5.301442115900741880e-01 1.931157873023663964e-03
4.171542935872143971e+03 5.258968226364515441e-01 2.367894194727015490e-03
4.175714478808017702e+03 5.210408619122280927e-01 2.217947875661909797e-03
4.179890193286827525e+03 5.164336688384549845e-01 1.939076652489967519e-03
4.184070083480115500e+03 5.125067483317549133e-01 1.868426072913350342e-03
4.188254153563597356e+03 5.098048906315141293e-01 1.934830766416865099e-03
4.192442407717161586e+03 5.082519469678640212e-01 1.638774184791934102e-03
4.196634850124880359e+03 5.056781506222174372e-01 2.125423479709521220e-03
4.200831484975006788e+03 5.034589339744389713e-01 3.085840900503321934e-03
4.205032316459983122e+03 5.046938905654212437e-01 3.007014142008524859e-03
4.209237348776444378e+03 5.087915241354397100e-01 3.711966615987705425e-03
4.213446586125221984e+03 5.135935858268876331e-01 4.495185709464264746e-03
4.217660032711349231e+03 5.178370808724963581e-01 4.744388971840118353e-03
4.221877692744061278e+03 5.199881488528890205e-01 4.513917889850229195e-03
4.226099570436806971e+03 5.196357181874228237e-01 4.358330544751926397e-03
4.230325670007245208e+03 5.154781533768550972e-01 4.332641029305871021e-03
4.234555995677254032e+03 5.090521393213706114e-01 4.404534838910195531e-03
4.238790551672932452e+03 5.017301021413724804e-01 4.360410297992336863e-03
4.243029342224606808e+03 4.912906128718033116e-01 5.172752557458833514e-03
4.247272371566832589e+03 4.802149135611065156e-01 5.483893846119337889e-03
4.251519643938400804e+03 4.714469351141971076e-01 4.478814937309551387e-03
4.255771163582340705e+03 4.678876260838334966e-01 3.783296036986944551e-03
4.260026934745924336e+03 4.693585130620500090e-01 3.758274867947342286e-03
4.264286961680671993e+03 4.769188505215572471e-01 3.896613008640944457e-03
4.268551248642354039e+03 4.904916713895375868e-01 3.531462363606707646e-03
4.272819799890998183e+03 5.080536599289104949e-01 2.683413136331399673e-03
4.277092619690890388e+03 5.277032529895330226e-01 2.726300580513857114e-03
4.281369712310583054e+03 5.484221297164268982e-01 2.587976463011835981e-03
4.285651082022895025e+03 5.741970577073811643e-01 3.019910052593288013e-03
4.289936733104918858e+03 6.027240406277385443e-01 3.741798845072370761e-03
4.294226669838025373e+03 6.293025402852178152e-01 3.671538437325357583e-03
4.298520896507864563e+03 6.541967362394450758e-01 3.639011062436902592e-03
4.302819417404373780e+03 6.771849129735245665e-01 3.641949340381425964e-03
4.307122236821779552e+03 6.987090402205373696e-01 3.620898922858594663e-03
4.311429359058603040e+03 7.161340247297813821e-01 3.561839339606540176e-03
4.315740788417662770e+03 7.300514375101906372e-01 3.478465453023200579e-03
4.320056529206081905e+03 7.404300876553195909e-01 3.424325610023554005e-03
4.324376585735290064e+03 7.445966927744432917e-01 3.551795843755800857e-03
4.328700962321026054e+03 7.457020409315785470e-01 2.943941840340537439e-03
4.333029663283348782e+03 7.458237181198585919e-01 2.659942720479662685e-03
4.337362692946633615e+03 7.457631188651026033e-01 3.042863829891594932e-03
4.341700055639581478e+03 7.433805623260592021e-01 3.067674883100354397e-03
4.346041755695222491e+03 7.393258238903553936e-01 3.065844209397954566e-03
4.350387797450919606e+03 7.349946532434202817e-01 3.108948182547308699e-03
4.354738185248371337e+03 7.293477893008030177e-01 3.443294054743127521e-03
4.359092923433621763e+03 7.241031498301998548e-01 3.364545641470591524e-03
4.363452016357056891e+03 7.203383012463209223e-01 2.800375422992386690e-03
4.367815468373414660e+03 7.206261615176215996e-01 3.089764666060585644e-03
4.372183283841789489e+03 7.221223708607957814e-01 2.969482139658149479e-03
4.376555467125633186e+03 7.229093929461062329e-01 2.932626915935758038e-03
4.380932022592760404e+03 7.249551346593742229e-01 2.913651576404230510e-03
4.385312954615354101e+03 7.288197817741270956e-01 2.887992218365736333e-03
4.389698267569970994e+03 7.348533079059071937e-01 2.710978990723617466e-03
4.394087965837542470e+03 7.411517746464452161e-01 2.685407088307211702e-03
4.398482053803381859e+03 7.468905079510355094e-01 2.503286450191457430e-03
4.402880535857186260e+03 7.511839866531215826e-01 2.537204144304009215e-03
4.407283416393044718e+03 7.541792329380496707e-01 2.313592928233056557e-03
4.411690699809440048e+03 7.572231092267838193e-01 2.171062422560177899e-03
4.416102390509250654e+03 7.615850982237412081e-01 2.322507463077087223e-03
4.420518492899761441e+03 7.681721741428942929e-01 2.780874410043414173e-03
4.424939011392662906e+03 7.767701413510355035e-01 3.109667042564468430e-03
4.429363950404056595e+03 7.876966807559948602e-01 3.032487866333524393e-03
4.433793314354462382e+03 8.021677864007654701e-01 2.793396085414827194e-03
4.438227107668818462e+03 8.190404777188302621e-01 2.752723175269507130e-03
4.442665334776488635e+03 8.388010158376670855e-01 4.164519375795056738e-03
4.447108000111265937e+03 8.603402613445501057e-01 5.262714350741204243e-03
4.451555108111379013e+03 8.796735470275691693e-01 4.550051477777209558e-03
4.456006663219492111e+03 8.945738426374540975e-01 3.528030432106506967e-03
4.460462669882713271e+03 9.040919484762487413e-01 3.164305573336439591e-03
4.464923132552597053e+03 9.076779821985232477e-01 3.941056029860837834e-03
4.469388055685150903e+03 9.065784991428985640e-01 4.336543423409950325e-03
4.473857443740837880e+03 9.029475329026901420e-01 4.136907141657015542e-03
4.478331301184580298e+03 8.971233391874545715e-01 3.758161663356982506e-03
4.482809632485766087e+03 8.892637673718161162e-01 3.156346750184673040e-03
4.487292442118253348e+03 8.819575112967407149e-01 2.598181907098770851e-03
4.491779734560373072e+03 8.773389088215954867e-01 2.551127160476731985e-03
4.496271514294934605e+03 8.754980863224174348e-01 2.551624650535526222e-03
4.500767785809231100e+03 8.768506479549016408e-01 2.467390163866180902e-03
4.505268553595042249e+03 8.807195527888989073e-01 2.443616751649418072e-03
