# starting wavelength: 3470.980
# ending wavelength: 7367.620
# wav flux eflux
3.474245784479418489e+03 2.708076907517127929e-01 1.533547400642239558e-02
3.477720030263898934e+03 2.653194177286721800e-01 1.242645489165922039e-02
3.481197750294164052e+03 2.638265740475473908e-01 9.696480143532125798e-03
3.484678948044459503e+03 2.637243713268808687e-01 8.138699389836443615e-03
3.488163626992504760e+03 2.635060271916660479e-01 6.989236988516919595e-03
3.491651790619498570e+03 2.623498388266414239e-01 5.685785197221128809e-03
3.495143442410119405e+03 2.620837015650124835e-01 4.650822138668200822e-03
3.498638585852530468e+03 2.629798136528863073e-01 3.996622649389333128e-03
3.502137224438384237e+03 2.648208392013671753e-01 3.474058817434293785e-03
3.505639361662823831e+03 2.678950173643388499e-01 3.082609072986302809e-03
3.509145001024487556e+03 2.723708480862883641e-01 2.813532270274029818e-03
3.512654146025513455e+03 2.778364093380549793e-01 2.596293945820505201e-03
3.516166800171540217e+03 2.843493363471465418e-01 2.434689395941496901e-03
3.519682966971712631e+03 2.923909467754265967e-01 2.423369167057080713e-03
3.523202649938685681e+03 3.021220333591590479e-01 2.799062985156048917e-03
3.526725852588625457e+03 3.114887248475171622e-01 2.887372052850846558e-03
3.530252578441215064e+03 3.204223967887787072e-01 2.859506679980023183e-03
3.533782831019657806e+03 3.288638177626775350e-01 2.884712467429958668e-03
3.537316613850678550e+03 3.375990087377020998e-01 2.823433572166840141e-03
3.540853930464530094e+03 3.466569301096450451e-01 2.899362481117065404e-03
3.544394784394995895e+03 3.544285918749289777e-01 2.835468482515389899e-03
3.547939179179392340e+03 3.606702595350781970e-01 2.690473038930973112e-03
3.551487118358572843e+03 3.656714572745021763e-01 2.681842775187780973e-03
3.555038605476932389e+03 3.690107986875068580e-01 2.664339138596156630e-03
3.558593644082410719e+03 3.715739274905776601e-01 2.727799764644121393e-03
3.562152237726494150e+03 3.721023051881937604e-01 2.655365864996885993e-03
3.565714389964221937e+03 3.708422562820520296e-01 2.536034350977659207e-03
3.569280104354187188e+03 3.675837787901848341e-01 2.505500563271922075e-03
3.572849384458542772e+03 3.608974717282104616e-01 3.270969645772851733e-03
3.576422233843002232e+03 3.550055882452608502e-01 3.351901810923321560e-03
3.579998656076846601e+03 3.457433788280527831e-01 3.706944759527609420e-03
3.583578654732924406e+03 3.364995679360714420e-01 3.620569765150663012e-03
3.587162233387658489e+03 3.267767453925898291e-01 3.373907315285291138e-03
3.590749395621047370e+03 3.158725333325030915e-01 2.716236170140250757e-03
3.594340145016669794e+03 3.076745667068265244e-01 2.699794244983475498e-03
3.597934485161687462e+03 3.004674056795524351e-01 2.706418881860336422e-03
3.601532419646850485e+03 2.942389596581364009e-01 2.689042931431498331e-03
3.605133952066498296e+03 2.880885505772692312e-01 2.530246155933669073e-03
3.608739086018566013e+03 2.840562908378111984e-01 2.401727624447662617e-03
3.612347825104585809e+03 2.816895410271170186e-01 2.398582058329813433e-03
3.615960172929691907e+03 2.810360970991356844e-01 2.447610110153902729e-03
3.619576133102622407e+03 2.821704219655042367e-01 2.460500762957142790e-03
3.623195709235726554e+03 2.842235207996186563e-01 2.503278277648489543e-03
3.626818904944963379e+03 2.873576853488631899e-01 2.473755557209762496e-03
3.630445723849909427e+03 2.916539815292681359e-01 2.531830026727515705e-03
3.634076169573760581e+03 2.969996440579704688e-01 2.535935650281714773e-03
3.637710245743335690e+03 3.037412697647765003e-01 2.457802155897809235e-03
3.641347955989080219e+03 3.109621375449251324e-01 2.247908278114882537e-03
3.644989303945070333e+03 3.168576496523411445e-01 2.316466926159801726e-03
3.648634293249016537e+03 3.223781311958877627e-01 2.697549223264997242e-03
3.652282927542266862e+03 3.272018385492695414e-01 3.109653654812333679e-03
3.655935210469810499e+03 3.291741399397427603e-01 3.012597453221701593e-03
3.659591145680281443e+03 3.292091110323508985e-01 3.129510508948823901e-03
3.663250736825963031e+03 3.260647975500372553e-01 3.120577828476278279e-03
3.666913987562790226e+03 3.223099366152515910e-01 2.956785796009287100e-03
3.670580901550354156e+03 3.157031066381492113e-01 2.425541455795013519e-03
3.674251482451905758e+03 3.050683361959389828e-01 2.757671939555928885e-03
3.677925733934358959e+03 2.916145394891130338e-01 3.405322386095839884e-03
3.681603659668294313e+03 2.758168941181260991e-01 3.624795953454690300e-03
3.685285263327964003e+03 2.586208133757100236e-01 3.152733062170004832e-03
3.688970548591293209e+03 2.403995064147999572e-01 2.982235151432834335e-03
3.692659519139885560e+03 2.225334256243390874e-01 3.006681883176343887e-03
3.696352178659026777e+03 2.035737015953804074e-01 2.877290912950944673e-03
3.700048530837686940e+03 1.852732445540230810e-01 2.730156506756458920e-03
3.703748579368525952e+03 1.682276979498468217e-01 2.458047779282730456e-03
3.707452327947895355e+03 1.522466605295381692e-01 2.195984625584337154e-03
3.711159780275844696e+03 1.393258756336281934e-01 2.063231416778106824e-03
3.714870940056121526e+03 1.305881321438208120e-01 2.135972204200657556e-03
3.718585810996179134e+03 1.239670256667357584e-01 2.082497415008730500e-03
3.722304396807176545e+03 1.202359287496377049e-01 2.024184130618197301e-03
3.726026701203984885e+03 1.187630778341322579e-01 2.011283094740599041e-03
3.729752727905190113e+03 1.185367017203924067e-01 2.149809579149282706e-03
3.733482480633096657e+03 1.190899670636333951e-01 2.199175255524252626e-03
3.737215963113731050e+03 1.209993047819955120e-01 2.167225344356926275e-03
3.740953179076846027e+03 1.234689415113850997e-01 2.157646840496410794e-03
3.744694132255923705e+03 1.262031415412196433e-01 2.248618794123625336e-03
3.748438826388181042e+03 1.306839573491345718e-01 2.141429687585328333e-03
3.752187265214570289e+03 1.364792652204958323e-01 2.198108984123068026e-03
3.755939452479786269e+03 1.412974040964051214e-01 2.236361393514043911e-03
3.759695391932267285e+03 1.453580920031533885e-01 2.244092389800611542e-03
3.763455087324201031e+03 1.490860480966805512e-01 2.087618332875686069e-03
3.767218542411526414e+03 1.513088312782085165e-01 2.159426093696376059e-03
3.770985760953939007e+03 1.518677500756371868e-01 2.073370905907049189e-03
3.774756746714894234e+03 1.525961576203678782e-01 1.968962270028789142e-03
3.778531503461610555e+03 1.535313703709593192e-01 2.008358343045902033e-03
3.782310034965073100e+03 1.556550628948251414e-01 1.996177713843512534e-03
3.786092345000039586e+03 1.564377257814935640e-01 2.214964560202528718e-03
3.789878437345040766e+03 1.579899037622176650e-01 2.293498069154647438e-03
3.793668315782387253e+03 1.605390846567876229e-01 2.268067381631872284e-03
3.797461984098170888e+03 1.649398694861749504e-01 2.312151309778437847e-03
3.801259446082270188e+03 1.710182806574053471e-01 3.060133689777999946e-03
3.805060705528353537e+03 1.778059601862778671e-01 3.408279004225015906e-03
3.808865766233883278e+03 1.837343227720568406e-01 3.428498748643896317e-03
3.812674632000118436e+03 1.902286326542232120e-01 3.331291340041967787e-03
3.816487306632119726e+03 1.971296135166537289e-01 2.920182611843912240e-03
3.820303793938753188e+03 2.031008407661136217e-01 3.457738022285953595e-03
3.824124097732693372e+03 2.077387555056332546e-01 4.103041723992117105e-03
3.827948221830427428e+03 2.136334231283399943e-01 3.784655207862572257e-03
3.831776170052258749e+03 2.220033897760487485e-01 3.431556966570056735e-03
3.835607946222312421e+03 2.338223633499662280e-01 3.914414296531813602e-03
3.839443554168536139e+03 2.461908270232857077e-01 4.116324069316655912e-03
3.843282997722705659e+03 2.596351957947278799e-01 4.156178450216031946e-03
3.847126280720429804e+03 2.738123096145534952e-01 4.095200851695340351e-03
3.850973407001151372e+03 2.895046100451350579e-01 4.255384263155507010e-03
3.854824380408153957e+03 3.063888902559728233e-01 4.090410458032389847e-03
3.858679204788563311e+03 3.236054221386136520e-01 3.936724317698102153e-03
3.862537883993353262e+03 3.414155719315626336e-01 3.814983707087014030e-03
3.866400421877347981e+03 3.575252004249097615e-01 3.721359054289554661e-03
3.870266822299226533e+03 3.724965823898966355e-01 3.519226460015367677e-03
3.874137089121526969e+03 3.888369828856357846e-01 2.631450492114683227e-03
3.878011226210649966e+03 4.069966410281334324e-01 2.472555858543118521e-03
3.881889237436861549e+03 4.283141963985758194e-01 2.888452725589581160e-03
3.885771126674299921e+03 4.500338260294459714e-01 2.762795188021830925e-03
3.889656897800975457e+03 4.711993169061767794e-01 2.253735010789908663e-03
3.893546554698777527e+03 4.912533876787121279e-01 1.766811493001050649e-03
3.897440101253477678e+03 5.082129970732053303e-01 1.765137258061651865e-03
3.901337541354732366e+03 5.228889848331372825e-01 1.745728400347137162e-03
3.905238878896088409e+03 5.359559777168644290e-01 1.658136508853110414e-03
3.909144117774985716e+03 5.475622541860516446e-01 1.650141086208606811e-03
3.913053261892762293e+03 5.584839635208714848e-01 1.535372550098704778e-03
3.916966315154656058e+03 5.671461253253454737e-01 1.672153330979047128e-03
3.920883281469812118e+03 5.747328662165016588e-01 1.710125398126645857e-03
3.924804164751283224e+03 5.825047290359084418e-01 1.513803423693342327e-03
3.928728968916035683e+03 5.907889325046243867e-01 1.526285747076598772e-03
3.932657697884953450e+03 5.986960636178364492e-01 1.504325388006826471e-03
3.936590355582839493e+03 6.078442568084738706e-01 1.541346488680449267e-03
3.940526945938423523e+03 6.180313953805091076e-01 1.591660151243956111e-03
3.944467472884363360e+03 6.287986387736305138e-01 1.358464599161060375e-03
3.948411940357249023e+03 6.415284653920276803e-01 1.359411145107106275e-03
3.952360352297607733e+03 6.539944633338160562e-01 1.236739454117254371e-03
3.956312712649906643e+03 6.689246197043984266e-01 1.155551365313469900e-03
3.960269025362557841e+03 6.842288339594531088e-01 1.393889078897312230e-03
3.964229294387921527e+03 6.990547015255506036e-01 1.495660910799743353e-03
3.968193523682310570e+03 7.136095686549184247e-01 1.585210895934209942e-03
3.972161717205994591e+03 7.264249485047115096e-01 1.510306685939959885e-03
3.976133878923201792e+03 7.369968988294761658e-01 1.461798733771792072e-03
3.980110012802126221e+03 7.461020690179893666e-01 1.316053950872912064e-03
3.984090122814929600e+03 7.523158345817927417e-01 1.436266243484928895e-03
3.988074212937745870e+03 7.563659115012598688e-01 1.562683704363527614e-03
3.992062287150684824e+03 7.580379269921708740e-01 1.365548544575236316e-03
3.996054349437837118e+03 7.580730303454693564e-01 1.073527123534422176e-03
4.000050403787276082e+03 7.581786793275990810e-01 1.093442258483667872e-03
4.004050454191064546e+03 7.571817720717047839e-01 1.099787736747003973e-03
4.008054504645257111e+03 7.550837954063864821e-01 1.074094126987725287e-03
4.012062559149903791e+03 7.522454667098541492e-01 1.061084305720354313e-03
4.016074621709055009e+03 7.495108811912314373e-01 1.084066759449622613e-03
4.020090696330765240e+03 7.465379607670429296e-01 9.015592490039571211e-04
4.024110787027097558e+03 7.425656966980336282e-01 1.306883340498235947e-03
4.028134897814125907e+03 7.381466007939387897e-01 1.204701269161514987e-03
4.032163032711941469e+03 7.348594742185720063e-01 1.190600828451429845e-03
4.036195195744654484e+03 7.318658674301367073e-01 1.367566395652332475e-03
4.040231390940400615e+03 7.283739486388197681e-01 1.489924556825761174e-03
4.044271622331342314e+03 7.247364518209424844e-01 1.509311452698295893e-03
4.048315893953675186e+03 7.202646174941997881e-01 1.593660265726685879e-03
4.052364209847629809e+03 7.142217621926174598e-01 1.532790669560592321e-03
4.056416574057479011e+03 7.069276930834437200e-01 1.152969294124862919e-03
4.060472990631537868e+03 6.971353712868322283e-01 1.176166491026037729e-03
4.064533463622170530e+03 6.858059327013288353e-01 1.214063097451883620e-03
4.068597997085794304e+03 6.725451156199121483e-01 1.543402678486261023e-03
4.072666595082881486e+03 6.581684089647032998e-01 1.678679349214829124e-03
4.076739261677965715e+03 6.446116564925518100e-01 1.561936415073040922e-03
4.080816000939644709e+03 6.322051150400270769e-01 1.300192925383702319e-03
4.084896816940585722e+03 6.209423094106444330e-01 1.142495617301086865e-03
4.088981713757527814e+03 6.115217014747336144e-01 1.143334969082482637e-03
4.093070695471286854e+03 6.044579401505263405e-01 1.010923209049628462e-03
4.097163766166759160e+03 5.988067578341106367e-01 9.757872255168557191e-04
4.101260929932927866e+03 5.938568622643002337e-01 9.674687795118812328e-04
4.105362190862862008e+03 5.902974883770334413e-01 9.616820647479452314e-04
4.109467553053726078e+03 5.884682127631515325e-01 1.051769006002902093e-03
4.113577020606780934e+03 5.862706350001564148e-01 9.411600512926472347e-04
4.117690597627389252e+03 5.839566767320292229e-01 9.388423600782538425e-04
4.121808288225018259e+03 5.812325571038360339e-01 9.325358967913004692e-04
4.125930096513244280e+03 5.783778308720819439e-01 9.266714899079450543e-04
4.130056026609759101e+03 5.748008555540581321e-01 9.210632444005007738e-04
4.134186082636369974e+03 5.706860142115245393e-01 9.164359422153751152e-04
4.138320268719007800e+03 5.660747554391627467e-01 9.229197018359933113e-04
4.142458588987728035e+03 5.614736570373277669e-01 8.605677469533490158e-04
4.146601047576717065e+03 5.556371913444883015e-01 9.875093493441869548e-04
4.150747648624294925e+03 5.495204933918168555e-01 1.067877055703736174e-03
4.154898396272920763e+03 5.445939669876409539e-01 1.010405355808554305e-03
4.159053294669195566e+03 5.412275518482698722e-01 9.897696105608945298e-04
4.163212347963865795e+03 5.387593594195793090e-01 9.781431351821067224e-04
4.167375560311830668e+03 5.373330409037202493e-01 1.015436767084441959e-03
4.171542935872143971e+03 5.370064765212586577e-01 1.185036610410799152e-03
4.175714478808017702e+03 5.374267382068869114e-01 1.408914254706902531e-03
4.179890193286827525e+03 5.372603864829869069e-01 1.401845072277912909e-03
4.184070083480115500e+03 5.367602457819818929e-01 1.284423333391398287e-03
4.188254153563597356e+03 5.361505739007635940e-01 1.010226059122290966e-03
4.192442407717161586e+03 5.340535835484102600e-01 1.378494446378076286e-03
4.196634850124880359e+03 5.320785507587595387e-01 1.477980507522289435e-03
4.200831484975006788e+03 5.300956614326485239e-01 1.348438614754310155e-03
4.205032316459983122e+03 5.285221086812246227e-01 1.336106057283690477e-03
4.209237348776444378e+03 5.268782170852671642e-01 1.344178632034399986e-03
4.213446586125221984e+03 5.252997556835284909e-01 1.342423006586214137e-03
4.217660032711349231e+03 5.242405338315901941e-01 1.303098799410505821e-03
4.221877692744061278e+03 5.237493623745692606e-01 1.211570485516458989e-03
4.226099570436806971e+03 5.233436945836955623e-01 1.348536905174296634e-03
4.230325670007245208e+03 5.233852908060685483e-01 1.389347359999384881e-03
4.234555995677254032e+03 5.242818226330437925e-01 1.358726809557213788e-03
4.238790551672932452e+03 5.260014242576134258e-01 1.331106471913026754e-03
4.243029342224606808e+03 5.280552005047581821e-01 1.331154456276736637e-03
4.247272371566832589e+03 5.304746184063361403e-01 1.638778531904254172e-03
4.251519643938400804e+03 5.330114487414338020e-01 1.894833972403187549e-03
4.255771163582340705e+03 5.348641369547230129e-01 1.634510738188945560e-03
4.260026934745924336e+03 5.352075219482621549e-01 1.370407912536729476e-03
4.264286961680671993e+03 5.338312747239800649e-01 1.502939599595437114e-03
4.268551248642354039e+03 5.313217022425781311e-01 1.541945955978934329e-03
4.272819799890998183e+03 5.267589206862367535e-01 1.421283258310737999e-03
4.277092619690890388e+03 5.211621307275891013e-01 1.202573597324069947e-03
4.281369712310583054e+03 5.151044287241242081e-01 1.327450133060599632e-03
4.285651082022895025e+03 5.080403722026066715e-01 1.323766901774367077e-03
4.289936733104918858e+03 5.001595507782631289e-01 1.394930567174858249e-03
4.294226669838025373e+03 4.922897688824279250e-01 1.540625681176829897e-03
4.298520896507864563e+03 4.848349026114326943e-01 1.764493712094477576e-03
4.302819417404373780e+03 4.784767168879460186e-01 1.761709894714747577e-03
4.307122236821779552e+03 4.732832250446884492e-01 1.725277114571306973e-03
4.311429359058603040e+03 4.689532950700575631e-01 1.691433910300518340e-03
4.315740788417662770e+03 4.656251317187500849e-01 1.720680527935002828e-03
4.320056529206081905e+03 4.633407794579994521e-01 1.898582576397478796e-03
4.324376585735290064e+03 4.617885891467234938e-01 2.112479104463735845e-03
4.328700962321026054e+03 4.609399158227337479e-01 1.980002582199974232e-03
4.333029663283348782e+03 4.596707685301549273e-01 1.500811533819502606e-03
4.337362692946633615e+03 4.573284660439070337e-01 1.605799667630643896e-03
4.341700055639581478e+03 4.544534181567098652e-01 1.942664824552377311e-03
4.346041755695222491e+03 4.511188651352822654e-01 1.981318349645324987e-03
4.350387797450919606e+03 4.491073211028952517e-01 1.729181315956382142e-03
4.354738185248371337e+03 4.477725222934601512e-01 1.209116398852398905e-03
4.359092923433621763e+03 4.485198305199302182e-01 1.020506402735995828e-03
4.363452016357056891e+03 4.519283564368560824e-01 1.243969677528627971e-03
4.367815468373414660e+03 4.565348827946389965e-01 1.366638763623493529e-03
4.372183283841789489e+03 4.618436574457118748e-01 1.261447449867705763e-03
4.376555467125633186e+03 4.679565140490196673e-01 1.129583270144101726e-03
4.380932022592760404e+03 4.743803989041584512e-01 1.088721996036811149e-03
4.385312954615354101e+03 4.814537021498341285e-01 9.950281659972168551e-04
4.389698267569970994e+03 4.882067495708255489e-01 9.526125048071410004e-04
4.394087965837542470e+03 4.941645462712532244e-01 9.173823427381271652e-04
4.398482053803381859e+03 4.999354038852090731e-01 8.705292951526193449e-04
4.402880535857186260e+03 5.055645209555543751e-01 9.606187906552443980e-04
4.407283416393044718e+03 5.107734493038150747e-01 9.375496253080176914e-04
4.411690699809440048e+03 5.158423685198120223e-01 1.013290140074343208e-03
4.416102390509250654e+03 5.208654357469153506e-01 1.189881289855856603e-03
4.420518492899761441e+03 5.258018607447085824e-01 1.381250642745216308e-03
4.424939011392662906e+03 5.318717927483401775e-01 1.293607964904002622e-03
4.429363950404056595e+03 5.390077228657080832e-01 1.190918627792069643e-03
4.433793314354462382e+03 5.471897661178121153e-01 1.188151806309299197e-03
4.438227107668818462e+03 5.559984528949674099e-01 1.147657822072509735e-03
4.442665334776488635e+03 5.662769507878776531e-01 1.402800459574082836e-03
4.447108000111265937e+03 5.773411931664927943e-01 1.356959567633805224e-03
4.451555108111379013e+03 5.885216699831371523e-01 1.130876838403004634e-03
4.456006663219492111e+03 5.986478312962172366e-01 9.980037273658996268e-04
4.460462669882713271e+03 6.081514778778036590e-01 1.075047654096115361e-03
4.464923132552597053e+03 6.173696066431931806e-01 1.105045686970138356e-03
4.469388055685150903e+03 6.261711550501264378e-01 1.218312987301216517e-03
4.473857443740837880e+03 6.345661425011535073e-01 1.262686189404717664e-03
4.478331301184580298e+03 6.438385793090014575e-01 8.892502970457007118e-04
4.482809632485766087e+03 6.546703473784072358e-01 7.890450240908256259e-04
4.487292442118253348e+03 6.670085023657089662e-01 8.043064617893333013e-04
4.491779734560373072e+03 6.802888799804200914e-01 8.035071739228643543e-04
4.496271514294934605e+03 6.950135724770857282e-01 7.973060231918075369e-04
4.500767785809231100e+03 7.112914216100074682e-01 9.023874806209105206e-04
4.505268553595042249e+03 7.280305366967693148e-01 9.200732317356590754e-04
4.509773822148638828e+03 7.459315523591034669e-01 9.690611316264950877e-04
4.514283595970789065e+03 7.636751761889026824e-01 7.702976908077553740e-04
4.518797879566761367e+03 7.805612310543080801e-01 7.664416955342082203e-04
4.523316677446328868e+03 7.969985403399071355e-01 7.824341476642977106e-04
