# starting wavelength: 3450.220
# ending wavelength: 7352.910
# wav flux eflux
3.453473074813126004e+03 5.736283329019419286e-01 2.028798878083281146e-02
3.456926547887940615e+03 5.708550615213936474e-01 1.522000819569570285e-02
3.460383474435829612e+03 5.690237449588313456e-01 1.170698962740187622e-02
3.463843857910266706e+03 5.652322825144366902e-01 9.686596981228095746e-03
3.467307701768178049e+03 5.638508941282398546e-01 7.802973858539066603e-03
3.470775009469947236e+03 5.617490510367906253e-01 6.514546303621355020e-03
3.474245784479418489e+03 5.582305235398604681e-01 5.329610987741295255e-03
3.477720030263898934e+03 5.530826469976504178e-01 5.331060067479305442e-03
3.481197750294164052e+03 5.452537959461773998e-01 5.740255052064028099e-03
3.484678948044459503e+03 5.356783848982512586e-01 5.809791704094338302e-03
3.488163626992504760e+03 5.264804790086845543e-01 5.387195511214001691e-03
3.491651790619498570e+03 5.180836742405371398e-01 4.990541133945197196e-03
3.495143442410119405e+03 5.123389971057514813e-01 4.776211888659983966e-03
3.498638585852530468e+03 5.066397027790199292e-01 4.515344211158273287e-03
3.502137224438384237e+03 5.020927683859116586e-01 4.314851898207790887e-03
3.505639361662823831e+03 4.998415826973792164e-01 4.306127778705550434e-03
3.509145001024487556e+03 4.977926553103899088e-01 4.290513994462036296e-03
3.512654146025513455e+03 4.976076959324939875e-01 4.466509747825610048e-03
3.516166800171540217e+03 4.967282004604186008e-01 4.578882641535389313e-03
3.519682966971712631e+03 4.975301807941143739e-01 4.575212657210379376e-03
3.523202649938685681e+03 4.976322343589933417e-01 4.618766616190356396e-03
3.526725852588625457e+03 4.991022021848968704e-01 4.566825727087272385e-03
3.530252578441215064e+03 5.045336359297778461e-01 4.830939072976773302e-03
3.533782831019657806e+03 5.122146103827202035e-01 4.492712742462084269e-03
3.537316613850678550e+03 5.183772271622335559e-01 4.393220465551885001e-03
3.540853930464530094e+03 5.248243283458320363e-01 4.343393729693289379e-03
3.544394784394995895e+03 5.323786946025376166e-01 4.425129033623572544e-03
3.547939179179392340e+03 5.396396733190583772e-01 4.495871780129478620e-03
3.551487118358572843e+03 5.466620653433644783e-01 4.293414574049504717e-03
3.555038605476932389e+03 5.527986315997078792e-01 4.346639002042402937e-03
3.558593644082410719e+03 5.578998640569001743e-01 4.318837844111048270e-03
3.562152237726494150e+03 5.620948086709851577e-01 4.313180905028545821e-03
3.565714389964221937e+03 5.639150730138473566e-01 4.185997999408145979e-03
3.569280104354187188e+03 5.655905671670281576e-01 4.294534200950076049e-03
3.572849384458542772e+03 5.658615417442605100e-01 4.248631663651172320e-03
3.576422233843002232e+03 5.652364058337417951e-01 4.231022271857389980e-03
3.579998656076846601e+03 5.643703496570269262e-01 4.212482331213000634e-03
3.583578654732924406e+03 5.625384477353293500e-01 4.215932612813872056e-03
3.587162233387658489e+03 5.608905510635612268e-01 4.085034454607826618e-03
3.590749395621047370e+03 5.577018047365406295e-01 4.428578002903697970e-03
3.594340145016669794e+03 5.559336610079509411e-01 4.582099313013170139e-03
3.597934485161687462e+03 5.505844265279885574e-01 4.972716365875940077e-03
3.601532419646850485e+03 5.462153181351864228e-01 4.469255088816699757e-03
3.605133952066498296e+03 5.441810611656594521e-01 4.105778900702974042e-03
3.608739086018566013e+03 5.418154908610478548e-01 3.926023431678371707e-03
3.612347825104585809e+03 5.421174888999932273e-01 3.936550500102568330e-03
3.615960172929691907e+03 5.433733340417621349e-01 3.983656981531291490e-03
3.619576133102622407e+03 5.466823320568081623e-01 4.167542408121773130e-03
3.623195709235726554e+03 5.518491146359539856e-01 4.018665613059361347e-03
3.626818904944963379e+03 5.566076214689340551e-01 3.823443708707566745e-03
3.630445723849909427e+03 5.619224686055052098e-01 3.456629615231182097e-03
3.634076169573760581e+03 5.667338781629364108e-01 3.585977814189537146e-03
3.637710245743335690e+03 5.704215299102821657e-01 3.549057655794714966e-03
3.641347955989080219e+03 5.761234977972348181e-01 3.504062245396330922e-03
3.644989303945070333e+03 5.830532894008244593e-01 3.036839256075000125e-03
3.648634293249016537e+03 5.864039451557715443e-01 3.107803973675428173e-03
3.652282927542266862e+03 5.896433454708499555e-01 3.101757602713540660e-03
3.655935210469810499e+03 5.928988622959092680e-01 3.042639696938657587e-03
3.659591145680281443e+03 5.936320583957561681e-01 3.070163811030978806e-03
3.663250736825963031e+03 5.927653329154264350e-01 2.971023446648985745e-03
3.666913987562790226e+03 5.913722987421012878e-01 2.926799363236569189e-03
3.670580901550354156e+03 5.893490540337508188e-01 2.908996057196400024e-03
3.674251482451905758e+03 5.865051766388341692e-01 2.989976046006644766e-03
3.677925733934358959e+03 5.832361293220469367e-01 2.990658501324404070e-03
3.681603659668294313e+03 5.804260881929338423e-01 3.118752948272995526e-03
3.685285263327964003e+03 5.777801316790761588e-01 3.073736400128992963e-03
3.688970548591293209e+03 5.723596960497364661e-01 3.102079483056932336e-03
3.692659519139885560e+03 5.644307254393160500e-01 3.138569903359287021e-03
3.696352178659026777e+03 5.548040122511317396e-01 3.074969301103499218e-03
3.700048530837686940e+03 5.438586074498168443e-01 2.824929851666237862e-03
3.703748579368525952e+03 5.338362609424495142e-01 2.802208404345406158e-03
3.707452327947895355e+03 5.230675602503513932e-01 2.541987050230360562e-03
3.711159780275844696e+03 5.102922923974314573e-01 2.503660290399002588e-03
3.714870940056121526e+03 4.977528872243743852e-01 2.601336553126172568e-03
3.718585810996179134e+03 4.861436736211088849e-01 2.528969054892981922e-03
3.722304396807176545e+03 4.736438824189943553e-01 2.683633306622293900e-03
3.726026701203984885e+03 4.595686721116945539e-01 3.053109364938435405e-03
3.729752727905190113e+03 4.467289800363389296e-01 2.713007831096249465e-03
3.733482480633096657e+03 4.358486948099821179e-01 2.306483630196724463e-03
3.737215963113731050e+03 4.292026076792201938e-01 2.465135696551500749e-03
3.740953179076846027e+03 4.251021855790690362e-01 2.787366039729241053e-03
3.744694132255923705e+03 4.223782721066901558e-01 2.984092636524842638e-03
3.748438826388181042e+03 4.221961763406058554e-01 3.011851242280811150e-03
3.752187265214570289e+03 4.230779697187600497e-01 2.844353037651142606e-03
3.755939452479786269e+03 4.241886902248856450e-01 2.840644237577071105e-03
3.759695391932267285e+03 4.261840170139091777e-01 2.905702669717799037e-03
3.763455087324201031e+03 4.290800889915042937e-01 3.018917141258272308e-03
3.767218542411526414e+03 4.321458034910657942e-01 2.997613163402461367e-03
3.770985760953939007e+03 4.377346077300857119e-01 3.170828117920541922e-03
3.774756746714894234e+03 4.422908925490492971e-01 3.349788188369713302e-03
3.778531503461610555e+03 4.448034873607507045e-01 3.365537501245640523e-03
3.782310034965073100e+03 4.435334051282383006e-01 3.381844657549072652e-03
3.786092345000039586e+03 4.418045252483538410e-01 3.410947041677659265e-03
3.789878437345040766e+03 4.370388608438778855e-01 3.689371595281728308e-03
3.793668315782387253e+03 4.329124105988833571e-01 3.882564882129844672e-03
3.797461984098170888e+03 4.265901890250180517e-01 4.130876341591429961e-03
3.801259446082270188e+03 4.219013302231349738e-01 4.481317307320321387e-03
3.805060705528353537e+03 4.162782318137402959e-01 4.495847186186787206e-03
3.808865766233883278e+03 4.114894319535692957e-01 3.978788063402994256e-03
3.812674632000118436e+03 4.102439007801715332e-01 3.403161432741731805e-03
3.816487306632119726e+03 4.127639909722263800e-01 3.465414437160361290e-03
3.820303793938753188e+03 4.199568831274620440e-01 3.914115688634708413e-03
3.824124097732693372e+03 4.299159578084173483e-01 3.705352654247792525e-03
3.827948221830427428e+03 4.429407531591205704e-01 3.129666948141502075e-03
3.831776170052258749e+03 4.584071172873273592e-01 2.314264500374160413e-03
3.835607946222312421e+03 4.731523717945969598e-01 2.742116949025340689e-03
3.839443554168536139e+03 4.883700407464092730e-01 3.380462781044697978e-03
3.843282997722705659e+03 5.065311560061749319e-01 3.246020089248026139e-03
3.847126280720429804e+03 5.251617930980765347e-01 2.954209234908639157e-03
3.850973407001151372e+03 5.462868137468935847e-01 3.293166725609502320e-03
3.854824380408153957e+03 5.678327716505010558e-01 3.665871957902785538e-03
3.858679204788563311e+03 5.880557122993634867e-01 3.577509768822771490e-03
3.862537883993353262e+03 6.071934449444745807e-01 3.606409585924238038e-03
3.866400421877347981e+03 6.275401249907078816e-01 3.369456301664043845e-03
3.870266822299226533e+03 6.461278434921976510e-01 3.522415590195897457e-03
3.874137089121526969e+03 6.656302126248233586e-01 3.577625082403559746e-03
3.878011226210649966e+03 6.851580278481259612e-01 3.617562090591980046e-03
3.881889237436861549e+03 7.046741651399114348e-01 3.301690352026437434e-03
3.885771126674299921e+03 7.254937177807453397e-01 2.609028110184844970e-03
3.889656897800975457e+03 7.487331464522062330e-01 2.660339901372198515e-03
3.893546554698777527e+03 7.739586545594101530e-01 2.822338294762391335e-03
3.897440101253477678e+03 8.000034886413991408e-01 2.639240854896082039e-03
3.901337541354732366e+03 8.255219518974394877e-01 2.248548637445812667e-03
3.905238878896088409e+03 8.499219552977976821e-01 1.383061747717732014e-03
3.909144117774985716e+03 8.695311483960227461e-01 1.364698156047343576e-03
3.913053261892762293e+03 8.853530779832804454e-01 1.311106340580260859e-03
3.916966315154656058e+03 8.984304944925601832e-01 1.363586391530280384e-03
3.920883281469812118e+03 9.060146802970354685e-01 1.422454932301477201e-03
3.924804164751283224e+03 9.099752122046188552e-01 1.618591121117554090e-03
3.928728968916035683e+03 9.108256025746072071e-01 1.842002536432942039e-03
3.932657697884953450e+03 9.078698013024787405e-01 1.887217482562492631e-03
3.936590355582839493e+03 9.028001894412764905e-01 1.613826898139257690e-03
3.940526945938423523e+03 8.964002635310994727e-01 1.404105027504409233e-03
3.944467472884363360e+03 8.892651467226008188e-01 1.445808378788944904e-03
3.948411940357249023e+03 8.814351436549743291e-01 1.432904925734403666e-03
3.952360352297607733e+03 8.734655952585571592e-01 1.426310809794451191e-03
3.956312712649906643e+03 8.657848120983239193e-01 1.417576389480414319e-03
3.960269025362557841e+03 8.592174542870268938e-01 1.360864285968127040e-03
3.964229294387921527e+03 8.534906147749689032e-01 1.618794630657562853e-03
3.968193523682310570e+03 8.498132002251804762e-01 1.653454546521513106e-03
3.972161717205994591e+03 8.477911134059676890e-01 1.694973004267752393e-03
3.976133878923201792e+03 8.481644458256424324e-01 1.685812341539546502e-03
3.980110012802126221e+03 8.529473124548387908e-01 1.757335161783828582e-03
3.984090122814929600e+03 8.603096976353880043e-01 2.026565257449562674e-03
3.988074212937745870e+03 8.710154742636084801e-01 2.276080385211352169e-03
3.992062287150684824e+03 8.835847754063669290e-01 1.919461085040327121e-03
3.996054349437837118e+03 8.962108536057639130e-01 1.722274082014222654e-03
4.000050403787276082e+03 9.090844622036340361e-01 1.658323274150062419e-03
4.004050454191064546e+03 9.219492210809079324e-01 1.633383803798036564e-03
4.008054504645257111e+03 9.339081857213861193e-01 1.621356660956885373e-03
4.012062559149903791e+03 9.449596072775630073e-01 1.611055654288032083e-03
4.016074621709055009e+03 9.546930988363850901e-01 1.653890181468756345e-03
4.020090696330765240e+03 9.623914878592316757e-01 1.668507323262224343e-03
4.024110787027097558e+03 9.673552462723258305e-01 1.621261958894606005e-03
4.028134897814125907e+03 9.709297450942432350e-01 1.753209164925805582e-03
4.032163032711941469e+03 9.714327758786216460e-01 1.657798397711415491e-03
4.036195195744654484e+03 9.692547692447321950e-01 1.632959879987835872e-03
4.040231390940400615e+03 9.641667738485933947e-01 1.753878245027842798e-03
4.044271622331342314e+03 9.570504685631618935e-01 1.852516503630016612e-03
4.048315893953675186e+03 9.465430438256270396e-01 2.011210259157759309e-03
4.052364209847629809e+03 9.351089180269843704e-01 1.201111115764231466e-03
4.056416574057479011e+03 9.241843598098636869e-01 1.710317324456987146e-03
4.060472990631537868e+03 9.113807797285249368e-01 1.698667647830081305e-03
4.064533463622170530e+03 8.980744609130785205e-01 1.623564646998313732e-03
4.068597997085794304e+03 8.840829576411799451e-01 1.558611555782900716e-03
4.072666595082881486e+03 8.686139910247976381e-01 1.524172836311452235e-03
4.076739261677965715e+03 8.521794951870585999e-01 1.506937699806961154e-03
4.080816000939644709e+03 8.345013261804605786e-01 1.542542143978607944e-03
4.084896816940585722e+03 8.160134783942066816e-01 1.538278933170460303e-03
4.088981713757527814e+03 7.969966319231105434e-01 1.519071283859757407e-03
4.093070695471286854e+03 7.772200265119516560e-01 1.554857172544466763e-03
4.097163766166759160e+03 7.575506195235123252e-01 1.470193997985901882e-03
4.101260929932927866e+03 7.384063886570153556e-01 1.563726624638600484e-03
4.105362190862862008e+03 7.200214663201975895e-01 1.463496178211548060e-03
4.109467553053726078e+03 7.015340489288505177e-01 1.453446968526478800e-03
4.113577020606780934e+03 6.834778267407033425e-01 1.457923916772629240e-03
4.117690597627389252e+03 6.657814022996479952e-01 1.873388750323451077e-03
4.121808288225018259e+03 6.495617892301591700e-01 1.981112748276499073e-03
4.125930096513244280e+03 6.347066906083129734e-01 1.485170762928121353e-03
4.130056026609759101e+03 6.235247784328200593e-01 1.664168136059858850e-03
4.134186082636369974e+03 6.143730039055668168e-01 1.690358837276516660e-03
4.138320268719007800e+03 6.057029646904000808e-01 1.612918707355117049e-03
4.142458588987728035e+03 5.996443509349692613e-01 1.823392826519495058e-03
4.146601047576717065e+03 5.948964160100578269e-01 1.767889573427844623e-03
4.150747648624294925e+03 5.907402999144351075e-01 1.644655996245117076e-03
4.154898396272920763e+03 5.870632396008106380e-01 1.479543574256001739e-03
4.159053294669195566e+03 5.833234542931318156e-01 1.473069546134996412e-03
4.163212347963865795e+03 5.801676571825417073e-01 1.492952965350642820e-03
4.167375560311830668e+03 5.757907517216480642e-01 1.577360178743574719e-03
4.171542935872143971e+03 5.709219695947019835e-01 1.332249988316245876e-03
4.175714478808017702e+03 5.669958085576690676e-01 1.453648000555421253e-03
4.179890193286827525e+03 5.632333847571369123e-01 1.452007596572020467e-03
4.184070083480115500e+03 5.593977027485503850e-01 1.471321835299574561e-03
4.188254153563597356e+03 5.563953979766528279e-01 1.568758293361156506e-03
4.192442407717161586e+03 5.536900045759426403e-01 2.067293489639524667e-03
4.196634850124880359e+03 5.522678288194844409e-01 2.015485922794638465e-03
4.200831484975006788e+03 5.533703706906869524e-01 1.760895231424885500e-03
4.205032316459983122e+03 5.572050110127702016e-01 1.572993879490303679e-03
4.209237348776444378e+03 5.642978813241193992e-01 1.855688966201970731e-03
4.213446586125221984e+03 5.728274588614158391e-01 2.043939985906056273e-03
4.217660032711349231e+03 5.826434938107790673e-01 2.314220285763747380e-03
4.221877692744061278e+03 5.939926716689003516e-01 2.257264365297994690e-03
4.226099570436806971e+03 6.039091609364923841e-01 1.868864070285732124e-03
4.230325670007245208e+03 6.126190549534716867e-01 1.601267233994608814e-03
4.234555995677254032e+03 6.192694287192933578e-01 1.591959768712811500e-03
4.238790551672932452e+03 6.241948323214313588e-01 1.593984968062503753e-03
4.243029342224606808e+03 6.269196567280728161e-01 1.734272059455074788e-03
4.247272371566832589e+03 6.267537859026034441e-01 1.327891680495141237e-03
4.251519643938400804e+03 6.265016611061561269e-01 1.014580823763282583e-03
4.255771163582340705e+03 6.257938252244988897e-01 1.033576136564593644e-03
4.260026934745924336e+03 6.242622579347936185e-01 1.031647192495097455e-03
4.264286961680671993e+03 6.226566937907510590e-01 1.015096117627742236e-03
4.268551248642354039e+03 6.211344300433212506e-01 9.475820598484768504e-04
4.272819799890998183e+03 6.187009273510605256e-01 1.176753199077405169e-03
4.277092619690890388e+03 6.166883139165680872e-01 1.498939335592074660e-03
4.281369712310583054e+03 6.158405931721288029e-01 1.506355937810272818e-03
4.285651082022895025e+03 6.164933206317834147e-01 1.374152848267180902e-03
4.289936733104918858e+03 6.187682380965477957e-01 1.393666182650912626e-03
4.294226669838025373e+03 6.222655233563137989e-01 1.610947152265972994e-03
4.298520896507864563e+03 6.271569133609011804e-01 1.931667080236218470e-03
4.302819417404373780e+03 6.325729135087387878e-01 1.802378797455556330e-03
4.307122236821779552e+03 6.369349230293641639e-01 1.727685320243510817e-03
4.311429359058603040e+03 6.409522604568294035e-01 1.638042104309957950e-03
4.315740788417662770e+03 6.442339857103794865e-01 1.917583290543753167e-03
4.320056529206081905e+03 6.476092037438225812e-01 2.007929755793609432e-03
4.324376585735290064e+03 6.503193945308762824e-01 1.879698621955202577e-03
4.328700962321026054e+03 6.527822238491317597e-01 1.555084470715290511e-03
4.333029663283348782e+03 6.559947507672800882e-01 1.570083721019220569e-03
4.337362692946633615e+03 6.587112718537866396e-01 1.497459095385077904e-03
4.341700055639581478e+03 6.616309765194263726e-01 1.512438075694923483e-03
4.346041755695222491e+03 6.653013470605577684e-01 1.505171188904208058e-03
4.350387797450919606e+03 6.685481696345036973e-01 1.024084501584122302e-03
4.354738185248371337e+03 6.702792321863184632e-01 9.767476414791356840e-04
4.359092923433621763e+03 6.708292772063189080e-01 1.005534160342884138e-03
4.363452016357056891e+03 6.701654653673059236e-01 1.028138300699317715e-03
4.367815468373414660e+03 6.686528971389118503e-01 1.010663724518371265e-03
4.372183283841789489e+03 6.657711471879613763e-01 9.798883302651279024e-04
4.376555467125633186e+03 6.620020009793363691e-01 1.058899652422186886e-03
4.380932022592760404e+03 6.571547911435141609e-01 9.979548324128546897e-04
4.385312954615354101e+03 6.517289204157117322e-01 8.745696743198642237e-04
4.389698267569970994e+03 6.451720668189383501e-01 8.978013503713962217e-04
4.394087965837542470e+03 6.375769683308207814e-01 1.124965575350926096e-03
4.398482053803381859e+03 6.297678663792819487e-01 9.765457890017234348e-04
4.402880535857186260e+03 6.226722899368619668e-01 9.344093038107638503e-04
4.407283416393044718e+03 6.159061081909014135e-01 8.876439522366826517e-04
4.411690699809440048e+03 6.101672696576641020e-01 8.739195904485886962e-04
4.416102390509250654e+03 6.055620390557807653e-01 8.664420795337168888e-04
4.420518492899761441e+03 6.022699403321496447e-01 8.569469026578384807e-04
4.424939011392662906e+03 6.006453839723853161e-01 8.424026127800477489e-04
4.429363950404056595e+03 6.012684225365619861e-01 6.843887431440696858e-04
4.433793314354462382e+03 6.031933560442762632e-01 6.864582046274545542e-04
4.438227107668818462e+03 6.069737491355990944e-01 6.817598939995574234e-04
4.442665334776488635e+03 6.123163540907171631e-01 7.294153037893829402e-04
4.447108000111265937e+03 6.197076491532533815e-01 6.216309945170033326e-04
4.451555108111379013e+03 6.300986065064043684e-01 6.620222542349356873e-04
4.456006663219492111e+03 6.427968229807619061e-01 7.061241180887059456e-04
4.460462669882713271e+03 6.574871935077126750e-01 7.137401882478314197e-04
4.464923132552597053e+03 6.742718150123592213e-01 7.025093454199006146e-04
4.469388055685150903e+03 6.934658214008280197e-01 6.866109867048645569e-04
4.473857443740837880e+03 7.142945410920450433e-01 7.243070707997665376e-04
4.478331301184580298e+03 7.369698191545458466e-01 6.077828027882258314e-04
4.482809632485766087e+03 7.618686096107298855e-01 9.086894953597785462e-04
4.487292442118253348e+03 7.878593216842654234e-01 1.015826764310005749e-03
4.491779734560373072e+03 8.139790149697923027e-01 1.033963008566097857e-03
4.496271514294934605e+03 8.403009035317888786e-01 1.009281065178001561e-03
