# starting wavelength: 3457.130
# ending wavelength: 7360.260
# wav flux eflux
3.460383474435829612e+03 6.030006745461390372e-01 3.755674936424489851e-02
3.463843857910266706e+03 6.013548992395424397e-01 3.008003973677422088e-02
3.467307701768178049e+03 5.981058921142963225e-01 2.247498183926739321e-02
3.470775009469947236e+03 5.962072297416977085e-01 1.750076602230797931e-02
3.474245784479418489e+03 5.930140279884960064e-01 1.379819629037603093e-02
3.477720030263898934e+03 5.895214362133505137e-01 1.139754935460379412e-02
3.481197750294164052e+03 5.839175467632713445e-01 9.239619911108937558e-03
3.484678948044459503e+03 5.787317711111800156e-01 7.536135247837902340e-03
3.488163626992504760e+03 5.742401437203531467e-01 6.384179470936108929e-03
3.491651790619498570e+03 5.720240851140632188e-01 6.068321679148385751e-03
3.495143442410119405e+03 5.725945209223822774e-01 5.998246104845643065e-03
3.498638585852530468e+03 5.757886150127066172e-01 6.167315197794091472e-03
3.502137224438384237e+03 5.802108689377687423e-01 6.134594029420068970e-03
3.505639361662823831e+03 5.844651271792857816e-01 5.885169644593065547e-03
3.509145001024487556e+03 5.883385079940708362e-01 5.635694169120675050e-03
3.512654146025513455e+03 5.906457644310850741e-01 5.371755690071653225e-03
3.516166800171540217e+03 5.927558172200136921e-01 5.170964215757196947e-03
3.519682966971712631e+03 5.929948150092024806e-01 5.209565580621114758e-03
3.523202649938685681e+03 5.932314622351751998e-01 5.203979918538490131e-03
3.526725852588625457e+03 5.939368824732983443e-01 5.324515259171263594e-03
3.530252578441215064e+03 5.940529286931995889e-01 5.265644280550753516e-03
3.533782831019657806e+03 5.932598764553715931e-01 5.253121631789837813e-03
3.537316613850678550e+03 5.914434350843349453e-01 5.383502871409828923e-03
3.540853930464530094e+03 5.898580519829701441e-01 5.577095494711539758e-03
3.544394784394995895e+03 5.880250771217342409e-01 5.588890587442032522e-03
3.547939179179392340e+03 5.851908734545164803e-01 5.648638352605021666e-03
3.551487118358572843e+03 5.826627206573832263e-01 5.612143965877408429e-03
3.555038605476932389e+03 5.787174816523705800e-01 5.490446168116150730e-03
3.558593644082410719e+03 5.738763026336699546e-01 4.455691666823484789e-03
3.562152237726494150e+03 5.713433117362456404e-01 4.276306024567331360e-03
3.565714389964221937e+03 5.684040291681800028e-01 4.377354330979867612e-03
3.569280104354187188e+03 5.679620532233695673e-01 4.714348394979905703e-03
3.572849384458542772e+03 5.683058929114452873e-01 4.644432042977640965e-03
3.576422233843002232e+03 5.675208651224455947e-01 4.697818574303307473e-03
3.579998656076846601e+03 5.695162050329986014e-01 4.605981757489872354e-03
3.583578654732924406e+03 5.701406822922551187e-01 4.921958421674753857e-03
3.587162233387658489e+03 5.724968894052351320e-01 5.068583211630443841e-03
3.590749395621047370e+03 5.771911691715034820e-01 4.977246380998960086e-03
3.594340145016669794e+03 5.811594049814600149e-01 5.053242842368576258e-03
3.597934485161687462e+03 5.857726470236023220e-01 4.954679098436054474e-03
3.601532419646850485e+03 5.913209827002297025e-01 4.541011633052518572e-03
3.605133952066498296e+03 5.967048322788862658e-01 4.356400299571413538e-03
3.608739086018566013e+03 6.025026024932352842e-01 3.827158077248899327e-03
3.612347825104585809e+03 6.120482715657777906e-01 4.371745653757934738e-03
3.615960172929691907e+03 6.216285390511676612e-01 4.648191194972031877e-03
3.619576133102622407e+03 6.325893773137205578e-01 4.598578939957690542e-03
3.623195709235726554e+03 6.423663648855340025e-01 4.510172888420174026e-03
3.626818904944963379e+03 6.520047973479043968e-01 4.385540690031917294e-03
3.630445723849909427e+03 6.597609006341005333e-01 4.273298599768878686e-03
3.634076169573760581e+03 6.670632872636801380e-01 4.101156711985644819e-03
3.637710245743335690e+03 6.704858022716331245e-01 4.068901768325238269e-03
3.641347955989080219e+03 6.744755373741438964e-01 4.096070737857770809e-03
3.644989303945070333e+03 6.743581072509468033e-01 3.891241825252291561e-03
3.648634293249016537e+03 6.706221961656833042e-01 3.870083158290626556e-03
3.652282927542266862e+03 6.628071792869961731e-01 3.888781328717267390e-03
3.655935210469810499e+03 6.518364814657919837e-01 4.084958501309860456e-03
3.659591145680281443e+03 6.359667423753762039e-01 4.431196573563040905e-03
3.663250736825963031e+03 6.201053891468585322e-01 4.300976908730028483e-03
3.666913987562790226e+03 6.017712335407496838e-01 3.969032323739819616e-03
3.670580901550354156e+03 5.836274350670159761e-01 4.267942273015282520e-03
3.674251482451905758e+03 5.672221591869305302e-01 4.505046576710710834e-03
3.677925733934358959e+03 5.511547602744045760e-01 4.720993622052127407e-03
3.681603659668294313e+03 5.362643892899235931e-01 4.664354701210331015e-03
3.685285263327964003e+03 5.232916883824256793e-01 4.275383139622008187e-03
3.688970548591293209e+03 5.133517653264132452e-01 4.177575464996088721e-03
3.692659519139885560e+03 5.043562477570380231e-01 3.673266184330843676e-03
3.696352178659026777e+03 5.004536695192097762e-01 3.472113283101394519e-03
3.700048530837686940e+03 5.015861029023293005e-01 3.337722425633088234e-03
3.703748579368525952e+03 5.077143272581144950e-01 3.647546053431944407e-03
3.707452327947895355e+03 5.193528839886384363e-01 4.562124388865039862e-03
3.711159780275844696e+03 5.316191478630388767e-01 4.841563615693323698e-03
3.714870940056121526e+03 5.469165701954645797e-01 4.144415209899933623e-03
3.718585810996179134e+03 5.621695740486781778e-01 4.374174996652662080e-03
3.722304396807176545e+03 5.739163647301753768e-01 4.293642606830851485e-03
3.726026701203984885e+03 5.854394699128956381e-01 4.402825041342225618e-03
3.729752727905190113e+03 5.933042790096643149e-01 4.415921292224815262e-03
3.733482480633096657e+03 5.966328470722073174e-01 4.150808961360542143e-03
3.737215963113731050e+03 5.926131186135403794e-01 4.085081251448469640e-03
3.740953179076846027e+03 5.849788651396689021e-01 2.947465721960348516e-03
3.744694132255923705e+03 5.688235554977777442e-01 3.755298856190103854e-03
3.748438826388181042e+03 5.470899956832743216e-01 4.550723596738213972e-03
3.752187265214570289e+03 5.198653556210928173e-01 5.446196620873303661e-03
3.755939452479786269e+03 4.913388608431351612e-01 5.157344538552592617e-03
3.759695391932267285e+03 4.631357905706883216e-01 5.339156508937133172e-03
3.763455087324201031e+03 4.364815622240916237e-01 4.714200941188836924e-03
3.767218542411526414e+03 4.106605382823177441e-01 3.634538191496362262e-03
3.770985760953939007e+03 3.904373551839525613e-01 2.938549627223174376e-03
3.774756746714894234e+03 3.762319539835048965e-01 2.895793128060018991e-03
3.778531503461610555e+03 3.693086798472943744e-01 3.048645519963203571e-03
3.782310034965073100e+03 3.671036790787012838e-01 3.017086363910128580e-03
3.786092345000039586e+03 3.720824914995880528e-01 2.900178986955296787e-03
3.789878437345040766e+03 3.846222252624373894e-01 3.847380855299988890e-03
3.793668315782387253e+03 4.014562294825053668e-01 3.868873119422128973e-03
3.797461984098170888e+03 4.212205196225779491e-01 2.710559217692751384e-03
3.801259446082270188e+03 4.405780299051980098e-01 2.812640546149805434e-03
3.805060705528353537e+03 4.604213571331971511e-01 2.939664573818925788e-03
3.808865766233883278e+03 4.819742384087544185e-01 2.875011372948272758e-03
3.812674632000118436e+03 5.031883348964608649e-01 3.033503339966306736e-03
3.816487306632119726e+03 5.239736048275310809e-01 3.051033170626277300e-03
3.820303793938753188e+03 5.438638941843629837e-01 3.046835056291147432e-03
3.824124097732693372e+03 5.629835239224962873e-01 2.996419934213954191e-03
3.827948221830427428e+03 5.797414378293724857e-01 2.975318231127859273e-03
3.831776170052258749e+03 5.954445288944745229e-01 2.980607358480563511e-03
3.835607946222312421e+03 6.083668369208086180e-01 2.899491251168085596e-03
3.839443554168536139e+03 6.216210127898613713e-01 2.906071213533875132e-03
3.843282997722705659e+03 6.342925564660669702e-01 3.076199467175342629e-03
3.847126280720429804e+03 6.464733327134992713e-01 3.213065649533999261e-03
3.850973407001151372e+03 6.600280175195244459e-01 3.218847408694846569e-03
3.854824380408153957e+03 6.740128381799252999e-01 3.216437730556979870e-03
3.858679204788563311e+03 6.888913216448544485e-01 3.245649041742844614e-03
3.862537883993353262e+03 7.051631621632769020e-01 2.599962724723571886e-03
3.866400421877347981e+03 7.236414419498986561e-01 2.039764234563961037e-03
3.870266822299226533e+03 7.486782941633486343e-01 1.673135638753682399e-03
3.874137089121526969e+03 7.762937883148187668e-01 1.953771455546430853e-03
3.878011226210649966e+03 8.034897076037729180e-01 2.018880892058082157e-03
3.881889237436861549e+03 8.313918366748245248e-01 1.933121803755700335e-03
3.885771126674299921e+03 8.609910576768056156e-01 2.227636399539398380e-03
3.889656897800975457e+03 8.902428518291024551e-01 3.215517380009765176e-03
3.893546554698777527e+03 9.177678841835373857e-01 3.806948588948159008e-03
3.897440101253477678e+03 9.390051701854239541e-01 3.586923344498595123e-03
3.901337541354732366e+03 9.562751467151228146e-01 3.324273301602299977e-03
3.905238878896088409e+03 9.676384248260869736e-01 3.950140899090803098e-03
3.909144117774985716e+03 9.752577895732662538e-01 4.700608334662624219e-03
3.913053261892762293e+03 9.797445967396195554e-01 4.765966852359285535e-03
3.916966315154656058e+03 9.827351749639353651e-01 4.436896044653259458e-03
3.920883281469812118e+03 9.848111147106883845e-01 3.875431747381927108e-03
3.924804164751283224e+03 9.886266816792581569e-01 3.619689907956659229e-03
3.928728968916035683e+03 9.939639574632200825e-01 3.607148119944974651e-03
3.932657697884953450e+03 1.000209070890979435e+00 3.608039368837527312e-03
3.936590355582839493e+03 1.009339040871775062e+00 4.010636057627090315e-03
3.940526945938423523e+03 1.017191926795851797e+00 3.949857301679376119e-03
3.944467472884363360e+03 1.025943354235233196e+00 3.277576796194088451e-03
3.948411940357249023e+03 1.033601801477296966e+00 2.478984376889177901e-03
3.952360352297607733e+03 1.033969922760602067e+00 2.481539460369335155e-03
3.956312712649906643e+03 1.030233028245078675e+00 2.567019301409771519e-03
3.960269025362557841e+03 1.023194247963275405e+00 2.599381006930043779e-03
3.964229294387921527e+03 1.014719396609326862e+00 2.606496793289781334e-03
3.968193523682310570e+03 1.004611688719406759e+00 2.617372684392842066e-03
3.972161717205994591e+03 9.908651919827889953e-01 3.260583821750985892e-03
3.976133878923201792e+03 9.787254912194035539e-01 3.564555431603066288e-03
3.980110012802126221e+03 9.665776710139956096e-01 3.083898743920312786e-03
3.984090122814929600e+03 9.588924529843174671e-01 3.083465674115809692e-03
3.988074212937745870e+03 9.536018170430854424e-01 3.183038559929749281e-03
3.992062287150684824e+03 9.512447662698896300e-01 3.370375758915790561e-03
3.996054349437837118e+03 9.502344677147908092e-01 3.338331334114643442e-03
4.000050403787276082e+03 9.509647549730708693e-01 3.114935102591301005e-03
4.004050454191064546e+03 9.529061269161938075e-01 2.919128435911402895e-03
4.008054504645257111e+03 9.554280207968468552e-01 3.597440563101347594e-03
4.012062559149903791e+03 9.569587544108445476e-01 3.661017973400920548e-03
4.016074621709055009e+03 9.532872653008622743e-01 3.649066619043140388e-03
4.020090696330765240e+03 9.467633770804287918e-01 4.271520925651656891e-03
4.024110787027097558e+03 9.397715106264942220e-01 4.819912382218564939e-03
4.028134897814125907e+03 9.311625609507163670e-01 4.698375579037772018e-03
4.032163032711941469e+03 9.227186687059468762e-01 4.351899291152929242e-03
4.036195195744654484e+03 9.149311127130870247e-01 4.167694592703392875e-03
4.040231390940400615e+03 9.094642305069449151e-01 4.526205229337784165e-03
4.044271622331342314e+03 9.027756716421317940e-01 4.472128838353043798e-03
4.048315893953675186e+03 8.948261379825451778e-01 4.406835999756495911e-03
4.052364209847629809e+03 8.881104958080495715e-01 4.767968857483038600e-03
4.056416574057479011e+03 8.805963549981572491e-01 5.368327939351203587e-03
4.060472990631537868e+03 8.726052091049680826e-01 4.552999119914116245e-03
4.064533463622170530e+03 8.580004208283723566e-01 4.973189716533993852e-03
4.068597997085794304e+03 8.414850980161889815e-01 5.865689249219440543e-03
4.072666595082881486e+03 8.227253918554646717e-01 6.393150869242521933e-03
4.076739261677965715e+03 8.039942647127461539e-01 5.595036292250417723e-03
4.080816000939644709e+03 7.888726517430344476e-01 4.395084365443128506e-03
4.084896816940585722e+03 7.812271145865258282e-01 5.360343005164614448e-03
4.088981713757527814e+03 7.766945708628625322e-01 5.870269230064335646e-03
4.093070695471286854e+03 7.723506798942698648e-01 5.766748381945347238e-03
4.097163766166759160e+03 7.689598257005220150e-01 5.863272236282665410e-03
4.101260929932927866e+03 7.698800902172568961e-01 5.862737674384138620e-03
4.105362190862862008e+03 7.734301103900661500e-01 5.875570204373660455e-03
4.109467553053726078e+03 7.768059791965090666e-01 5.646273961207605961e-03
4.113577020606780934e+03 7.787751173576146213e-01 5.540877362843352194e-03
4.117690597627389252e+03 7.800623085498596954e-01 5.581069933667049190e-03
4.121808288225018259e+03 7.778057890880559766e-01 5.314162553398306225e-03
4.125930096513244280e+03 7.761390799692886588e-01 4.575437321967140356e-03
4.130056026609759101e+03 7.786109584313145593e-01 4.610194780898060375e-03
4.134186082636369974e+03 7.840590108139166015e-01 4.644100738352288996e-03
4.138320268719007800e+03 7.903003685227972808e-01 4.162765355680327767e-03
4.142458588987728035e+03 7.944516874672538087e-01 4.251199636200487901e-03
4.146601047576717065e+03 7.997079111216903735e-01 4.340946870885228556e-03
4.150747648624294925e+03 8.054317129387679186e-01 4.191448549221906197e-03
4.154898396272920763e+03 8.120226354508218725e-01 4.150146335324673801e-03
4.159053294669195566e+03 8.197578601052388780e-01 4.491841425883919166e-03
4.163212347963865795e+03 8.296304382883578077e-01 4.040857022890582788e-03
4.167375560311830668e+03 8.358212567407806715e-01 3.293565940882865143e-03
4.171542935872143971e+03 8.368426092408181027e-01 3.394825513599129124e-03
4.175714478808017702e+03 8.342040620220901870e-01 3.573600733036299756e-03
4.179890193286827525e+03 8.326397162545685626e-01 3.646272254697966592e-03
4.184070083480115500e+03 8.313192878780317763e-01 3.651195059995686679e-03
4.188254153563597356e+03 8.295707225955581965e-01 3.650158906802359465e-03
4.192442407717161586e+03 8.272016519314401295e-01 3.783281957028012711e-03
4.196634850124880359e+03 8.257919621507109342e-01 3.706024999915269111e-03
4.200831484975006788e+03 8.267251609398028611e-01 3.025218399832762476e-03
4.205032316459983122e+03 8.303819230444432486e-01 2.710455673906619380e-03
4.209237348776444378e+03 8.390578904135652660e-01 2.872893460972207949e-03
4.213446586125221984e+03 8.500983193352313894e-01 2.484632462981082798e-03
4.217660032711349231e+03 8.612419485521890516e-01 2.121667613024941831e-03
4.221877692744061278e+03 8.724441877957832547e-01 2.262133151905135978e-03
4.226099570436806971e+03 8.812930731167848419e-01 2.281044297041765617e-03
4.230325670007245208e+03 8.883170962804706194e-01 2.556146487584278100e-03
4.234555995677254032e+03 8.923332913833210700e-01 2.593133681621286393e-03
4.238790551672932452e+03 8.920314916993499210e-01 2.691840998601957666e-03
4.243029342224606808e+03 8.894739060719472068e-01 2.592362832807746341e-03
4.247272371566832589e+03 8.829769039443654544e-01 2.627504744806125753e-03
4.251519643938400804e+03 8.726696328010147274e-01 2.575876243735661809e-03
4.255771163582340705e+03 8.583535543308304927e-01 2.204336970981456145e-03
4.260026934745924336e+03 8.446732857190430988e-01 2.207239750447715851e-03
4.264286961680671993e+03 8.301858462772750968e-01 2.424588295866158053e-03
4.268551248642354039e+03 8.148483520966740556e-01 2.542123628338771504e-03
4.272819799890998183e+03 7.967987128848710299e-01 2.620231128226871604e-03
4.277092619690890388e+03 7.786793510527221240e-01 2.729142553839831141e-03
4.281369712310583054e+03 7.620047180673984455e-01 2.785639722622784437e-03
4.285651082022895025e+03 7.456753814880474618e-01 3.019307101102791224e-03
4.289936733104918858e+03 7.318874674112277878e-01 3.221000583470726500e-03
4.294226669838025373e+03 7.204864073469040564e-01 3.072449646545206362e-03
4.298520896507864563e+03 7.124956205208413662e-01 2.458333276287470812e-03
4.302819417404373780e+03 7.100954646257766623e-01 2.976935898926848321e-03
4.307122236821779552e+03 7.101459659758881937e-01 3.145796889704367653e-03
4.311429359058603040e+03 7.142568906005110074e-01 2.957406244869605592e-03
4.315740788417662770e+03 7.204187467530162037e-01 2.615328997536718689e-03
4.320056529206081905e+03 7.265876710631442581e-01 2.599233899051781212e-03
4.324376585735290064e+03 7.332179957937845494e-01 2.279492307056737825e-03
4.328700962321026054e+03 7.384631378743365948e-01 1.797062782154920570e-03
4.333029663283348782e+03 7.406872528797721067e-01 1.795772501110490943e-03
4.337362692946633615e+03 7.394826311443087885e-01 1.356179504734946872e-03
4.341700055639581478e+03 7.373263488832586532e-01 1.398803018055759908e-03
4.346041755695222491e+03 7.325550070458459739e-01 1.380925362526243478e-03
4.350387797450919606e+03 7.254152825303761265e-01 1.682238172102894398e-03
4.354738185248371337e+03 7.154454427802376948e-01 2.454783777218496905e-03
4.359092923433621763e+03 7.064722719052790589e-01 2.528361822261575038e-03
4.363452016357056891e+03 6.988161735797108198e-01 2.465900091826284894e-03
4.367815468373414660e+03 6.915065338695204344e-01 2.331091565529685126e-03
4.372183283841789489e+03 6.858717100395695931e-01 2.380298013635854040e-03
4.376555467125633186e+03 6.813168725627530842e-01 2.355574056151189203e-03
4.380932022592760404e+03 6.788289998946580583e-01 2.344340335066924606e-03
4.385312954615354101e+03 6.795245537664906799e-01 2.030764665749616466e-03
4.389698267569970994e+03 6.817251442032024045e-01 2.010260025280331039e-03
4.394087965837542470e+03 6.865474182693845906e-01 2.229048075920424428e-03
4.398482053803381859e+03 6.921533893310928276e-01 2.187260851685539700e-03
4.402880535857186260e+03 6.989986911229500999e-01 2.194179110735971269e-03
4.407283416393044718e+03 7.070265685463794636e-01 2.295149970728718996e-03
4.411690699809440048e+03 7.169292865981672369e-01 2.180315831932741824e-03
4.416102390509250654e+03 7.296591588501114556e-01 2.780843780994411794e-03
4.420518492899761441e+03 7.432585537452779390e-01 2.749202922800989771e-03
4.424939011392662906e+03 7.585006532954150504e-01 2.703629537023968625e-03
4.429363950404056595e+03 7.756007027748980098e-01 2.966802571564802586e-03
4.433793314354462382e+03 7.937738978376300825e-01 3.627602490810784980e-03
4.438227107668818462e+03 8.152643824315435328e-01 3.100323170401070739e-03
4.442665334776488635e+03 8.408554569880060114e-01 2.996299051419947304e-03
4.447108000111265937e+03 8.696340382606517760e-01 3.015811808688239823e-03
4.451555108111379013e+03 9.011052543128299508e-01 3.095556691351111084e-03
4.456006663219492111e+03 9.354753289699652141e-01 2.998003515902259233e-03
4.460462669882713271e+03 9.708547943412781933e-01 3.013053164386926726e-03
4.464923132552597053e+03 1.006346127149261083e+00 3.152405902453192955e-03
4.469388055685150903e+03 1.041103350084765067e+00 3.388651635443456003e-03
4.473857443740837880e+03 1.073625382983434129e+00 3.167696585673381981e-03
4.478331301184580298e+03 1.102843791279314756e+00 2.658554232203535952e-03
4.482809632485766087e+03 1.127135368018948869e+00 3.158470302556590486e-03
4.487292442118253348e+03 1.148221666854048362e+00 3.102229041439876021e-03
4.491779734560373072e+03 1.166340738959171786e+00 2.492087604479325570e-03
4.496271514294934605e+03 1.183055280064907455e+00 2.385694336405938965e-03
4.500767785809231100e+03 1.199031971803696583e+00 2.276600681206197938e-03
4.505268553595042249e+03 1.212851446053403448e+00 2.354340087111426050e-03
