# starting wavelength: 3729.980
# ending wavelength: 9061.200
# wav flux eflux
3.733482480633096657e+03 1.043990533038726465e+00 1.146573816069170262e-02
3.737215963113731050e+03 9.748927869077621544e-01 1.710054648021893525e-02
3.740953179076846027e+03 9.197284343990985711e-01 1.669936518999470126e-02
3.744694132255923705e+03 8.705891654141604263e-01 1.348512871649571072e-02
3.748438826388181042e+03 8.248593605375705851e-01 1.047524111888575860e-02
3.752187265214570289e+03 7.811399699658383433e-01 8.566694614940384769e-03
3.755939452479786269e+03 7.426096458733284500e-01 7.373990296058698796e-03
3.759695391932267285e+03 7.104903862866938091e-01 6.075277674704899177e-03
3.763455087324201031e+03 6.836822225629164418e-01 5.097057238452433470e-03
3.767218542411526414e+03 6.618782836609704567e-01 4.333496780446761953e-03
3.770985760953939007e+03 6.445287844707621172e-01 3.702273576234735124e-03
3.774756746714894234e+03 6.319386235915112060e-01 3.395176316436951044e-03
3.778531503461610555e+03 6.237769157442832890e-01 3.258627406098693353e-03
3.782310034965073100e+03 6.195434897732738921e-01 3.215020218706918752e-03
3.786092345000039586e+03 6.182176211314150960e-01 3.104241447373367289e-03
3.789878437345040766e+03 6.196941918148590744e-01 3.041205927722355484e-03
3.793668315782387253e+03 6.237700190287420732e-01 3.064009426704789475e-03
3.797461984098170888e+03 6.299352310255612597e-01 3.126782396336853787e-03
3.801259446082270188e+03 6.369099104439120973e-01 3.047517708301888083e-03
3.805060705528353537e+03 6.448601397947030245e-01 3.082276422358201044e-03
3.808865766233883278e+03 6.547642640384230273e-01 3.126067842408482983e-03
3.812674632000118436e+03 6.661251294799446221e-01 3.373754694686998540e-03
3.816487306632119726e+03 6.790414184227747674e-01 3.958196616834019389e-03
3.820303793938753188e+03 6.941789506077329364e-01 4.656806436875802341e-03
3.824124097732693372e+03 7.113377588672477048e-01 5.518769304206126193e-03
3.827948221830427428e+03 7.344324562744513063e-01 5.592483737541523170e-03
3.831776170052258749e+03 7.583511958903224048e-01 5.932524722383971001e-03
3.835607946222312421e+03 7.861293993406989200e-01 6.001632637087949904e-03
3.839443554168536139e+03 8.184083487683955216e-01 5.683547501535620057e-03
3.843282997722705659e+03 8.557526025915963563e-01 5.075411088781593347e-03
3.847126280720429804e+03 8.983017060231948125e-01 4.409211479804731222e-03
3.850973407001151372e+03 9.454857067781636815e-01 3.388445059567668418e-03
3.854824380408153957e+03 1.000357817524554660e+00 2.922369118832957111e-03
3.858679204788563311e+03 1.061756415147411037e+00 2.778017897857859055e-03
3.862537883993353262e+03 1.130509764568900621e+00 2.893706941213785092e-03
3.866400421877347981e+03 1.205504654147584676e+00 2.837361652601751768e-03
3.870266822299226533e+03 1.286081522376335551e+00 2.743102670064922251e-03
3.874137089121526969e+03 1.371421579248345957e+00 2.823358793809992336e-03
3.878011226210649966e+03 1.462043219961386864e+00 2.994609195281120340e-03
3.881889237436861549e+03 1.556047934075428740e+00 2.971248304898856281e-03
3.885771126674299921e+03 1.654846328190930027e+00 2.956914171864409580e-03
3.889656897800975457e+03 1.756403949390922925e+00 2.375674934190959760e-03
3.893546554698777527e+03 1.859197647225083516e+00 1.955220630340015562e-03
3.897440101253477678e+03 1.961891855924208450e+00 1.875371687719685045e-03
3.901337541354732366e+03 2.065271816512916470e+00 2.416974499588411124e-03
3.905238878896088409e+03 2.168331970417291199e+00 3.828907994288519891e-03
3.909144117774985716e+03 2.268629203926203708e+00 4.767898935658884153e-03
3.913053261892762293e+03 2.364249470055487024e+00 5.046701481961253684e-03
3.916966315154656058e+03 2.455131907159751048e+00 5.265779438355778705e-03
3.920883281469812118e+03 2.540699302575205820e+00 5.199437136177732614e-03
3.924804164751283224e+03 2.619877998084118254e+00 4.725238367844137623e-03
3.928728968916035683e+03 2.689858303829526953e+00 4.217305206115987311e-03
3.932657697884953450e+03 2.751083325763245213e+00 4.310644272722663657e-03
3.936590355582839493e+03 2.805852998625934624e+00 4.302600275644747653e-03
3.940526945938423523e+03 2.850769857556956222e+00 4.639054973920927506e-03
3.944467472884363360e+03 2.886212304564988340e+00 5.201759438981295135e-03
3.948411940357249023e+03 2.912627829076238850e+00 5.596536572187115442e-03
3.952360352297607733e+03 2.930665429336449357e+00 5.712394728685093147e-03
3.956312712649906643e+03 2.938765049830630804e+00 5.096084706453425130e-03
3.960269025362557841e+03 2.942445475484658068e+00 4.552899954399156068e-03
3.964229294387921527e+03 2.940108503468461976e+00 4.094603075389812059e-03
3.968193523682310570e+03 2.932390158616874132e+00 3.699550860030221752e-03
3.972161717205994591e+03 2.920293005738717973e+00 3.424921184458205262e-03
3.976133878923201792e+03 2.904296255914663227e+00 3.564396182506617515e-03
3.980110012802126221e+03 2.883681504680836838e+00 3.782586559621817744e-03
3.984090122814929600e+03 2.859425863031323622e+00 4.116102323844155440e-03
3.988074212937745870e+03 2.830061518743015814e+00 4.089263372570065176e-03
3.992062287150684824e+03 2.797859591936968648e+00 4.191056797784758689e-03
3.996054349437837118e+03 2.761434918036098196e+00 3.992768114491508993e-03
4.000050403787276082e+03 2.720163412608751496e+00 3.290750700531045337e-03
4.004050454191064546e+03 2.673971832350785505e+00 2.625763233578209867e-03
4.008054504645257111e+03 2.622390365647256694e+00 2.666248147715700751e-03
4.012062559149903791e+03 2.564948115235126114e+00 2.712042050871340138e-03
4.016074621709055009e+03 2.503709488499165303e+00 2.391806851479374215e-03
4.020090696330765240e+03 2.440936406150487681e+00 2.343717127286953049e-03
4.024110787027097558e+03 2.376162237223156559e+00 2.341433712020485943e-03
4.028134897814125907e+03 2.308134893073355176e+00 2.347244636186482034e-03
4.032163032711941469e+03 2.238717194320961390e+00 2.051511078621062571e-03
4.036195195744654484e+03 2.169629375755035117e+00 2.124430761960661301e-03
4.040231390940400615e+03 2.101119658237155186e+00 2.259755403552777576e-03
4.044271622331342314e+03 2.034211730656434458e+00 2.337063006998089075e-03
4.048315893953675186e+03 1.966656127296761314e+00 1.987371879391436336e-03
4.052364209847629809e+03 1.903281130787144892e+00 1.861228037594274409e-03
4.056416574057479011e+03 1.842756249291304771e+00 1.925059192665230573e-03
4.060472990631537868e+03 1.786078590967619784e+00 1.967752295760073680e-03
4.064533463622170530e+03 1.733264767902153780e+00 2.071123682859562099e-03
4.068597997085794304e+03 1.685377888673252667e+00 2.065792073206383552e-03
4.072666595082881486e+03 1.642448089836429759e+00 2.195686762002692794e-03
4.076739261677965715e+03 1.603811898725260088e+00 2.565251021836485474e-03
4.080816000939644709e+03 1.569994162765803614e+00 3.548640010938553923e-03
4.084896816940585722e+03 1.540435704423182006e+00 4.360349310388186850e-03
4.088981713757527814e+03 1.512612835564135061e+00 4.426747912495572132e-03
4.093070695471286854e+03 1.486635814389570154e+00 4.158846991512416338e-03
4.097163766166759160e+03 1.463437284053844767e+00 3.861774367462038771e-03
4.101260929932927866e+03 1.442732545432331648e+00 3.210982828068585735e-03
4.105362190862862008e+03 1.422929365243698285e+00 2.815020422549035367e-03
4.109467553053726078e+03 1.402680408673598000e+00 3.440596700704487681e-03
4.113577020606780934e+03 1.382606695292182719e+00 3.984343132033408078e-03
4.117690597627389252e+03 1.364756028300256663e+00 4.141923716091565864e-03
4.121808288225018259e+03 1.350417413797106336e+00 3.960038001488037050e-03
4.125930096513244280e+03 1.340624225780701506e+00 3.759197361719212021e-03
4.130056026609759101e+03 1.335529005041513395e+00 3.371527290894885901e-03
4.134186082636369974e+03 1.334578099046193955e+00 2.909897392582025313e-03
4.138320268719007800e+03 1.338773368667263375e+00 2.848716839369442276e-03
4.142458588987728035e+03 1.348333376325982602e+00 2.975736693141614944e-03
4.146601047576717065e+03 1.363275786497947006e+00 3.338059279649250363e-03
4.150747648624294925e+03 1.380876494539186705e+00 3.358412633314835326e-03
4.154898396272920763e+03 1.404086542963468576e+00 2.853703113403652757e-03
4.159053294669195566e+03 1.427403282467860191e+00 2.459967662855951087e-03
4.163212347963865795e+03 1.451437922568904471e+00 1.884805157410184527e-03
4.167375560311830668e+03 1.474079986962284483e+00 2.049025569415298224e-03
4.171542935872143971e+03 1.494749771298633068e+00 2.137877776275191963e-03
4.175714478808017702e+03 1.513307693443677326e+00 2.193282541097838802e-03
4.179890193286827525e+03 1.528945900783048595e+00 2.024459704816555534e-03
4.184070083480115500e+03 1.541322459892906949e+00 2.280353009731586351e-03
4.188254153563597356e+03 1.549517742768322881e+00 2.634763416201069304e-03
4.192442407717161586e+03 1.555196760839809178e+00 2.700670997905559902e-03
4.196634850124880359e+03 1.561182857464374241e+00 2.688582512240367869e-03
4.200831484975006788e+03 1.565368246406954711e+00 2.644650520321257560e-03
4.205032316459983122e+03 1.567113424792083709e+00 2.529831290203434380e-03
4.209237348776444378e+03 1.568731684941955917e+00 2.718526847429080223e-03
4.213446586125221984e+03 1.568147387575163476e+00 2.690664375993559367e-03
4.217660032711349231e+03 1.568792897928005914e+00 2.806284689671308813e-03
4.221877692744061278e+03 1.570317900738583239e+00 2.541670356627106532e-03
4.226099570436806971e+03 1.570610910650723335e+00 2.461348719971373673e-03
4.230325670007245208e+03 1.569244024512951086e+00 2.754738628738409058e-03
4.234555995677254032e+03 1.569180393657170658e+00 2.760810429211090541e-03
4.238790551672932452e+03 1.570094248108057977e+00 2.767305703474697183e-03
4.243029342224606808e+03 1.571523917319974206e+00 2.795331506347848924e-03
4.247272371566832589e+03 1.572343756468079556e+00 2.573337356509793668e-03
4.251519643938400804e+03 1.574088597361563702e+00 2.571007412850686083e-03
4.255771163582340705e+03 1.577748594301608076e+00 2.774313630509351800e-03
4.260026934745924336e+03 1.585199886044790452e+00 2.946853322244904084e-03
4.264286961680671993e+03 1.594735881078596540e+00 3.291044438636282592e-03
4.268551248642354039e+03 1.606998742672310687e+00 3.272984360017972515e-03
4.272819799890998183e+03 1.621565968359555798e+00 3.187376410642649670e-03
4.277092619690890388e+03 1.638323448391491022e+00 3.461374981960928937e-03
4.281369712310583054e+03 1.656009737577873064e+00 4.110993279118836836e-03
4.285651082022895025e+03 1.674714567881375071e+00 4.482418634937436128e-03
4.289936733104918858e+03 1.691691736573588623e+00 4.457221621536350958e-03
4.294226669838025373e+03 1.704959811765406785e+00 3.507605389772983865e-03
4.298520896507864563e+03 1.710478696078594485e+00 4.407124581703174455e-03
4.302819417404373780e+03 1.713690157978235540e+00 4.827703563736292919e-03
4.307122236821779552e+03 1.712450367185696321e+00 5.688807698423095117e-03
4.311429359058603040e+03 1.707168861808749272e+00 5.749787693690272018e-03
4.315740788417662770e+03 1.699684870451696694e+00 4.357997089424515275e-03
4.320056529206081905e+03 1.691791327567188086e+00 4.520642231747254262e-03
4.324376585735290064e+03 1.681787759437084473e+00 5.334645971429249380e-03
4.328700962321026054e+03 1.669173319910729703e+00 5.810933338759707682e-03
4.333029663283348782e+03 1.651330102212944073e+00 5.332933535452572676e-03
4.337362692946633615e+03 1.626502386005800549e+00 4.377842223242165917e-03
4.341700055639581478e+03 1.593223477114746434e+00 4.141456097062376322e-03
4.346041755695222491e+03 1.552269752477595022e+00 4.175107412744234574e-03
4.350387797450919606e+03 1.503565236383226811e+00 4.218851052808331517e-03
4.354738185248371337e+03 1.446659610545183217e+00 3.829077569935064162e-03
4.359092923433621763e+03 1.384385650806508439e+00 3.524357105158335262e-03
4.363452016357056891e+03 1.317398480660005422e+00 3.233785265651161096e-03
4.367815468373414660e+03 1.247616082610795374e+00 3.213916709160376944e-03
4.372183283841789489e+03 1.178155934914030256e+00 3.262836442644672080e-03
4.376555467125633186e+03 1.109571780684159625e+00 3.736271032562780807e-03
4.380932022592760404e+03 1.042573915030649667e+00 4.362488259158281943e-03
4.385312954615354101e+03 9.822689788832341673e-01 4.634464174147745301e-03
4.389698267569970994e+03 9.275917137596632056e-01 4.031411174939886731e-03
4.394087965837542470e+03 8.817944157719868059e-01 3.010898847967787700e-03
4.398482053803381859e+03 8.471132096773583697e-01 3.317764399963160638e-03
4.402880535857186260e+03 8.224956714574048755e-01 3.443283346902550196e-03
4.407283416393044718e+03 8.084043240711041856e-01 3.409614413179754781e-03
4.411690699809440048e+03 8.045553732642042322e-01 2.789323499980486502e-03
4.416102390509250654e+03 8.095152224559116760e-01 2.138481357366698102e-03
4.420518492899761441e+03 8.203618632703941760e-01 1.753783022019579814e-03
4.424939011392662906e+03 8.356434833944191842e-01 1.746743938347491325e-03
4.429363950404056595e+03 8.567451700411660154e-01 2.032996755148939495e-03
4.433793314354462382e+03 8.805746457768316438e-01 2.194086566090053779e-03
4.438227107668818462e+03 9.066743487629493892e-01 2.218542991953827669e-03
4.442665334776488635e+03 9.356773842274871411e-01 2.218621251091348282e-03
4.447108000111265937e+03 9.658553428989299361e-01 1.932956155366018008e-03
4.451555108111379013e+03 9.961699339425917898e-01 2.202916857064223920e-03
4.456006663219492111e+03 1.027984410730359732e+00 2.309341374497284657e-03
4.460462669882713271e+03 1.060782222625715310e+00 2.261819143441502148e-03
4.464923132552597053e+03 1.093499327256787002e+00 2.111648629243303987e-03
4.469388055685150903e+03 1.128482579169550304e+00 1.871003408321161594e-03
4.473857443740837880e+03 1.166300866933598357e+00 1.503465927796585706e-03
4.478331301184580298e+03 1.208115564726302216e+00 1.635149231538102947e-03
4.482809632485766087e+03 1.254447356382409007e+00 1.643576215740280132e-03
4.487292442118253348e+03 1.304285630221907244e+00 1.572007960078991400e-03
4.491779734560373072e+03 1.358046174966056396e+00 1.581863509207640872e-03
4.496271514294934605e+03 1.415446393837149763e+00 1.706626639883433716e-03
4.500767785809231100e+03 1.476742116233990876e+00 2.022900675485740044e-03
4.505268553595042249e+03 1.538444500529172254e+00 2.016886855354740882e-03
4.509773822148638828e+03 1.601777157986937761e+00 2.024748633154806621e-03
4.514283595970789065e+03 1.667069350017231333e+00 1.925237376548817516e-03
4.518797879566761367e+03 1.732425647990144313e+00 2.084616236972590061e-03
4.523316677446328868e+03 1.797851791981431191e+00 2.159239502476296112e-03
4.527839994123776705e+03 1.864046144250287140e+00 2.190302567949202733e-03
4.532367834117902021e+03 1.928540951648188173e+00 2.468927314706583376e-03
4.536900201952022144e+03 1.989918905312700215e+00 2.646653856443329129e-03
4.541437102153975502e+03 2.049017815053031821e+00 3.127322185195669218e-03
4.545978539256130716e+03 2.104012371989429031e+00 2.962824432464666261e-03
4.550524517795388419e+03 2.151244760979786452e+00 2.763369163696506332e-03
4.555075042313184895e+03 2.191815549501657578e+00 3.109830552735113381e-03
4.559630117355500261e+03 2.226045519867662748e+00 3.493929022924350571e-03
4.564189747472856652e+03 2.253137457425715695e+00 3.629130700961143239e-03
4.568753937220330954e+03 2.274573206099125500e+00 3.372587826817912988e-03
4.573322691157552981e+03 2.290990103784786847e+00 3.238981779557914033e-03
4.577896013848711846e+03 2.301430775602884005e+00 3.388174352712336641e-03
4.582473909862562323e+03 2.306821704240798798e+00 3.808877407966066320e-03
4.587056383772426670e+03 2.306860508746888971e+00 3.514178839482416487e-03
4.591643440156200086e+03 2.299605748682766571e+00 3.328209641529827033e-03
4.596235083596357981e+03 2.286923011224113456e+00 3.019207784158933414e-03
4.600831318679955984e+03 2.268459854414415222e+00 3.033116934266041030e-03
4.605432149998637215e+03 2.243537042176574570e+00 3.716711002172572165e-03
4.610037582148637739e+03 2.214522078682357620e+00 3.792266099418196198e-03
4.614647619730787483e+03 2.184335740261503123e+00 3.270037836042343805e-03
4.619262267350520233e+03 2.154579570572917824e+00 2.656913195893608522e-03
4.623881529617872729e+03 2.125159082553566225e+00 2.203491640273089018e-03
4.628505411147491941e+03 2.098985132688723887e+00 2.683662941146998729e-03
4.633133916558640522e+03 2.074623824397315186e+00 2.246360123011106272e-03
4.637767050475200449e+03 2.049995822609590235e+00 1.945807536168408635e-03
4.642404817525677572e+03 2.025598420299920654e+00 2.127515919891916074e-03
4.647047222343205249e+03 2.002406869544608004e+00 2.259107359351648914e-03
4.651694269565549803e+03 1.979530877722559756e+00 2.171187593925790263e-03
4.656345963835116891e+03 1.957125429222699164e+00 1.977313377644252749e-03
4.661002309798953320e+03 1.935855689539423663e+00 2.178482599411079180e-03
4.665663312108753416e+03 1.913730928985541979e+00 2.356883744227847039e-03
4.670328975420864481e+03 1.890943379107160371e+00 2.713123673489570113e-03
4.674999304396286789e+03 1.865525910391042874e+00 2.857513501361933200e-03
4.679674303700684504e+03 1.837030983363669767e+00 3.005851849693827807e-03
4.684353978004386590e+03 1.804048923382154390e+00 2.364068573073871762e-03
4.689038331982392265e+03 1.765275815887860533e+00 1.784106875963690402e-03
4.693727370314376458e+03 1.719608490858717698e+00 2.532826485255823979e-03
4.698421097684692540e+03 1.668222342344279463e+00 3.352920452640089158e-03
4.703119518782378691e+03 1.614035804965194609e+00 2.974963542496545689e-03
4.707822638301162442e+03 1.558402605275671204e+00 2.701892600434919675e-03
4.712530460939465229e+03 1.500309862539276340e+00 2.538946085875229061e-03
4.717242991400406027e+03 1.441831402603000356e+00 2.783642356485333674e-03
4.721960234391808626e+03 1.382231285863303683e+00 2.839885179704345480e-03
4.726682194626201635e+03 1.321110514548510029e+00 2.713819798349224096e-03
4.731408876820829391e+03 1.258597510635446781e+00 2.794717068368155269e-03
4.736140285697651962e+03 1.196765303452178575e+00 2.905184902143962723e-03
4.740876425983350600e+03 1.135821832226453942e+00 3.277948998188432231e-03
4.745617302409335934e+03 1.076816601127389639e+00 3.494269704742358155e-03
4.750362919711747054e+03 1.021219332074430275e+00 3.428721692169556506e-03
4.755113282631459697e+03 9.701265426754739352e-01 2.692903379486122177e-03
4.759868395914093526e+03 9.257685414957809167e-01 2.585524607915549566e-03
4.764628264310008490e+03 8.875433745213994197e-01 2.897822427374967865e-03
4.769392892574320285e+03 8.567304379572390216e-01 3.078035273511570396e-03
4.774162285466896719e+03 8.311788612233902418e-01 2.508820498121724137e-03
4.778936447752364984e+03 8.094905739653355248e-01 1.777244017215109852e-03
4.783715384200118933e+03 7.913761443982714194e-01 1.515442358776354853e-03
4.788499099584319993e+03 7.752208383832505101e-01 1.891890170114107284e-03
4.793287598683906253e+03 7.636975277293911457e-01 1.903266863114687606e-03
4.798080886282591564e+03 7.565793718605365870e-01 1.875323445699570270e-03
4.802878967168876443e+03 7.522461740493989746e-01 1.633508549574436836e-03
4.807681846136046261e+03 7.518620325973572882e-01 1.735220136431853653e-03
4.812489527982183972e+03 7.549909417823206237e-01 1.929809901631258364e-03
4.817302017510168298e+03 7.601974811306608792e-01 1.856600824461610445e-03
4.822119319527679181e+03 7.677948989272852520e-01 1.830407004642334518e-03
4.826941438847208701e+03 7.777497013717353802e-01 1.527459401299984670e-03
4.831768380286057436e+03 7.879675350169673687e-01 1.655380404552302164e-03
4.836600148666345376e+03 7.994403758219655876e-01 1.650692506251697075e-03
4.841436748815013743e+03 8.108508015411409753e-01 1.518632540032313367e-03
4.846278185563829538e+03 8.226836686354860317e-01 1.333314857032879283e-03
4.851124463749395545e+03 8.359926819730737479e-01 1.412917052092636490e-03
4.855975588213146693e+03 8.491838380312792811e-01 1.399087886505833182e-03
4.860831563801360971e+03 8.640573719441784206e-01 1.460899598010478254e-03
