# starting wavelength: 3278.750
# ending wavelength: 8339.800
# wav flux eflux
3.281845432496281319e+03 1.077584288382474442e+00 2.982738590183408624e-03
3.285127277928778767e+03 1.075299836595480674e+00 2.399791456690254267e-03
3.288412405206708627e+03 1.073947771533347195e+00 2.111298112895678650e-03
3.291700817611916591e+03 1.073271497301982347e+00 1.856365956147023764e-03
3.294992518429529355e+03 1.072826281886574140e+00 1.629957500578147096e-03
3.298287510947960072e+03 1.072163304837150610e+00 1.294648843684722585e-03
3.301585798458909267e+03 1.071411104045282281e+00 1.035615943267385137e-03
3.304887384257369376e+03 1.070834519760339276e+00 8.418871425847001622e-04
3.308192271641627485e+03 1.070373945696073470e+00 7.027874777554892144e-04
3.311500463913270323e+03 1.070085378071174542e+00 6.025041111069664177e-04
3.314811964377184722e+03 1.070000135902997140e+00 5.546717748376532022e-04
3.318126776341563072e+03 1.069981924837161813e+00 4.870019049736550227e-04
3.321444903117905596e+03 1.070249200027837855e+00 5.054770639392314581e-04
3.324766348021024896e+03 1.070690506704398359e+00 5.708986159449970683e-04
3.328091114369046863e+03 1.071087125357346626e+00 6.095027665778239437e-04
3.331419205483417045e+03 1.071428911923344440e+00 6.753389363825036988e-04
3.334750624688901553e+03 1.071343186778039192e+00 6.752845583403206545e-04
3.338085375313591612e+03 1.070928166274729421e+00 6.824847598846640016e-04
3.341423460688906289e+03 1.070140972202628271e+00 7.041636609314041702e-04
3.344764884149596128e+03 1.068864665674150949e+00 6.591953015586617289e-04
3.348109649033746791e+03 1.066908857273852096e+00 6.485585706275905690e-04
3.351457758682781787e+03 1.064535546533597277e+00 6.507258868195572431e-04
3.354809216441465651e+03 1.061703359865581620e+00 6.692031645649414769e-04
3.358164025657908041e+03 1.058379247693870040e+00 7.110013919429233799e-04
3.361522189683567376e+03 1.054614568139183417e+00 7.655663687736064546e-04
3.364883711873251741e+03 1.050457205999710819e+00 8.128321178173715132e-04
3.368248595585126168e+03 1.046026241387632671e+00 8.414149246510686754e-04
3.371616844180712633e+03 1.041499740437455079e+00 8.499398426139710781e-04
3.374988461024894150e+03 1.036611593142697574e+00 8.342657527614354834e-04
3.378363449485920228e+03 1.031462085873844359e+00 7.899239217850411929e-04
3.381741812935407324e+03 1.026320572975084611e+00 7.579517717224190220e-04
3.385123554748343849e+03 1.021175257230412692e+00 7.185594613936934502e-04
3.388508678303093347e+03 1.015943909023487635e+00 6.184293166521584711e-04
3.391897186981397681e+03 1.010678638216131242e+00 5.059427152075786013e-04
3.395289084168380214e+03 1.006073882263669228e+00 4.886252825439350985e-04
3.398684373252549449e+03 1.001922120685990514e+00 4.951422700747674108e-04
3.402083057625803121e+03 9.983338888431193547e-01 4.898353041025622391e-04
3.405485140683430018e+03 9.952569860899979082e-01 4.821349672543522990e-04
3.408890625824114522e+03 9.926611082843322942e-01 4.811706836352524141e-04
3.412299516449939802e+03 9.906967403397708427e-01 4.839304572359694472e-04
3.415711815966390986e+03 9.891745643547439348e-01 4.844832446529883144e-04
3.419127527782358356e+03 9.883322877722273692e-01 4.835154148425397768e-04
3.422546655310141887e+03 9.879475888360472746e-01 4.983679150964666956e-04
3.425969201965453522e+03 9.878680166490509951e-01 5.051123256865388796e-04
3.429395171167419903e+03 9.883897460291546366e-01 4.879901031415467307e-04
3.432824566338588284e+03 9.893769543055145332e-01 4.561685952186843589e-04
3.436257390904928343e+03 9.912050766976706617e-01 6.034441289998145920e-04
3.439693648295834464e+03 9.935321376482154632e-01 7.568817437889533263e-04
3.443133341944131189e+03 9.962581819537377203e-01 7.837668625832686781e-04
3.446576475286076402e+03 9.993034819535437929e-01 7.674979376172693215e-04
3.450023051761363604e+03 1.002451616117313815e+00 7.384676244370326015e-04
3.453473074813126004e+03 1.005889326936219685e+00 6.374372170015470780e-04
3.456926547887940615e+03 1.009289038453261345e+00 5.134871661452652686e-04
3.460383474435829612e+03 1.012301922518498154e+00 5.369627097119268003e-04
3.463843857910266706e+03 1.015374736903138952e+00 5.372826805199470718e-04
3.467307701768178049e+03 1.018389544988408391e+00 5.380494929466260890e-04
3.470775009469947236e+03 1.021061178332638208e+00 6.198275983935867296e-04
3.474245784479418489e+03 1.023834422982060621e+00 6.257633109647944879e-04
3.477720030263898934e+03 1.026281527003267913e+00 6.279842637214277760e-04
3.481197750294164052e+03 1.028784024924061180e+00 5.951412891372434306e-04
3.484678948044459503e+03 1.031437440994475985e+00 5.758666263634536903e-04
3.488163626992504760e+03 1.034132598933968916e+00 5.713498845530073054e-04
3.491651790619498570e+03 1.036634971661694715e+00 5.868419655392141752e-04
3.495143442410119405e+03 1.039410166599375795e+00 5.843372033836155988e-04
3.498638585852530468e+03 1.042149732302744658e+00 5.899412842623120079e-04
3.502137224438384237e+03 1.044948704166753339e+00 6.123128097289759833e-04
3.505639361662823831e+03 1.047959386364734513e+00 6.396431838171489628e-04
3.509145001024487556e+03 1.051354031109205778e+00 6.236021138255405834e-04
3.512654146025513455e+03 1.055193707857107865e+00 6.405475291603199370e-04
3.516166800171540217e+03 1.059472760721793305e+00 7.651735691172049285e-04
3.519682966971712631e+03 1.064020524108696630e+00 8.582708518573539235e-04
3.523202649938685681e+03 1.068220954976931925e+00 8.245926259412087725e-04
3.526725852588625457e+03 1.072249539921262151e+00 8.478801959321823371e-04
3.530252578441215064e+03 1.076154843971096398e+00 8.416762638222592555e-04
3.533782831019657806e+03 1.079598417457892090e+00 8.385464759226205584e-04
3.537316613850678550e+03 1.083184798057944542e+00 8.456808310792953559e-04
3.540853930464530094e+03 1.086825056345784191e+00 8.039844146860050363e-04
3.544394784394995895e+03 1.090046928226446665e+00 7.921871814201176133e-04
3.547939179179392340e+03 1.092669968371524192e+00 7.909976591226932632e-04
3.551487118358572843e+03 1.095230693910685726e+00 8.061373291358378979e-04
3.555038605476932389e+03 1.097298504687045817e+00 8.361922780015828335e-04
3.558593644082410719e+03 1.098887595061747380e+00 8.619065115318141511e-04
3.562152237726494150e+03 1.099646309269165068e+00 8.745019588253201068e-04
3.565714389964221937e+03 1.099529911654388625e+00 8.747391441387810176e-04
3.569280104354187188e+03 1.098747204305136282e+00 8.795048149979712649e-04
3.572849384458542772e+03 1.097223383345357295e+00 9.055902522218531661e-04
3.576422233843002232e+03 1.095228973687111029e+00 9.173119534037045900e-04
3.579998656076846601e+03 1.092844878747555537e+00 9.396123151169020159e-04
3.583578654732924406e+03 1.090264581093098206e+00 9.858329023137233759e-04
3.587162233387658489e+03 1.087673716210793673e+00 1.033131364637075375e-03
3.590749395621047370e+03 1.084662140798770880e+00 1.162331554653548522e-03
3.594340145016669794e+03 1.082009124422291801e+00 1.204902575286712465e-03
3.597934485161687462e+03 1.079517800477688194e+00 1.122404895774095331e-03
3.601532419646850485e+03 1.077490882410757855e+00 9.083122228044371044e-04
3.605133952066498296e+03 1.076368676051046247e+00 7.426546489698026285e-04
3.608739086018566013e+03 1.076243926092264491e+00 8.119358648909825744e-04
3.612347825104585809e+03 1.077098031731036576e+00 8.841165418064890003e-04
3.615960172929691907e+03 1.078976652337272135e+00 7.865048775398284994e-04
3.619576133102622407e+03 1.081307601966014831e+00 6.258765463725936892e-04
3.623195709235726554e+03 1.084033072738141534e+00 6.100760594894250825e-04
3.626818904944963379e+03 1.087365290182104038e+00 5.993358984919956419e-04
3.630445723849909427e+03 1.091148835393805472e+00 5.809425820218333796e-04
3.634076169573760581e+03 1.095305405801708654e+00 4.978546321234048836e-04
3.637710245743335690e+03 1.099313855848196964e+00 5.124973444162557110e-04
3.641347955989080219e+03 1.103266041418568877e+00 6.298822482554358596e-04
3.644989303945070333e+03 1.107257569917089679e+00 7.075038310260184588e-04
3.648634293249016537e+03 1.110773499030778932e+00 6.935296083462277970e-04
3.652282927542266862e+03 1.113915148891077234e+00 6.610535052981851177e-04
3.655935210469810499e+03 1.116417983236279277e+00 7.797073481489670468e-04
3.659591145680281443e+03 1.118546424820305418e+00 9.136070568190105250e-04
3.663250736825963031e+03 1.120456823758325227e+00 9.881379233815663476e-04
3.666913987562790226e+03 1.122493961464117174e+00 1.022888107659698006e-03
3.670580901550354156e+03 1.124563927340473724e+00 1.046329543233164537e-03
3.674251482451905758e+03 1.126877377070578445e+00 1.005414453082958568e-03
3.677925733934358959e+03 1.129279558811585593e+00 1.010004950580804285e-03
3.681603659668294313e+03 1.131707257364239050e+00 9.267152542496636877e-04
3.685285263327964003e+03 1.134466727552005061e+00 1.016104167922866680e-03
3.688970548591293209e+03 1.137237812573882456e+00 1.162293391322913316e-03
3.692659519139885560e+03 1.140655441016533489e+00 1.223108048039708157e-03
3.696352178659026777e+03 1.143332639764814695e+00 1.025715819218789553e-03
3.700048530837686940e+03 1.145134304400546643e+00 7.577334125917596034e-04
3.703748579368525952e+03 1.145938515245374489e+00 5.681898996910983999e-04
3.707452327947895355e+03 1.145229990445429058e+00 6.593867708334470723e-04
3.711159780275844696e+03 1.143472403512058477e+00 7.174329185841113888e-04
3.714870940056121526e+03 1.140671620375729445e+00 7.090263957047208054e-04
3.718585810996179134e+03 1.136650793281128502e+00 6.087235543357523556e-04
3.722304396807176545e+03 1.132152789636276413e+00 3.967183776427623903e-04
3.726026701203984885e+03 1.127681512435406264e+00 3.496369939409998289e-04
3.729752727905190113e+03 1.123020002920119387e+00 3.546119796470525629e-04
3.733482480633096657e+03 1.118409382077408809e+00 3.508521976572219372e-04
3.737215963113731050e+03 1.113940556423555606e+00 3.869420949209574699e-04
3.740953179076846027e+03 1.109693991014442327e+00 4.621717084417582637e-04
3.744694132255923705e+03 1.106055724249902950e+00 5.433186030881064638e-04
3.748438826388181042e+03 1.103093827052070708e+00 5.991315654244629271e-04
3.752187265214570289e+03 1.101192069224576242e+00 6.265218963598165585e-04
3.755939452479786269e+03 1.100132360248161856e+00 7.775296547819198758e-04
3.759695391932267285e+03 1.099601106200061462e+00 9.025109108874619515e-04
3.763455087324201031e+03 1.099610321003675395e+00 9.551823201439174019e-04
3.767218542411526414e+03 1.099766686958171702e+00 9.033283153203520858e-04
3.770985760953939007e+03 1.100181253351664612e+00 7.572025594662927430e-04
3.774756746714894234e+03 1.100313465612744235e+00 7.192116612843117967e-04
3.778531503461610555e+03 1.100095040199124963e+00 8.362654446255782074e-04
3.782310034965073100e+03 1.100309748217819017e+00 8.894918260185241546e-04
3.786092345000039586e+03 1.099985686975839982e+00 1.063087716460001889e-03
3.789878437345040766e+03 1.100191617015791934e+00 1.088843517233828179e-03
3.793668315782387253e+03 1.101061885109423377e+00 9.863279622567421197e-04
3.797461984098170888e+03 1.102748666350778839e+00 6.476295191943221268e-04
3.801259446082270188e+03 1.105752651183789848e+00 7.005158694036316309e-04
3.805060705528353537e+03 1.110140161344737253e+00 1.053279975508756737e-03
3.808865766233883278e+03 1.114879355314800202e+00 1.046110592284344018e-03
3.812674632000118436e+03 1.119377872095707493e+00 8.644137202047751231e-04
3.816487306632119726e+03 1.123376254983816880e+00 6.898390796636547214e-04
3.820303793938753188e+03 1.126470179835671548e+00 7.318099371554382532e-04
3.824124097732693372e+03 1.128767570994404279e+00 7.313886761963151123e-04
3.827948221830427428e+03 1.130742694426366546e+00 7.740397838159721088e-04
3.831776170052258749e+03 1.131351781959337499e+00 7.718780213524721297e-04
3.835607946222312421e+03 1.130803840788260795e+00 7.544893055813164419e-04
3.839443554168536139e+03 1.129237610206714315e+00 7.686635886611724831e-04
3.843282997722705659e+03 1.126933830154730254e+00 8.129768473581773080e-04
3.847126280720429804e+03 1.124522046224423200e+00 9.021046261556320452e-04
3.850973407001151372e+03 1.122298392246004362e+00 9.009417926328289932e-04
3.854824380408153957e+03 1.119952777724649629e+00 8.990543918957424625e-04
3.858679204788563311e+03 1.117442498989715371e+00 9.009095687237313882e-04
3.862537883993353262e+03 1.114812796622020041e+00 9.132169976064762745e-04
3.866400421877347981e+03 1.111680244335067291e+00 9.086622712443143037e-04
3.870266822299226533e+03 1.108653111029817673e+00 9.000247909844316272e-04
3.874137089121526969e+03 1.105851718189544641e+00 9.231538657349271223e-04
3.878011226210649966e+03 1.103150721322409655e+00 8.148809789107127211e-04
3.881889237436861549e+03 1.099988297907736001e+00 7.855930284447122007e-04
3.885771126674299921e+03 1.095984519727033257e+00 8.817440776291756094e-04
3.889656897800975457e+03 1.090551209949260247e+00 9.347687979491926076e-04
3.893546554698777527e+03 1.083505018922375163e+00 9.487238293160153322e-04
3.897440101253477678e+03 1.075117125629209802e+00 9.489461703328281282e-04
3.901337541354732366e+03 1.065900745767350388e+00 8.774447386789815994e-04
3.905238878896088409e+03 1.055395435014596872e+00 9.296427610539783563e-04
3.909144117774985716e+03 1.044006274695214120e+00 1.055268842173303582e-03
3.913053261892762293e+03 1.031843726524495741e+00 1.149018365404327153e-03
3.916966315154656058e+03 1.019361533116367458e+00 1.034352383732287366e-03
3.920883281469812118e+03 1.007294348203899403e+00 6.547534405557408656e-04
3.924804164751283224e+03 9.965994490917184923e-01 7.773404446069669734e-04
3.928728968916035683e+03 9.868028756474186425e-01 9.127029937646548123e-04
3.932657697884953450e+03 9.779538839871391165e-01 8.439395861748973972e-04
3.936590355582839493e+03 9.699669399404190484e-01 6.984213287607422219e-04
3.940526945938423523e+03 9.625136307936562607e-01 7.800799205498277003e-04
3.944467472884363360e+03 9.561982425515100914e-01 7.875875854574332586e-04
3.948411940357249023e+03 9.509707322319612688e-01 8.211445848933767843e-04
3.952360352297607733e+03 9.461788315971861874e-01 8.490256836008145151e-04
3.956312712649906643e+03 9.422072605719129523e-01 9.895736799179553726e-04
3.960269025362557841e+03 9.387673065061830080e-01 1.015512883708615064e-03
3.964229294387921527e+03 9.354277024118540229e-01 9.784391279610269755e-04
3.968193523682310570e+03 9.323574584001188548e-01 9.831840076087380864e-04
3.972161717205994591e+03 9.295626010875666090e-01 1.093720091647466374e-03
3.976133878923201792e+03 9.274533286837194357e-01 1.319807968312959644e-03
3.980110012802126221e+03 9.266032699565632802e-01 1.316909483732542525e-03
3.984090122814929600e+03 9.265604488540836181e-01 1.270024064929602299e-03
3.988074212937745870e+03 9.275393185584743794e-01 1.129131177641456464e-03
3.992062287150684824e+03 9.296426109711739549e-01 9.303474737179642578e-04
3.996054349437837118e+03 9.334765560870373902e-01 9.789298229981547791e-04
4.000050403787276082e+03 9.391753922715720959e-01 1.036670525434645615e-03
4.004050454191064546e+03 9.455318723453490781e-01 8.349181530598868452e-04
4.008054504645257111e+03 9.521683741339905804e-01 6.156469407292408918e-04
4.012062559149903791e+03 9.587808110961223429e-01 5.412528654516019725e-04
4.016074621709055009e+03 9.649703858144641488e-01 5.800374126012829363e-04
4.020090696330765240e+03 9.704652102483958265e-01 5.866185400336757774e-04
4.024110787027097558e+03 9.753570251592532658e-01 6.264292420459471574e-04
4.028134897814125907e+03 9.791834781044382874e-01 6.265112904373507704e-04
4.032163032711941469e+03 9.822354138202025187e-01 6.137976374511345395e-04
4.036195195744654484e+03 9.845436249872643319e-01 5.904507013652864457e-04
4.040231390940400615e+03 9.859735774727794722e-01 5.855197434968459607e-04
4.044271622331342314e+03 9.865377087674837009e-01 6.609248473056824474e-04
4.048315893953675186e+03 9.862826710900713945e-01 8.747466674203944808e-04
4.052364209847629809e+03 9.858426252380230181e-01 8.617924446988076224e-04
4.056416574057479011e+03 9.866051377799553990e-01 8.356044025028766141e-04
4.060472990631537868e+03 9.877746307501275025e-01 7.511500728859639908e-04
4.064533463622170530e+03 9.897750254864965402e-01 7.227195214659880426e-04
4.068597997085794304e+03 9.924965043269314835e-01 6.966993820780445013e-04
4.072666595082881486e+03 9.965033210003167996e-01 7.593229963050666508e-04
4.076739261677965715e+03 1.001377348015313862e+00 7.391752169545179460e-04
4.080816000939644709e+03 1.006054987285469826e+00 6.945029239528866926e-04
4.084896816940585722e+03 1.010835474637173492e+00 6.880258037272826309e-04
4.088981713757527814e+03 1.015657023112913393e+00 6.584204732663583417e-04
4.093070695471286854e+03 1.020141198781266301e+00 5.964180734202970038e-04
4.097163766166759160e+03 1.023902383317189635e+00 5.964907634416330212e-04
4.101260929932927866e+03 1.027079172071821533e+00 6.147522715974781081e-04
4.105362190862862008e+03 1.029430134893597470e+00 5.974117900535651617e-04
4.109467553053726078e+03 1.031290129763829277e+00 5.114901254295818383e-04
4.113577020606780934e+03 1.033109538763466784e+00 5.385512394307700925e-04
4.117690597627389252e+03 1.034514763770151502e+00 5.028927282558321669e-04
4.121808288225018259e+03 1.035188709585052713e+00 5.205507312280584047e-04
4.125930096513244280e+03 1.035063252188919147e+00 5.058756417494682679e-04
4.130056026609759101e+03 1.034649373490807989e+00 4.458191554081830893e-04
4.134186082636369974e+03 1.034354069956123778e+00 5.172201048029853934e-04
4.138320268719007800e+03 1.033219741977552397e+00 5.136936164957623882e-04
4.142458588987728035e+03 1.031448329904395278e+00 5.077183149031671205e-04
4.146601047576717065e+03 1.028939480627950376e+00 5.112128770082630331e-04
4.150747648624294925e+03 1.026047744286776364e+00 4.837077224549980021e-04
4.154898396272920763e+03 1.022553719416032791e+00 4.364534945149549762e-04
4.159053294669195566e+03 1.017830625813486822e+00 4.704573240144878463e-04
4.163212347963865795e+03 1.012859126582755787e+00 4.968510696119019399e-04
4.167375560311830668e+03 1.007568974043594245e+00 5.851326962528593297e-04
4.171542935872143971e+03 1.002226015016835614e+00 6.357172254894210249e-04
4.175714478808017702e+03 9.971778984048739192e-01 6.214354060661388731e-04
4.179890193286827525e+03 9.925390760506638266e-01 5.371508265606622732e-04
4.184070083480115500e+03 9.884692398526202517e-01 4.293580770696528697e-04
4.188254153563597356e+03 9.853320721081948452e-01 4.058189112330530535e-04
4.192442407717161586e+03 9.834502801697873053e-01 4.213014738723331481e-04
4.196634850124880359e+03 9.822667697274245491e-01 4.142926641859302371e-04
4.200831484975006788e+03 9.817200553074298952e-01 4.637258300753047797e-04
4.205032316459983122e+03 9.814580670683047403e-01 4.601259184302314200e-04
4.209237348776444378e+03 9.818004880384780808e-01 4.247715657999309984e-04
4.213446586125221984e+03 9.826567711236042779e-01 3.169733113095548108e-04
4.217660032711349231e+03 9.833228358686848525e-01 3.188797185723540656e-04
4.221877692744061278e+03 9.840737042779460486e-01 4.072082103878472753e-04
4.226099570436806971e+03 9.845446468507017546e-01 4.079169215004684631e-04
4.230325670007245208e+03 9.848969146131740793e-01 4.077614173128908150e-04
4.234555995677254032e+03 9.853603028939829089e-01 3.769572951413107265e-04
4.238790551672932452e+03 9.852717577091049117e-01 4.019888631647605204e-04
4.243029342224606808e+03 9.852859679757455247e-01 4.032599535239349362e-04
4.247272371566832589e+03 9.850232816273988279e-01 4.751357184202472934e-04
4.251519643938400804e+03 9.850524885775086004e-01 4.753639249852797456e-04
4.255771163582340705e+03 9.855430968707405981e-01 4.716588435796787836e-04
4.260026934745924336e+03 9.865945013520044382e-01 4.646850335932666779e-04
4.264286961680671993e+03 9.882166157431637732e-01 4.136239668334951614e-04
4.268551248642354039e+03 9.907017521871201993e-01 3.573436408363955428e-04
4.272819799890998183e+03 9.942985541950485340e-01 4.382028750710138636e-04
