# starting wavelength: 3726.260
# ending wavelength: 7272.510
# wav flux eflux
3.729752727905190113e+03 5.161375513118507952e-01 2.498101781476451400e-02
3.733482480633096657e+03 5.037611731921605163e-01 1.964369470244602817e-02
3.737215963113731050e+03 4.821199975975313246e-01 1.625429734772055809e-02
3.740953179076846027e+03 4.514103483123172444e-01 1.262626888679999754e-02
3.744694132255923705e+03 4.120350923178555114e-01 1.455819926142315132e-02
3.748438826388181042e+03 3.745142962456856628e-01 1.351247935606718006e-02
3.752187265214570289e+03 3.404509121484798895e-01 1.506742188741858057e-02
3.755939452479786269e+03 3.121753725033031834e-01 1.231811380649616358e-02
3.759695391932267285e+03 2.919758391970840861e-01 1.377865992194509358e-02
3.763455087324201031e+03 2.806476951021357746e-01 1.518402318275665144e-02
3.767218542411526414e+03 2.776793443921286575e-01 1.671440977197091032e-02
3.770985760953939007e+03 2.772333968982100827e-01 1.632647229775431932e-02
3.774756746714894234e+03 2.773741457087444684e-01 1.544413999320978260e-02
3.778531503461610555e+03 2.749608559938953589e-01 1.441292033951042592e-02
3.782310034965073100e+03 2.718806626451734099e-01 1.365404144177129360e-02
3.786092345000039586e+03 2.690330078273122094e-01 1.308907451214656910e-02
3.789878437345040766e+03 2.686808473465007729e-01 1.294520089378234026e-02
3.793668315782387253e+03 2.688458798196973754e-01 1.252770686209445962e-02
3.797461984098170888e+03 2.719704768149344698e-01 1.184175899831704966e-02
3.801259446082270188e+03 2.734435174998094964e-01 1.206900322092989419e-02
3.805060705528353537e+03 2.756561584201733250e-01 1.248312446365966270e-02
3.808865766233883278e+03 2.775793794735703646e-01 1.305806826493489600e-02
3.812674632000118436e+03 2.803857171194442666e-01 1.312441507231616386e-02
3.816487306632119726e+03 2.837113755881564003e-01 1.291719480041670504e-02
3.820303793938753188e+03 2.878727290950190976e-01 1.226492626315314576e-02
3.824124097732693372e+03 2.935924877734567007e-01 1.140626370955828001e-02
3.827948221830427428e+03 3.014694970335730639e-01 1.099260060483187029e-02
3.831776170052258749e+03 3.125746789173410312e-01 1.039098540649474427e-02
3.835607946222312421e+03 3.269477376657460299e-01 1.011592124393907027e-02
3.839443554168536139e+03 3.454772498670609648e-01 1.069391432620921817e-02
3.843282997722705659e+03 3.691072197753859641e-01 1.175202158501644986e-02
3.847126280720429804e+03 3.963917657514953730e-01 1.146000260774159007e-02
3.850973407001151372e+03 4.246011733983516279e-01 1.030459918839526923e-02
3.854824380408153957e+03 4.511894382093141198e-01 8.902854503323851323e-03
3.858679204788563311e+03 4.767712988098624649e-01 7.140121093497524100e-03
3.862537883993353262e+03 5.027364425368204826e-01 6.123961355658764406e-03
3.866400421877347981e+03 5.230731212865018520e-01 6.498704077001897159e-03
3.870266822299226533e+03 5.397291171122525766e-01 7.062970995343947032e-03
3.874137089121526969e+03 5.543246577564122646e-01 7.014160267721803246e-03
3.878011226210649966e+03 5.648987753166517800e-01 5.505265881677067798e-03
3.881889237436861549e+03 5.753963516636977360e-01 5.020043750414778135e-03
3.885771126674299921e+03 5.873807296734665506e-01 4.513957939400428838e-03
3.889656897800975457e+03 6.016327824150502490e-01 4.456408536890758658e-03
3.893546554698777527e+03 6.175517935796140945e-01 4.394354522437356886e-03
3.897440101253477678e+03 6.326666461038075173e-01 4.311098141880500591e-03
3.901337541354732366e+03 6.480327711100090093e-01 4.361788902739098875e-03
3.905238878896088409e+03 6.636957393763556201e-01 3.988020912648024968e-03
3.909144117774985716e+03 6.815824914347643482e-01 4.139952086356050477e-03
3.913053261892762293e+03 7.030052576728035296e-01 3.573561687417884172e-03
3.916966315154656058e+03 7.231849416628985949e-01 3.623587440554046097e-03
3.920883281469812118e+03 7.437737881887491742e-01 3.814334695252282349e-03
3.924804164751283224e+03 7.640806346107569258e-01 3.452033726648025356e-03
3.928728968916035683e+03 7.847547668289917011e-01 2.776972835203538222e-03
3.932657697884953450e+03 8.037466964938660974e-01 2.425295782292322122e-03
3.936590355582839493e+03 8.213452770972222705e-01 2.476362268238363994e-03
3.940526945938423523e+03 8.351190086207875840e-01 3.353016867733808748e-03
3.944467472884363360e+03 8.484183253181071249e-01 3.178184250957074696e-03
3.948411940357249023e+03 8.599611397724015172e-01 3.232860179508890985e-03
3.952360352297607733e+03 8.746265791223492014e-01 3.165527804170453329e-03
3.956312712649906643e+03 8.900580152247898891e-01 3.221837621124634763e-03
3.960269025362557841e+03 9.049701451783573880e-01 3.196610957765978842e-03
3.964229294387921527e+03 9.211691445463877637e-01 3.517559470015568963e-03
3.968193523682310570e+03 9.357152705631059941e-01 3.473683381042675256e-03
3.972161717205994591e+03 9.497251574214328196e-01 3.597701759315130327e-03
3.976133878923201792e+03 9.645386543534094637e-01 3.699292764085163922e-03
3.980110012802126221e+03 9.795755442869827911e-01 3.637322117548450265e-03
3.984090122814929600e+03 9.930706566637110821e-01 3.979499052266491539e-03
3.988074212937745870e+03 1.006643371845984847e+00 3.856105887734511198e-03
3.992062287150684824e+03 1.019858400429249468e+00 3.900396830437395483e-03
3.996054349437837118e+03 1.033936147570673869e+00 3.920224288585821837e-03
4.000050403787276082e+03 1.046687268488526223e+00 4.060644419026376503e-03
4.004050454191064546e+03 1.056146288348612572e+00 4.127153927769380143e-03
4.008054504645257111e+03 1.064608109587953155e+00 4.352015228573767429e-03
4.012062559149903791e+03 1.071620979823680209e+00 4.558002872835009364e-03
4.016074621709055009e+03 1.077154976658996066e+00 5.371649313252522054e-03
4.020090696330765240e+03 1.081306614779959707e+00 5.437603204220396724e-03
4.024110787027097558e+03 1.082407916807976545e+00 5.675238251228884034e-03
4.028134897814125907e+03 1.083384185453663662e+00 5.424298797279272256e-03
4.032163032711941469e+03 1.081414677777958300e+00 5.373320957506221018e-03
4.036195195744654484e+03 1.072670051302168970e+00 5.494750601786026895e-03
4.040231390940400615e+03 1.064955781026965198e+00 5.443257223695825708e-03
4.044271622331342314e+03 1.052544125723518409e+00 5.129794149899054995e-03
4.048315893953675186e+03 1.041268664746742401e+00 5.391929413816453492e-03
4.052364209847629809e+03 1.027592774986109347e+00 5.851875857079551733e-03
4.056416574057479011e+03 1.015940097242946205e+00 5.115848736920563730e-03
4.060472990631537868e+03 9.986128314098472458e-01 5.350091548996014842e-03
4.064533463622170530e+03 9.806967064878242546e-01 5.969412764306449189e-03
4.068597997085794304e+03 9.609704107610852475e-01 6.492136622576362773e-03
4.072666595082881486e+03 9.440176241851530037e-01 5.842777529146420644e-03
4.076739261677965715e+03 9.299400422609270800e-01 5.841588726762691683e-03
4.080816000939644709e+03 9.169716583717679725e-01 5.138555623276024054e-03
4.084896816940585722e+03 9.117430547442479938e-01 6.124640119435275677e-03
4.088981713757527814e+03 9.080149324405389910e-01 6.578857618256633844e-03
4.093070695471286854e+03 9.042695292492191061e-01 6.719248665031454099e-03
4.097163766166759160e+03 9.033695448768896963e-01 6.208340999238964701e-03
4.101260929932927866e+03 9.043676586370561488e-01 5.817991136274149738e-03
4.105362190862862008e+03 9.058910254877211576e-01 5.767279127315737969e-03
4.109467553053726078e+03 9.078038175737938031e-01 5.753761571125346266e-03
4.113577020606780934e+03 9.094287332724957373e-01 5.741532503957674782e-03
4.117690597627389252e+03 9.088702130829988679e-01 5.703853656867369573e-03
4.121808288225018259e+03 9.029017318318468543e-01 5.200431327887688505e-03
4.125930096513244280e+03 9.006916700113500873e-01 5.301041223452965592e-03
4.130056026609759101e+03 8.974932145127602068e-01 5.268204668258024727e-03
4.134186082636369974e+03 8.945283454496544273e-01 5.086760740071394858e-03
4.138320268719007800e+03 8.906578740794136584e-01 4.433477663835056273e-03
4.142458588987728035e+03 8.820822864162833898e-01 4.742412265384868264e-03
4.146601047576717065e+03 8.732846302691160689e-01 4.756734408090167003e-03
4.150747648624294925e+03 8.614306360539859542e-01 4.595675962375187808e-03
4.154898396272920763e+03 8.494193113268105888e-01 4.737823797486194650e-03
4.159053294669195566e+03 8.328865956845614704e-01 4.897992483202461000e-03
4.163212347963865795e+03 8.206295712955319344e-01 4.842336646403190559e-03
4.167375560311830668e+03 8.099139180909576963e-01 4.816235602991481707e-03
4.171542935872143971e+03 8.014130754133224066e-01 4.779082453463694147e-03
4.175714478808017702e+03 7.916940193596050390e-01 4.528790926449706433e-03
4.179890193286827525e+03 7.848491902350611671e-01 3.951001235894645823e-03
4.184070083480115500e+03 7.829076145820716981e-01 3.861821185452849348e-03
4.188254153563597356e+03 7.852898004808881449e-01 3.889659628719913977e-03
4.192442407717161586e+03 7.926172077381624659e-01 3.843551822770819096e-03
4.196634850124880359e+03 8.053975975408985688e-01 4.887677732591876913e-03
4.200831484975006788e+03 8.176820470278989283e-01 5.489644539007240004e-03
4.205032316459983122e+03 8.315071372630746804e-01 5.016918351526048273e-03
4.209237348776444378e+03 8.424928151223058936e-01 4.742705999836739281e-03
4.213446586125221984e+03 8.509251857533618457e-01 4.492887245674939689e-03
4.217660032711349231e+03 8.552099463387038414e-01 4.670940662999350894e-03
4.221877692744061278e+03 8.563495110732082249e-01 4.454510881075041118e-03
4.226099570436806971e+03 8.566478752155931575e-01 4.384647701866345622e-03
4.230325670007245208e+03 8.512317119470672599e-01 4.649021720549678660e-03
4.234555995677254032e+03 8.440406059815108719e-01 4.786403944558650751e-03
4.238790551672932452e+03 8.333120144747185876e-01 3.926982966325915855e-03
4.243029342224606808e+03 8.215839400104296697e-01 3.710854196785596908e-03
4.247272371566832589e+03 8.097175143142327780e-01 3.687158097213655370e-03
4.251519643938400804e+03 7.991152918893500434e-01 3.398823075994633364e-03
4.255771163582340705e+03 7.849753046198217898e-01 4.490681795639139481e-03
4.260026934745924336e+03 7.733455064623971920e-01 4.808664329045073994e-03
4.264286961680671993e+03 7.630370640883290534e-01 4.728638384748075699e-03
4.268551248642354039e+03 7.540072181965064013e-01 4.039833496111203820e-03
4.272819799890998183e+03 7.487129935513868739e-01 4.937668823466343816e-03
4.277092619690890388e+03 7.481394046642405593e-01 6.985616899522575397e-03
4.281369712310583054e+03 7.439983762346265017e-01 6.666111438192550559e-03
4.285651082022895025e+03 7.360581691110431590e-01 6.622943982056917617e-03
4.289936733104918858e+03 7.268649833546444450e-01 7.397692566404203904e-03
4.294226669838025373e+03 7.177061184496237312e-01 8.049981604433700463e-03
4.298520896507864563e+03 7.101191015630724523e-01 8.109846670424155843e-03
4.302819417404373780e+03 7.076586282783848825e-01 7.957158698403594271e-03
4.307122236821779552e+03 7.063104298176967610e-01 7.750286755613707348e-03
4.311429359058603040e+03 7.060134382288981714e-01 6.950995110058541017e-03
4.315740788417662770e+03 7.112583829958950554e-01 7.635012028336686345e-03
4.320056529206081905e+03 7.193720777699810220e-01 8.106132386108709509e-03
4.324376585735290064e+03 7.267345488777054996e-01 7.680539706134599694e-03
4.328700962321026054e+03 7.332396399100538087e-01 6.798990324243914252e-03
4.333029663283348782e+03 7.392570305755226112e-01 5.518515523049026712e-03
4.337362692946633615e+03 7.380338685626994799e-01 5.464938176081639634e-03
4.341700055639581478e+03 7.313564433011181531e-01 5.425265949476703285e-03
4.346041755695222491e+03 7.170870667513853380e-01 5.047479948709236719e-03
4.350387797450919606e+03 6.980675119183639143e-01 5.046063662746199004e-03
4.354738185248371337e+03 6.758120957564535125e-01 5.318881727788115493e-03
4.359092923433621763e+03 6.496813671216092878e-01 4.233721407885957834e-03
4.363452016357056891e+03 6.175867455322737731e-01 5.848086598077379891e-03
4.367815468373414660e+03 5.829072575063980466e-01 7.869613576582284650e-03
4.372183283841789489e+03 5.520730341644630723e-01 8.019591299654153446e-03
4.376555467125633186e+03 5.277922354855391074e-01 7.090814815971987865e-03
4.380932022592760404e+03 5.118399502174304505e-01 6.123993834879584187e-03
4.385312954615354101e+03 5.073113805898271655e-01 6.243820888866747319e-03
4.389698267569970994e+03 5.093192307213560976e-01 5.794214668666042463e-03
4.394087965837542470e+03 5.240066316056295470e-01 6.109676603704846179e-03
4.398482053803381859e+03 5.507832552886736677e-01 5.730694062786852692e-03
4.402880535857186260e+03 5.838770719380376173e-01 4.695372606894031298e-03
4.407283416393044718e+03 6.203573551714856027e-01 4.237344625839902131e-03
4.411690699809440048e+03 6.576305155984141226e-01 4.131037353610847798e-03
4.416102390509250654e+03 6.963787033023276507e-01 4.868240324700148954e-03
4.420518492899761441e+03 7.285741029077266173e-01 4.734913286848059510e-03
4.424939011392662906e+03 7.538545468315640541e-01 4.837300994570708015e-03
4.429363950404056595e+03 7.741242648003494597e-01 4.745713312195117342e-03
4.433793314354462382e+03 7.904677271695703666e-01 4.668983370586973249e-03
4.438227107668818462e+03 8.018998874253198128e-01 4.706184666528698962e-03
4.442665334776488635e+03 8.074685419577867229e-01 5.016758113169754452e-03
4.447108000111265937e+03 8.077873198395485455e-01 4.850617333431167001e-03
4.451555108111379013e+03 8.052682846962203600e-01 3.674892578235576090e-03
4.456006663219492111e+03 8.036544252779348474e-01 3.562424289315435991e-03
4.460462669882713271e+03 8.009080700588495638e-01 3.526934042677583054e-03
4.464923132552597053e+03 7.985046353251914475e-01 3.923309033623997508e-03
4.469388055685150903e+03 7.993307980919943656e-01 3.911101928504485264e-03
4.473857443740837880e+03 8.013147122218028384e-01 3.783904207753550734e-03
4.478331301184580298e+03 8.077081985200412761e-01 4.774125929600536895e-03
4.482809632485766087e+03 8.132455972641591257e-01 5.094888115308389247e-03
4.487292442118253348e+03 8.160848602033241583e-01 5.067871337519862587e-03
4.491779734560373072e+03 8.167379869747813936e-01 5.115832619629007670e-03
4.496271514294934605e+03 8.185080886371584041e-01 5.084332082511757410e-03
4.500767785809231100e+03 8.208739687758001002e-01 4.419041019952872976e-03
4.505268553595042249e+03 8.195668583569859500e-01 5.077430189031156144e-03
4.509773822148638828e+03 8.185968710689384142e-01 5.267846743442580575e-03
4.514283595970789065e+03 8.203800586532511430e-01 5.445758782780657330e-03
4.518797879566761367e+03 8.254120651293970212e-01 5.123540387768472926e-03
4.523316677446328868e+03 8.364823699130939927e-01 4.888194006772260923e-03
4.527839994123776705e+03 8.509222966831252455e-01 4.665508875045306682e-03
4.532367834117902021e+03 8.703217690384097427e-01 4.754297905391893612e-03
4.536900201952022144e+03 8.950290459515778396e-01 4.673032078943178957e-03
4.541437102153975502e+03 9.237358935884717459e-01 3.242446066713739090e-03
4.545978539256130716e+03 9.510529987746270120e-01 2.850114440132966043e-03
4.550524517795388419e+03 9.759955596903484576e-01 2.925617911851017584e-03
4.555075042313184895e+03 9.986552440672583630e-01 3.354406967059752470e-03
4.559630117355500261e+03 1.016843825512402599e+00 3.402914467771627361e-03
4.564189747472856652e+03 1.031243807600281004e+00 2.981835100547395884e-03
4.568753937220330954e+03 1.036954278369405902e+00 2.969926529621389616e-03
4.573322691157552981e+03 1.034803721600515924e+00 3.882683480060884328e-03
4.577896013848711846e+03 1.027825920319735076e+00 3.740737804867198986e-03
4.582473909862562323e+03 1.021324056662010316e+00 4.245353818525389282e-03
4.587056383772426670e+03 1.009078440675852617e+00 4.199284736717576877e-03
4.591643440156200086e+03 9.918209516490640310e-01 4.502566862026183454e-03
4.596235083596357981e+03 9.737239357312790222e-01 5.190433472134684152e-03
4.600831318679955984e+03 9.569320766538504941e-01 5.645831512461450472e-03
4.605432149998637215e+03 9.461026262228623418e-01 5.320063228990938933e-03
4.610037582148637739e+03 9.444460082458507877e-01 5.249231818460333397e-03
4.614647619730787483e+03 9.474128208371884741e-01 5.086768694375473111e-03
4.619262267350520233e+03 9.605967648906165168e-01 5.332665464439234788e-03
4.623881529617872729e+03 9.811258501808929333e-01 6.065038570012119996e-03
4.628505411147491941e+03 1.006522327279747664e+00 6.563810624622754344e-03
4.633133916558640522e+03 1.035534917776431474e+00 7.170365436026666754e-03
4.637767050475200449e+03 1.064076905570213061e+00 6.687085122165215174e-03
4.642404817525677572e+03 1.091537347727760343e+00 5.861141012035297505e-03
4.647047222343205249e+03 1.116023747222490758e+00 5.546195505182916624e-03
4.651694269565549803e+03 1.138060754604550029e+00 5.179773697186580532e-03
4.656345963835116891e+03 1.151921337080588970e+00 5.084555185063088269e-03
4.661002309798953320e+03 1.159738923761322926e+00 3.932342914126032811e-03
4.665663312108753416e+03 1.163855849231984596e+00 3.694468472552593641e-03
4.670328975420864481e+03 1.166109017316425245e+00 3.742916101693442507e-03
4.674999304396286789e+03 1.160640656122894798e+00 3.905396888251925352e-03
4.679674303700684504e+03 1.150561108758612505e+00 4.642062425954279412e-03
4.684353978004386590e+03 1.138392447717014866e+00 4.910078235820433505e-03
4.689038331982392265e+03 1.124881776369921482e+00 4.794088796734179668e-03
4.693727370314376458e+03 1.111238154852551396e+00 4.731223441024950613e-03
4.698421097684692540e+03 1.097895374780223809e+00 4.625972414665123315e-03
4.703119518782378691e+03 1.082832651839519933e+00 3.609459625618381077e-03
4.707822638301162442e+03 1.072638856926394046e+00 3.910705654436149800e-03
4.712530460939465229e+03 1.064449959352878006e+00 4.238452674675374787e-03
4.717242991400406027e+03 1.057550020961955495e+00 4.058499887681200381e-03
4.721960234391808626e+03 1.053289543302294851e+00 3.051349235752307508e-03
4.726682194626201635e+03 1.046866312541264499e+00 3.138461161444835740e-03
4.731408876820829391e+03 1.040089827909013165e+00 3.532122953658602127e-03
4.736140285697651962e+03 1.033839988466043858e+00 3.433474953297266808e-03
4.740876425983350600e+03 1.029459764281185796e+00 3.392457055784427189e-03
4.745617302409335934e+03 1.024328492733644680e+00 3.163588676734317619e-03
4.750362919711747054e+03 1.019328888751707352e+00 3.138756105250951108e-03
4.755113282631459697e+03 1.015496447880427811e+00 3.005045515102494971e-03
4.759868395914093526e+03 1.011397940643503413e+00 2.381060913711108458e-03
4.764628264310008490e+03 1.003877498126624745e+00 2.454031868069994540e-03
4.769392892574320285e+03 9.951861011380414013e-01 2.425130796767028390e-03
4.774162285466896719e+03 9.853848310668122945e-01 2.674823564565144418e-03
4.778936447752364984e+03 9.728409299896556561e-01 2.903510293614514851e-03
4.783715384200118933e+03 9.546751549685895677e-01 2.847400420430954305e-03
4.788499099584319993e+03 9.323120340968958919e-01 2.892177729209225237e-03
4.793287598683906253e+03 9.060514778194285190e-01 2.722639231831233686e-03
4.798080886282591564e+03 8.777117461399112086e-01 2.658702152635490385e-03
4.802878967168876443e+03 8.462326791016039351e-01 2.696658937951615029e-03
4.807681846136046261e+03 8.120669136265559196e-01 3.060796391097118842e-03
4.812489527982183972e+03 7.780682588247572751e-01 3.167211092985094956e-03
4.817302017510168298e+03 7.423754143159552177e-01 2.932974919628138916e-03
4.822119319527679181e+03 7.088744196533985908e-01 2.382593298258603269e-03
4.826941438847208701e+03 6.775656130634856167e-01 2.225706843542605597e-03
4.831768380286057436e+03 6.502518561870909153e-01 2.429277495672790225e-03
4.836600148666345376e+03 6.253811750881995701e-01 2.220925048734673311e-03
4.841436748815013743e+03 6.026635886479300153e-01 2.476504464161450626e-03
4.846278185563829538e+03 5.848064776383355978e-01 2.399794988079252331e-03
4.851124463749395545e+03 5.700308262472703058e-01 2.374542492630278036e-03
4.855975588213146693e+03 5.588101515868829638e-01 2.487119039524433080e-03
