# starting wavelength: 3122.030
# ending wavelength: 8265.110
# wav flux eflux
3.124987801671431043e+03 -4.634335868767319733e-02 9.282809235504672560e-03
3.128112789473103476e+03 -3.843853463135482595e-04 9.911849352906634825e-03
3.131240902262577492e+03 4.090181340100926266e-02 7.323363692511592610e-03
3.134372143164840963e+03 7.611323229816910341e-02 6.442756406573374797e-03
3.137506515308006783e+03 1.077566410244513995e-01 5.447745169858710795e-03
3.140644021823316052e+03 1.371674733618845066e-01 4.365105611748277235e-03
3.143784665845140353e+03 1.642097367658709728e-01 3.548224228190679456e-03
3.146928450510986750e+03 1.890452431292592161e-01 2.987318448595545350e-03
3.150075378961498700e+03 2.120069821332814519e-01 2.499420023534767912e-03
3.153225454340461056e+03 2.328979705493303687e-01 2.136382599061022181e-03
3.156378679794802792e+03 2.516262246933311242e-01 1.873411970344968395e-03
3.159535058474598372e+03 2.686025958245564782e-01 1.657037683962855846e-03
3.162694593533074112e+03 2.838305083905090509e-01 1.492913567708585446e-03
3.165857288126608182e+03 2.975893366555687480e-01 1.379234820934374531e-03
3.169023145414736064e+03 3.097929389908365971e-01 1.289978823961379596e-03
3.172192168560151458e+03 3.208429518935457248e-01 1.234265285778438255e-03
3.175364360728712654e+03 3.303971218174630575e-01 1.180706708238903188e-03
3.178539725089442527e+03 3.385009553424997431e-01 1.176356316105756734e-03
3.181718264814533086e+03 3.455672844320687442e-01 1.204170212704721741e-03
3.184899983079348658e+03 3.519228710305610797e-01 1.258679632566934341e-03
3.188084883062429071e+03 3.574968058346811306e-01 1.353545995911372736e-03
3.191272967945492383e+03 3.624481328613158859e-01 1.396783862991571182e-03
3.194464240913438971e+03 3.670556885423220672e-01 1.384542238406280502e-03
3.197658705154353811e+03 3.715979182163873795e-01 1.366522632390452293e-03
3.200856363859509202e+03 3.759496484065583122e-01 1.380990343504999527e-03
3.204057220223369768e+03 3.801432936987667599e-01 1.426712157845199487e-03
3.207261277443593826e+03 3.838046761464933843e-01 1.440079760874499399e-03
3.210468538721038840e+03 3.869889329171471437e-01 1.428057147731801556e-03
3.213679007259760965e+03 3.902635559670700194e-01 1.499454492784547434e-03
3.216892686267021418e+03 3.930314721579046822e-01 1.541249734534126193e-03
3.220109578953289656e+03 3.958119910381401874e-01 1.591889499009651286e-03
3.223329688532243836e+03 3.981304274905427265e-01 1.642064739986140876e-03
3.226553018220777176e+03 4.005251471607811919e-01 1.704995056883901183e-03
3.229779571238999324e+03 4.025777485974314507e-01 1.663646330267067562e-03
3.233009350810239084e+03 4.040357799784612958e-01 1.495329004898402966e-03
3.236242360161050783e+03 4.045716614138836764e-01 1.246098888635027930e-03
3.239478602521212906e+03 4.038626372580638169e-01 1.124421287523562048e-03
3.242718081123734919e+03 4.014570683308605337e-01 1.106357306874910336e-03
3.245960799204859995e+03 3.990061829811085703e-01 1.053192096727501546e-03
3.249206760004065927e+03 3.954463454247738041e-01 9.846324208921239298e-04
3.252455966764071036e+03 3.908424133595318484e-01 9.802681010519489948e-04
3.255708422730835991e+03 3.851641868675215186e-01 9.853744740911819094e-04
3.258964131153567905e+03 3.787402827850180342e-01 9.887034497588977240e-04
3.262223095284722604e+03 3.713075331387942768e-01 1.024330087321580684e-03
3.265485318380008266e+03 3.626583244313801302e-01 1.107860717215831438e-03
3.268750803698389518e+03 3.536954530577232081e-01 9.688393534774684176e-04
3.272019554502088795e+03 3.441714330795566656e-01 9.531424659655428734e-04
3.275291574056592253e+03 3.349406360757326562e-01 9.757522967593715030e-04
3.278566865630649772e+03 3.256086477544512525e-01 1.050886091855075853e-03
3.281845432496281319e+03 3.165146247329866935e-01 1.159774592006812413e-03
3.285127277928778767e+03 3.079814386594210140e-01 1.289134760484432528e-03
3.288412405206708627e+03 2.993834803767234098e-01 1.240296135741513839e-03
3.291700817611916591e+03 2.917769297244079407e-01 1.163158450019160248e-03
3.294992518429529355e+03 2.849951466562886671e-01 1.054468540867518987e-03
3.298287510947960072e+03 2.791353251552273762e-01 9.286780061098684176e-04
3.301585798458909267e+03 2.743465381059479458e-01 8.517188475339976337e-04
3.304887384257369376e+03 2.709584882716321586e-01 9.068120766854188700e-04
3.308192271641627485e+03 2.688609001128287046e-01 9.317016547356279672e-04
3.311500463913270323e+03 2.677931791919839766e-01 9.318447252291808857e-04
3.314811964377184722e+03 2.676644727628751941e-01 9.959139720026701555e-04
3.318126776341563072e+03 2.681509196131044992e-01 1.062082192289892993e-03
3.321444903117905596e+03 2.690533812388153923e-01 1.088555139146403982e-03
3.324766348021024896e+03 2.710061824509972794e-01 1.029600161495048760e-03
3.328091114369046863e+03 2.733409669839564904e-01 1.086523170468314640e-03
3.331419205483417045e+03 2.760815575059503701e-01 1.114685138042312198e-03
3.334750624688901553e+03 2.791116472373502133e-01 9.578510454918914103e-04
3.338085375313591612e+03 2.820945883830983658e-01 7.463545684677074400e-04
3.341423460688906289e+03 2.836585791656950351e-01 7.465007961295380386e-04
3.344764884149596128e+03 2.845838016872854204e-01 7.553266224374161281e-04
3.348109649033746791e+03 2.848145457398661429e-01 7.501443846510002936e-04
3.351457758682781787e+03 2.844182548802104971e-01 7.396799981247385988e-04
3.354809216441465651e+03 2.829919371227639924e-01 7.943692339364737728e-04
3.358164025657908041e+03 2.812475793956415449e-01 8.726532593027374121e-04
3.361522189683567376e+03 2.788982543967397643e-01 1.031820681463840785e-03
3.364883711873251741e+03 2.763121999799296735e-01 1.136478778839238339e-03
3.368248595585126168e+03 2.730107853150984809e-01 1.257941666437209071e-03
3.371616844180712633e+03 2.700835273275409842e-01 1.153848106318012623e-03
3.374988461024894150e+03 2.672180571380217695e-01 1.162906425611547750e-03
3.378363449485920228e+03 2.649434950328595773e-01 1.121518102819375143e-03
3.381741812935407324e+03 2.627390004360988240e-01 9.642944905825550283e-04
3.385123554748343849e+03 2.613344011826351787e-01 7.749805949571165423e-04
3.388508678303093347e+03 2.608614402313441105e-01 6.996740363522644703e-04
3.391897186981397681e+03 2.618631715477974797e-01 8.190102025866737891e-04
3.395289084168380214e+03 2.638383880608812238e-01 8.776163136040339170e-04
3.398684373252549449e+03 2.667340968872215501e-01 8.607923185252619198e-04
3.402083057625803121e+03 2.705850514458145728e-01 7.993426456782551977e-04
3.405485140683430018e+03 2.752695884253366088e-01 6.873630747018517721e-04
3.408890625824114522e+03 2.807388399666731482e-01 6.546884002219702063e-04
3.412299516449939802e+03 2.872373438672694568e-01 6.387741759327901937e-04
3.415711815966390986e+03 2.943366044286408467e-01 6.169047777832319590e-04
3.419127527782358356e+03 3.018128033325149229e-01 6.114579668087464885e-04
3.422546655310141887e+03 3.097793324517535418e-01 5.434072128848143604e-04
3.425969201965453522e+03 3.186811835922367941e-01 5.629900829880967296e-04
3.429395171167419903e+03 3.282853889011284054e-01 5.713399437642135070e-04
3.432824566338588284e+03 3.385031159485497598e-01 5.818044008224393685e-04
3.436257390904928343e+03 3.490292154866916907e-01 6.177933754797338382e-04
3.439693648295834464e+03 3.600189424918878722e-01 7.225934400770046753e-04
3.443133341944131189e+03 3.715551016928610450e-01 8.663705194354999169e-04
3.446576475286076402e+03 3.838557864059015667e-01 8.824437337154838849e-04
3.450023051761363604e+03 3.967410008705872237e-01 9.015354262042722536e-04
3.453473074813126004e+03 4.101538980247760868e-01 8.987636740071285523e-04
3.456926547887940615e+03 4.239701340482056602e-01 9.051330377763841485e-04
3.460383474435829612e+03 4.379925303734674147e-01 9.735952077586756655e-04
3.463843857910266706e+03 4.516972399371657065e-01 1.109789931454781709e-03
3.467307701768178049e+03 4.654168559466025923e-01 1.410578414465803697e-03
3.470775009469947236e+03 4.782727753718883923e-01 1.604800510461078331e-03
3.474245784479418489e+03 4.894931929319337183e-01 1.795599027450808056e-03
3.477720030263898934e+03 4.985210731547642937e-01 1.745256801421430455e-03
3.481197750294164052e+03 5.062581965825345698e-01 1.680154241405104132e-03
3.484678948044459503e+03 5.113654028147501807e-01 1.363778683196969869e-03
3.488163626992504760e+03 5.131503871298788155e-01 1.025473448625355451e-03
3.491651790619498570e+03 5.119335034941594476e-01 7.465437835007217781e-04
3.495143442410119405e+03 5.063507720718217753e-01 8.879261727201283837e-04
3.498638585852530468e+03 4.975020444211526449e-01 1.138773453322009747e-03
3.502137224438384237e+03 4.859194142701038222e-01 1.412967890942047567e-03
3.505639361662823831e+03 4.717309869169016845e-01 1.413375997948841537e-03
3.509145001024487556e+03 4.562325896327314445e-01 1.121163560176671650e-03
3.512654146025513455e+03 4.397049105021903492e-01 8.568612575630233123e-04
3.516166800171540217e+03 4.232910875157342989e-01 7.586150958563866575e-04
3.519682966971712631e+03 4.068878373376486612e-01 8.084548077631328660e-04
3.523202649938685681e+03 3.910651504345675766e-01 8.311583075639409224e-04
3.526725852588625457e+03 3.770147818512997184e-01 7.490643103076019028e-04
3.530252578441215064e+03 3.650935417763692126e-01 6.810255109726431368e-04
3.533782831019657806e+03 3.558610881311435881e-01 6.945252576320103252e-04
3.537316613850678550e+03 3.490769649762991977e-01 6.983595067806849755e-04
3.540853930464530094e+03 3.453582681810437593e-01 7.783985838942201075e-04
3.544394784394995895e+03 3.441119583381892499e-01 7.814795038578750902e-04
3.547939179179392340e+03 3.458965272880617503e-01 7.892080709601204938e-04
3.551487118358572843e+03 3.508585509996774432e-01 8.206057340176902380e-04
3.555038605476932389e+03 3.583015192721964448e-01 8.278305173185126738e-04
3.558593644082410719e+03 3.683968398289098611e-01 8.297195244284030768e-04
3.562152237726494150e+03 3.809549212062864343e-01 8.020292166651902394e-04
3.565714389964221937e+03 3.953730255475868538e-01 9.297864854212117358e-04
3.569280104354187188e+03 4.120829941778203498e-01 9.339258782022207429e-04
3.572849384458542772e+03 4.308538397273324327e-01 9.605295621548296360e-04
3.576422233843002232e+03 4.507923257802647354e-01 9.916781960795631370e-04
3.579998656076846601e+03 4.710588582736073282e-01 1.023387728901686789e-03
3.583578654732924406e+03 4.917555953063884044e-01 1.046552622471870996e-03
3.587162233387658489e+03 5.126790061237851415e-01 1.342010876359829574e-03
3.590749395621047370e+03 5.333903481942686708e-01 1.557485893456623301e-03
3.594340145016669794e+03 5.533443068822185840e-01 1.268229835805661284e-03
3.597934485161687462e+03 5.691313202802384952e-01 1.138734632754481594e-03
3.601532419646850485e+03 5.815192233487977980e-01 1.082489609283708186e-03
3.605133952066498296e+03 5.904086731276326772e-01 1.014900105024949678e-03
3.608739086018566013e+03 5.956373989897945087e-01 1.079163213451944875e-03
3.612347825104585809e+03 5.968819034905725740e-01 1.410799316322018833e-03
3.615960172929691907e+03 5.952398029765838539e-01 1.549539178484540683e-03
3.619576133102622407e+03 5.904873196727757900e-01 1.545498055099272117e-03
3.623195709235726554e+03 5.847209351856114123e-01 1.334720214692079179e-03
3.626818904944963379e+03 5.787465408950707157e-01 1.195750963253367676e-03
3.630445723849909427e+03 5.732460648172326145e-01 9.448099390769251760e-04
3.634076169573760581e+03 5.691861816844627775e-01 8.922945063129851008e-04
3.637710245743335690e+03 5.664919712570852806e-01 8.015813456238411738e-04
3.641347955989080219e+03 5.653603664182892397e-01 6.345798104994681285e-04
3.644989303945070333e+03 5.668655492926958361e-01 7.982384188863124062e-04
3.648634293249016537e+03 5.701283186349858090e-01 1.085255081326886445e-03
3.652282927542266862e+03 5.736631426390939037e-01 1.239923153350415679e-03
3.655935210469810499e+03 5.768044012322680603e-01 1.288794752974789732e-03
3.659591145680281443e+03 5.796875650334281094e-01 1.198084062492459859e-03
3.663250736825963031e+03 5.812561442699273329e-01 9.119959173389292906e-04
3.666913987562790226e+03 5.807583410030559001e-01 6.312629428532831339e-04
3.670580901550354156e+03 5.772833469720013433e-01 6.048498645962482965e-04
3.674251482451905758e+03 5.712418151082800932e-01 6.162976398841266135e-04
3.677925733934358959e+03 5.623418440497812698e-01 8.385520466632911821e-04
3.681603659668294313e+03 5.512467691506344192e-01 9.978904436534869696e-04
3.685285263327964003e+03 5.381730396498154434e-01 1.051035049338813927e-03
3.688970548591293209e+03 5.243583940516474140e-01 1.103181713644532961e-03
3.692659519139885560e+03 5.096014260649215366e-01 9.050808468372328799e-04
3.696352178659026777e+03 4.955006291660364326e-01 7.825089788285490401e-04
3.700048530837686940e+03 4.819118777065011239e-01 7.539008160116153229e-04
3.703748579368525952e+03 4.688717020073368547e-01 9.416194191383708053e-04
3.707452327947895355e+03 4.558738575951595262e-01 1.073431967384162050e-03
3.711159780275844696e+03 4.425482816374358697e-01 1.139141097229396608e-03
3.714870940056121526e+03 4.293480263932858421e-01 1.220841267487703715e-03
3.718585810996179134e+03 4.153749929909765215e-01 8.847781955112796019e-04
3.722304396807176545e+03 3.995086763947294783e-01 5.878869580401856242e-04
3.726026701203984885e+03 3.816364106346110674e-01 5.307738621613662883e-04
3.729752727905190113e+03 3.619313980307580225e-01 5.570247981989618269e-04
3.733482480633096657e+03 3.405063298315940679e-01 5.394538681383934890e-04
3.737215963113731050e+03 3.175917941463445304e-01 5.465461670873442536e-04
3.740953179076846027e+03 2.936471160240711198e-01 4.956307819008246279e-04
3.744694132255923705e+03 2.690390380304843454e-01 6.260025458285085453e-04
3.748438826388181042e+03 2.443547560178509770e-01 7.542143055650121081e-04
3.752187265214570289e+03 2.206109027458164895e-01 9.245969751708121246e-04
3.755939452479786269e+03 1.982503804116567681e-01 1.046836249427548051e-03
3.759695391932267285e+03 1.781544821144717405e-01 1.029916435797008801e-03
3.763455087324201031e+03 1.605251780117267213e-01 7.522911826684747314e-04
3.767218542411526414e+03 1.463568089829070940e-01 7.052635711933761533e-04
3.770985760953939007e+03 1.355998924194690147e-01 9.120508523712824670e-04
3.774756746714894234e+03 1.278937494372930639e-01 1.026689742977215025e-03
3.778531503461610555e+03 1.226693313406877067e-01 1.072755984441048317e-03
3.782310034965073100e+03 1.196854732643852920e-01 1.081893545402165925e-03
3.786092345000039586e+03 1.189956305993190577e-01 7.708696925538724128e-04
3.789878437345040766e+03 1.192830602065554357e-01 4.925313031694111702e-04
3.793668315782387253e+03 1.202841429406689283e-01 4.387882005822858755e-04
3.797461984098170888e+03 1.216924354583433787e-01 4.470795587903098880e-04
3.801259446082270188e+03 1.232749474139196860e-01 3.790666792656725782e-04
3.805060705528353537e+03 1.254137072307431877e-01 4.419856537671536852e-04
3.808865766233883278e+03 1.275016729285359252e-01 4.507349445562546615e-04
3.812674632000118436e+03 1.298171957156530054e-01 4.125766068117170870e-04
3.816487306632119726e+03 1.320226227204236435e-01 4.401502760467540239e-04
3.820303793938753188e+03 1.344384396781711788e-01 4.639333114930163627e-04
3.824124097732693372e+03 1.369975928270726062e-01 5.163149444429596330e-04
3.827948221830427428e+03 1.397879636196549258e-01 4.988567961637728173e-04
3.831776170052258749e+03 1.430020437737759553e-01 4.564021096128397046e-04
3.835607946222312421e+03 1.468160917164233470e-01 3.481141903892018079e-04
3.839443554168536139e+03 1.517529280976628592e-01 4.029205472743787263e-04
3.843282997722705659e+03 1.576794312475115478e-01 4.004630948083193892e-04
3.847126280720429804e+03 1.645520780226074897e-01 4.145049035447741031e-04
3.850973407001151372e+03 1.728408276143391653e-01 4.256129476388781385e-04
3.854824380408153957e+03 1.826495172102356457e-01 4.529392026970756172e-04
3.858679204788563311e+03 1.938871140424923978e-01 3.935184294112975176e-04
3.862537883993353262e+03 2.065947049035042338e-01 4.273037990815905271e-04
3.866400421877347981e+03 2.211259595880434303e-01 4.101625902073714140e-04
3.870266822299226533e+03 2.377180882381719762e-01 4.605408439423705827e-04
3.874137089121526969e+03 2.564337434443972885e-01 5.688701597281132973e-04
3.878011226210649966e+03 2.781433144454104056e-01 1.024906851423780128e-03
3.881889237436861549e+03 3.031154921570134997e-01 1.751873824947749797e-03
3.885771126674299921e+03 3.324143249110548815e-01 2.278062523303679004e-03
3.889656897800975457e+03 3.672501405530738672e-01 2.369256761785203634e-03
3.893546554698777527e+03 4.083593707569354581e-01 2.052109364027150749e-03
3.897440101253477678e+03 4.559246417583302513e-01 1.628098452187293384e-03
3.901337541354732366e+03 5.096706623966281713e-01 1.947406668046986920e-03
3.905238878896088409e+03 5.680910490745361141e-01 2.782464339825740148e-03
3.909144117774985716e+03 6.292460542878859364e-01 3.467320491376788948e-03
3.913053261892762293e+03 6.907757095033065786e-01 3.752857015730842044e-03
3.916966315154656058e+03 7.491109568636100668e-01 3.464653134854923499e-03
3.920883281469812118e+03 8.015365761488481011e-01 2.890172859051412350e-03
3.924804164751283224e+03 8.457512844991839085e-01 1.849681369947968465e-03
3.928728968916035683e+03 8.796047382759195621e-01 8.869069911483831161e-04
3.932657697884953450e+03 9.022221137877357577e-01 8.379201755412704579e-04
3.936590355582839493e+03 9.138417707773128784e-01 1.238399906891054060e-03
3.940526945938423523e+03 9.152525286510042601e-01 1.894095351057015859e-03
3.944467472884363360e+03 9.094103703883651413e-01 2.472792576035562698e-03
3.948411940357249023e+03 8.981647576400775268e-01 2.866148189204260552e-03
3.952360352297607733e+03 8.846824654461004078e-01 3.071663011623854741e-03
3.956312712649906643e+03 8.712937248205324670e-01 3.225213520345230223e-03
3.960269025362557841e+03 8.612903284534718651e-01 2.935350965395728401e-03
3.964229294387921527e+03 8.572685527984692522e-01 2.275326890897599874e-03
3.968193523682310570e+03 8.610768800118352440e-01 1.570618599073005583e-03
3.972161717205994591e+03 8.731660419605066226e-01 1.581200462904349888e-03
3.976133878923201792e+03 8.939416227194453279e-01 2.918886118197614333e-03
3.980110012802126221e+03 9.212978237951694460e-01 4.077902219142726971e-03
3.984090122814929600e+03 9.527477556593038077e-01 4.628286024814139143e-03
3.988074212937745870e+03 9.854322159752815224e-01 4.166195935452379762e-03
3.992062287150684824e+03 1.016387777042982776e+00 3.289959870954293347e-03
3.996054349437837118e+03 1.043645218637435867e+00 2.297638766082205769e-03
4.000050403787276082e+03 1.065641732874912595e+00 2.170360769900406099e-03
4.004050454191064546e+03 1.082067923446182300e+00 2.590974916729612155e-03
4.008054504645257111e+03 1.093596460031135420e+00 2.897796803147984976e-03
4.012062559149903791e+03 1.100596212370124283e+00 2.931877533506853113e-03
4.016074621709055009e+03 1.104189294053764536e+00 2.395147466038538737e-03
4.020090696330765240e+03 1.106845294970827620e+00 1.671321713572866728e-03
4.024110787027097558e+03 1.109710217986411562e+00 9.757885270519025579e-04
4.028134897814125907e+03 1.113771187394617224e+00 8.253454049273299545e-04
4.032163032711941469e+03 1.118976880085428505e+00 1.433359482047661922e-03
4.036195195744654484e+03 1.124768077875891059e+00 2.017296620556720613e-03
4.040231390940400615e+03 1.129715306675916020e+00 2.111822303899231479e-03
4.044271622331342314e+03 1.132794272417766646e+00 1.912843713867711914e-03
4.048315893953675186e+03 1.132860314934783785e+00 1.827606718390365056e-03
4.052364209847629809e+03 1.130934516067767737e+00 1.574737946910317182e-03
4.056416574057479011e+03 1.126051411288363058e+00 1.493397162737492576e-03
4.060472990631537868e+03 1.118262945978492517e+00 1.817739517361834003e-03
4.064533463622170530e+03 1.107843941665569432e+00 2.255572492580175826e-03
4.068597997085794304e+03 1.096190292280858847e+00 2.238687428825603988e-03
