# starting wavelength: 3470.980
# ending wavelength: 7352.910
# wav flux eflux
3.474245784479418489e+03 3.626177188020776043e-01 1.633308681550347044e-02
3.477720030263898934e+03 3.669938678856624614e-01 1.354275623207259333e-02
3.481197750294164052e+03 3.674365425777160188e-01 1.057072615336303138e-02
3.484678948044459503e+03 3.669245905555997278e-01 8.452567937980826063e-03
3.488163626992504760e+03 3.662035440853116386e-01 7.106319472040960837e-03
3.491651790619498570e+03 3.665987908730858336e-01 5.805687927783477129e-03
3.495143442410119405e+03 3.674167018830760134e-01 4.962715269203006596e-03
3.498638585852530468e+03 3.696341685880804029e-01 4.712617245696110700e-03
3.502137224438384237e+03 3.722708435675403105e-01 4.222348902981340642e-03
3.505639361662823831e+03 3.756028939990562754e-01 3.902516221862950292e-03
3.509145001024487556e+03 3.786626632950245708e-01 3.589598451880820357e-03
3.512654146025513455e+03 3.804269072166964749e-01 3.490999768058825579e-03
3.516166800171540217e+03 3.815274887764410483e-01 3.628674923231764611e-03
3.519682966971712631e+03 3.831869927681633703e-01 3.687236896230361178e-03
3.523202649938685681e+03 3.868861737707156578e-01 3.546414236668532331e-03
3.526725852588625457e+03 3.915936920905463414e-01 3.489901825438958185e-03
3.530252578441215064e+03 3.965631457262042137e-01 3.574075845162361011e-03
3.533782831019657806e+03 4.014325759447190944e-01 3.587889303613206547e-03
3.537316613850678550e+03 4.065140335938064453e-01 3.590424873085615136e-03
3.540853930464530094e+03 4.125414385967253739e-01 3.529381431677229824e-03
3.544394784394995895e+03 4.189549607439586043e-01 3.458109597072434038e-03
3.547939179179392340e+03 4.261245951074054683e-01 3.636314354167902337e-03
3.551487118358572843e+03 4.337644422533946664e-01 3.825545067444016158e-03
3.555038605476932389e+03 4.414149968072762498e-01 4.027161647222891189e-03
3.558593644082410719e+03 4.487773417750399729e-01 4.122748247873912232e-03
3.562152237726494150e+03 4.563545224035893688e-01 4.121625227734321273e-03
3.565714389964221937e+03 4.621272899855168315e-01 4.036330023746120821e-03
3.569280104354187188e+03 4.670557705438416751e-01 3.898347323696633657e-03
3.572849384458542772e+03 4.706598631665841470e-01 3.956410628553619357e-03
3.576422233843002232e+03 4.736501118546411759e-01 3.812564003324683034e-03
3.579998656076846601e+03 4.747791983036992458e-01 3.759525391477959531e-03
3.583578654732924406e+03 4.736791297573960113e-01 3.779690411018105448e-03
3.587162233387658489e+03 4.726513225142737751e-01 3.608061844179254792e-03
3.590749395621047370e+03 4.691546385401273445e-01 3.664168454238991672e-03
3.594340145016669794e+03 4.638778264322881428e-01 3.908947542587716366e-03
3.597934485161687462e+03 4.549985630234454903e-01 3.686879393812949809e-03
3.601532419646850485e+03 4.467399736789143261e-01 3.133458092462980838e-03
3.605133952066498296e+03 4.375957264435729743e-01 2.927716528442892222e-03
3.608739086018566013e+03 4.291357411197850302e-01 2.526369536266472732e-03
3.612347825104585809e+03 4.205950904865610185e-01 2.399906381747566979e-03
3.615960172929691907e+03 4.124646203567242098e-01 2.241714076133658959e-03
3.619576133102622407e+03 4.062275831465150810e-01 2.213832114511932268e-03
3.623195709235726554e+03 4.001005265636053965e-01 2.224726019043035598e-03
3.626818904944963379e+03 3.960488031468956671e-01 2.199847059016806633e-03
3.630445723849909427e+03 3.913215658695428090e-01 2.105116537805143493e-03
3.634076169573760581e+03 3.880664629967911505e-01 2.080077698398630215e-03
3.637710245743335690e+03 3.876668209841725998e-01 2.725816162527449661e-03
3.641347955989080219e+03 3.891216060169518376e-01 3.096757763247469462e-03
3.644989303945070333e+03 3.891106545739877465e-01 2.999640438575286797e-03
3.648634293249016537e+03 3.878634086273287096e-01 3.104578036680700343e-03
3.652282927542266862e+03 3.865685088804942660e-01 3.116324535456340469e-03
3.655935210469810499e+03 3.856731149768035105e-01 3.149593999763615221e-03
3.659591145680281443e+03 3.848032625245053073e-01 3.305841879537245020e-03
3.663250736825963031e+03 3.840743099484464906e-01 3.788715242354155632e-03
3.666913987562790226e+03 3.838245435994918076e-01 3.973006945199105897e-03
3.670580901550354156e+03 3.839893555056100860e-01 4.111009684964085122e-03
3.674251482451905758e+03 3.859621654932314239e-01 4.025925209920057542e-03
3.677925733934358959e+03 3.884712796848981964e-01 3.657197825996571540e-03
3.681603659668294313e+03 3.935600416156729842e-01 3.651254986049653865e-03
3.685285263327964003e+03 4.007185419730832088e-01 4.041567393820727147e-03
3.688970548591293209e+03 4.070047029344635026e-01 4.205844384784065970e-03
3.692659519139885560e+03 4.144749914570015625e-01 4.248911929695395502e-03
3.696352178659026777e+03 4.234503845692815793e-01 4.327962192903585768e-03
3.700048530837686940e+03 4.313088000345842166e-01 4.353158680015764385e-03
3.703748579368525952e+03 4.400059381522146706e-01 4.406191135671371981e-03
3.707452327947895355e+03 4.478489167246632041e-01 3.900166485844296267e-03
3.711159780275844696e+03 4.544351385943210531e-01 3.797677634265054277e-03
3.714870940056121526e+03 4.595499782503332797e-01 3.344831760756341536e-03
3.718585810996179134e+03 4.613657692947250588e-01 3.366742322333784055e-03
3.722304396807176545e+03 4.606584519456253246e-01 3.376252162747693519e-03
3.726026701203984885e+03 4.570209883993297528e-01 3.227341570319283010e-03
3.729752727905190113e+03 4.498612913827630400e-01 3.190863321216122223e-03
3.733482480633096657e+03 4.401970906532068351e-01 3.135518682705620667e-03
3.737215963113731050e+03 4.295544640056643271e-01 4.183964029274953207e-03
3.740953179076846027e+03 4.189716165189010799e-01 3.465894984556714114e-03
3.744694132255923705e+03 4.009411593310298616e-01 3.410123981950511068e-03
3.748438826388181042e+03 3.786091045891852302e-01 4.501879932012121423e-03
3.752187265214570289e+03 3.544711094342009039e-01 5.794425452468242310e-03
3.755939452479786269e+03 3.298627416223448572e-01 6.617822113280903522e-03
3.759695391932267285e+03 3.054733610849857950e-01 6.896310622263455287e-03
3.763455087324201031e+03 2.840532703474816789e-01 6.519065087671646087e-03
3.767218542411526414e+03 2.654250874180603681e-01 5.904546503061829273e-03
3.770985760953939007e+03 2.510697676512737564e-01 5.314061594563090733e-03
3.774756746714894234e+03 2.416063151328808889e-01 5.256136330492155138e-03
3.778531503461610555e+03 2.392198420127537306e-01 6.280767884025654363e-03
3.782310034965073100e+03 2.404090579739670830e-01 6.855658764518543676e-03
3.786092345000039586e+03 2.449640041926846867e-01 6.424086352959261503e-03
3.789878437345040766e+03 2.509592740174839132e-01 5.867965704810871284e-03
3.793668315782387253e+03 2.586473900053324337e-01 5.147385762708840511e-03
3.797461984098170888e+03 2.663539584617635736e-01 4.758175227143997960e-03
3.801259446082270188e+03 2.738035296459273016e-01 4.390581700026498745e-03
3.805060705528353537e+03 2.783245024440900717e-01 4.471562185108355833e-03
3.808865766233883278e+03 2.811278075711725055e-01 4.398578874854170220e-03
3.812674632000118436e+03 2.812325570149834530e-01 3.551096337968208654e-03
3.816487306632119726e+03 2.801651965944327305e-01 2.529215219153351738e-03
3.820303793938753188e+03 2.843640886043779514e-01 2.388252729738256364e-03
3.824124097732693372e+03 2.895888468730722365e-01 1.961511808480445769e-03
3.827948221830427428e+03 2.936794647814219283e-01 2.131602653875388532e-03
3.831776170052258749e+03 2.979841104966559628e-01 2.789320410886088689e-03
3.835607946222312421e+03 3.041212746611259288e-01 3.125177937300717326e-03
3.839443554168536139e+03 3.130918063919637673e-01 2.998834165260795635e-03
3.843282997722705659e+03 3.243289706474203338e-01 2.455974865408838866e-03
3.847126280720429804e+03 3.382047812818729793e-01 2.308582899854084471e-03
3.850973407001151372e+03 3.561885564060421894e-01 2.606891920034782803e-03
3.854824380408153957e+03 3.772102146125518307e-01 2.916632845220288889e-03
3.858679204788563311e+03 4.012851626972762098e-01 2.871733074779526766e-03
3.862537883993353262e+03 4.261946599820566894e-01 2.343121912954873685e-03
3.866400421877347981e+03 4.493644367566083653e-01 2.205056376421941303e-03
3.870266822299226533e+03 4.717289105508915004e-01 2.366603397064123444e-03
3.874137089121526969e+03 4.938513219189580306e-01 2.500926292402846397e-03
3.878011226210649966e+03 5.157089311239726470e-01 2.512627180346358857e-03
3.881889237436861549e+03 5.365133742221205315e-01 2.503284641142593595e-03
3.885771126674299921e+03 5.571996331237079048e-01 2.323295802984614092e-03
3.889656897800975457e+03 5.774668282426219657e-01 2.330909134809587471e-03
3.893546554698777527e+03 5.965821119465647415e-01 2.253463879886597864e-03
3.897440101253477678e+03 6.166395402827736794e-01 2.179700861471076025e-03
3.901337541354732366e+03 6.373742528648032035e-01 1.920025518280097775e-03
3.905238878896088409e+03 6.570610827158548384e-01 1.950432058947687000e-03
3.909144117774985716e+03 6.758123639204077771e-01 2.038864723029990954e-03
3.913053261892762293e+03 6.950200389888175900e-01 2.057066663509760345e-03
3.916966315154656058e+03 7.136602342484195116e-01 2.253796317784123853e-03
3.920883281469812118e+03 7.305451604963436596e-01 2.342979279852756228e-03
3.924804164751283224e+03 7.457938137803090672e-01 2.370038057946723033e-03
3.928728968916035683e+03 7.591011086432782884e-01 2.374047102069799017e-03
3.932657697884953450e+03 7.708188020275150709e-01 2.112292047613159064e-03
3.936590355582839493e+03 7.791159769747519892e-01 1.603875249068548387e-03
3.940526945938423523e+03 7.828746289086824239e-01 1.753999230873111220e-03
3.944467472884363360e+03 7.836522359290923889e-01 1.752402365766159674e-03
3.948411940357249023e+03 7.813041289500123332e-01 1.682636800681795979e-03
3.952360352297607733e+03 7.761181467316854432e-01 1.749332644662444447e-03
3.956312712649906643e+03 7.693737088902041776e-01 1.418545269525889460e-03
3.960269025362557841e+03 7.640564912615740445e-01 1.424539487917693935e-03
3.964229294387921527e+03 7.590810973871715550e-01 1.432767672230258159e-03
3.968193523682310570e+03 7.536800170433498591e-01 2.011705884132773854e-03
3.972161717205994591e+03 7.511862341693227307e-01 1.977751611403768574e-03
3.976133878923201792e+03 7.521370437170422640e-01 1.916155672122977181e-03
3.980110012802126221e+03 7.560360282177471802e-01 1.985764491585404867e-03
3.984090122814929600e+03 7.622120708192651195e-01 2.060728410101022971e-03
3.988074212937745870e+03 7.722479555368065851e-01 2.341655033632208775e-03
3.992062287150684824e+03 7.834502160538194815e-01 2.162791129785445257e-03
3.996054349437837118e+03 7.953095414861341972e-01 2.002110399251852586e-03
4.000050403787276082e+03 8.071804168438750926e-01 1.952088755531186052e-03
4.004050454191064546e+03 8.194665444149684674e-01 1.902865680997900761e-03
4.008054504645257111e+03 8.315642036394843561e-01 1.917257808103632090e-03
4.012062559149903791e+03 8.426326067012175347e-01 1.925826471409493746e-03
4.016074621709055009e+03 8.528897970678830376e-01 1.728446808809370626e-03
4.020090696330765240e+03 8.634070141816828636e-01 1.720270843582602516e-03
4.024110787027097558e+03 8.730435278605085392e-01 1.771329861832960555e-03
4.028134897814125907e+03 8.808528913238958813e-01 1.714852096016127557e-03
4.032163032711941469e+03 8.880634104197925316e-01 1.849457303269396889e-03
4.036195195744654484e+03 8.944987232432316526e-01 1.360133045523658976e-03
4.040231390940400615e+03 8.970760972014260037e-01 8.994656761976168972e-04
4.044271622331342314e+03 8.951805189423001075e-01 1.252293461267595977e-03
4.048315893953675186e+03 8.911667979850682597e-01 1.300582448053367625e-03
4.052364209847629809e+03 8.844457214352061669e-01 1.311347576569028015e-03
4.056416574057479011e+03 8.749019254381601440e-01 1.276111046194678203e-03
4.060472990631537868e+03 8.635181078022020618e-01 1.099496999398648193e-03
4.064533463622170530e+03 8.508707478941551772e-01 1.115202113498806741e-03
4.068597997085794304e+03 8.362523914020305593e-01 1.099336008860281452e-03
4.072666595082881486e+03 8.199262606528918695e-01 1.242150817310237309e-03
4.076739261677965715e+03 8.030726801231776735e-01 1.223379708082177877e-03
4.080816000939644709e+03 7.855244922975281874e-01 1.286985740889348391e-03
4.084896816940585722e+03 7.677830630304696147e-01 1.281912712853204269e-03
4.088981713757527814e+03 7.497249546561984834e-01 1.344236105467958107e-03
4.093070695471286854e+03 7.310099225162975944e-01 1.390656157461880437e-03
4.097163766166759160e+03 7.122527643228092620e-01 1.560227228512445696e-03
4.101260929932927866e+03 6.926314271138275247e-01 1.669400909373418285e-03
4.105362190862862008e+03 6.715417001273540354e-01 1.660875181752786240e-03
4.109467553053726078e+03 6.506889049249851009e-01 1.562232030827717102e-03
4.113577020606780934e+03 6.298855657935781283e-01 1.651436082146702034e-03
4.117690597627389252e+03 6.090355354216272499e-01 1.919814553730930622e-03
4.121808288225018259e+03 5.889642393186551583e-01 1.984883398180488367e-03
4.125930096513244280e+03 5.714635023944794057e-01 1.933307360937144967e-03
4.130056026609759101e+03 5.568867725337114383e-01 1.556007930263506945e-03
4.134186082636369974e+03 5.453840264424631989e-01 9.848958898009208332e-04
4.138320268719007800e+03 5.387502332691558316e-01 1.167015506840173543e-03
4.142458588987728035e+03 5.362754015210866587e-01 1.766014984200350336e-03
4.146601047576717065e+03 5.364432698681468326e-01 1.784596191238762512e-03
4.150747648624294925e+03 5.378337435653600673e-01 1.702400323188964053e-03
4.154898396272920763e+03 5.409970747518492162e-01 1.379552819662520618e-03
4.159053294669195566e+03 5.427511989784475910e-01 1.207261635022485605e-03
4.163212347963865795e+03 5.444488753365924749e-01 1.216504866502740416e-03
4.167375560311830668e+03 5.436336122908796975e-01 1.101319523014485146e-03
4.171542935872143971e+03 5.403914834310571402e-01 1.188070698564055181e-03
4.175714478808017702e+03 5.354126113312100976e-01 1.461153263353393754e-03
4.179890193286827525e+03 5.292374126451120375e-01 1.553216439171441459e-03
4.184070083480115500e+03 5.216523773304103662e-01 1.547676158020372611e-03
4.188254153563597356e+03 5.144172689713382152e-01 1.479714966279077832e-03
4.192442407717161586e+03 5.076723100934120714e-01 1.297594944232545672e-03
4.196634850124880359e+03 5.024783407437067861e-01 1.193549867478299609e-03
4.200831484975006788e+03 4.988912551732849199e-01 1.103960092562580615e-03
4.205032316459983122e+03 4.972316997795139248e-01 1.136389220224867441e-03
4.209237348776444378e+03 4.982355522270998649e-01 1.129312503515682428e-03
4.213446586125221984e+03 5.011020454920633860e-01 1.087887072182791267e-03
4.217660032711349231e+03 5.067453514893780486e-01 1.247172651616937442e-03
4.221877692744061278e+03 5.143554584054632617e-01 1.511488853548901548e-03
4.226099570436806971e+03 5.216234270938744366e-01 1.477843669893496746e-03
4.230325670007245208e+03 5.286143223143953129e-01 1.471242679676473732e-03
4.234555995677254032e+03 5.350176065546650150e-01 1.354485627792137827e-03
4.238790551672932452e+03 5.402596218097925895e-01 1.347660715636111225e-03
4.243029342224606808e+03 5.458707228637178499e-01 1.203524842699524398e-03
4.247272371566832589e+03 5.487020774749714613e-01 1.330149063627510900e-03
4.251519643938400804e+03 5.500827608136770186e-01 1.527823457795198219e-03
4.255771163582340705e+03 5.505587995545264679e-01 1.454661279518881887e-03
4.260026934745924336e+03 5.504650387532090683e-01 1.455378374973076688e-03
4.264286961680671993e+03 5.503567787990633065e-01 1.283406430464311071e-03
4.268551248642354039e+03 5.507139717850846328e-01 1.510304488408775736e-03
4.272819799890998183e+03 5.506829713612578781e-01 1.529300296711693556e-03
4.277092619690890388e+03 5.507658407186651894e-01 1.413735483571698041e-03
4.281369712310583054e+03 5.507583100641159080e-01 1.311868061419964055e-03
4.285651082022895025e+03 5.493230172005375556e-01 1.590488041006741550e-03
4.289936733104918858e+03 5.483742248012728471e-01 1.751278272550113113e-03
4.294226669838025373e+03 5.478559193210468248e-01 1.766761180684191072e-03
4.298520896507864563e+03 5.486340005382895901e-01 1.807669457629880851e-03
4.302819417404373780e+03 5.517752214509338282e-01 1.786796431199293069e-03
4.307122236821779552e+03 5.558895695920066382e-01 1.662948456551932574e-03
4.311429359058603040e+03 5.617413972239334585e-01 1.642323836846977785e-03
4.315740788417662770e+03 5.690733286617474240e-01 1.833343018802140699e-03
4.320056529206081905e+03 5.779311789425076729e-01 1.992480342554081053e-03
4.324376585735290064e+03 5.877358891611981218e-01 1.377586395018414768e-03
4.328700962321026054e+03 5.961986942562815806e-01 1.209017316831407195e-03
4.333029663283348782e+03 6.039014770057878900e-01 1.158734825954353545e-03
4.337362692946633615e+03 6.105180838564323587e-01 1.166650692450869843e-03
4.341700055639581478e+03 6.153651009705095598e-01 1.035081167798338354e-03
4.346041755695222491e+03 6.194650165081184712e-01 1.253700210874297144e-03
4.350387797450919606e+03 6.216734854000963706e-01 1.337238467896435280e-03
4.354738185248371337e+03 6.215077015517843639e-01 1.333617834070567653e-03
4.359092923433621763e+03 6.197108269093110078e-01 1.311249733349713863e-03
4.363452016357056891e+03 6.164666203885392770e-01 1.457380816749601201e-03
4.367815468373414660e+03 6.112798406733149781e-01 1.806107479098175133e-03
4.372183283841789489e+03 6.061004734548515183e-01 1.946857331429926010e-03
4.376555467125633186e+03 6.009347219213323488e-01 1.851483073049688165e-03
4.380932022592760404e+03 5.962543077727783247e-01 1.585475848809868998e-03
4.385312954615354101e+03 5.929230369911291376e-01 1.763258766336878473e-03
4.389698267569970994e+03 5.896630742351176568e-01 1.912894794985266688e-03
4.394087965837542470e+03 5.869555467117597569e-01 2.115050137790778616e-03
4.398482053803381859e+03 5.848287118725381539e-01 2.042172874533312171e-03
4.402880535857186260e+03 5.820188062885921498e-01 1.554573951619693268e-03
4.407283416393044718e+03 5.782036396430200176e-01 1.176777398854696611e-03
4.411690699809440048e+03 5.731977305024247293e-01 1.151833427437275138e-03
4.416102390509250654e+03 5.667884739994125676e-01 1.363136889670269348e-03
4.420518492899761441e+03 5.599425151652783761e-01 1.187667514512618597e-03
4.424939011392662906e+03 5.531679658898069896e-01 7.507111494338466334e-04
4.429363950404056595e+03 5.479274114615518831e-01 6.457090028740478495e-04
4.433793314354462382e+03 5.438191281292399371e-01 6.037519362245154751e-04
4.438227107668818462e+03 5.421911024450600802e-01 5.973910453888249279e-04
4.442665334776488635e+03 5.429686953283859863e-01 6.828358560929441651e-04
4.447108000111265937e+03 5.465562174321916267e-01 7.921729475849064329e-04
4.451555108111379013e+03 5.531879681327094289e-01 9.191185732880296968e-04
4.456006663219492111e+03 5.634367892042864145e-01 1.004140500294754997e-03
4.460462669882713271e+03 5.778883378675788718e-01 8.348682702729270889e-04
4.464923132552597053e+03 5.967509775448094356e-01 1.225883967771465707e-03
4.469388055685150903e+03 6.189249106921942412e-01 1.362313631699561996e-03
4.473857443740837880e+03 6.437900628031567596e-01 1.446221747602329574e-03
4.478331301184580298e+03 6.711093034486537157e-01 1.400420774926805327e-03
4.482809632485766087e+03 7.000825278257246653e-01 1.159107951445479843e-03
4.487292442118253348e+03 7.296329991682138916e-01 1.146958453239645690e-03
4.491779734560373072e+03 7.585375167223753490e-01 1.007056487736141502e-03
4.496271514294934605e+03 7.869899823824270113e-01 8.966705229864224171e-04
4.500767785809231100e+03 8.136106220944647749e-01 1.099688109343784168e-03
4.505268553595042249e+03 8.399371023060419050e-01 1.096058113817053453e-03
4.509773822148638828e+03 8.644073274808029561e-01 1.086794249727289713e-03
4.514283595970789065e+03 8.882664940760511829e-01 1.059617286189091850e-03
4.518797879566761367e+03 9.110074318409586702e-01 1.067321337573496265e-03
4.523316677446328868e+03 9.328355371161580756e-01 1.032564485087051395e-03
