# starting wavelength: 3464.040
# ending wavelength: 7367.620
# wav flux eflux
3.467307701768178049e+03 6.409597308319304743e-01 2.942452584744759472e-02
3.470775009469947236e+03 6.162988050697275622e-01 2.204648124894817776e-02
3.474245784479418489e+03 5.927288030323947243e-01 1.713336853618300723e-02
3.477720030263898934e+03 5.675319594748630125e-01 1.348369239969337413e-02
3.481197750294164052e+03 5.414148314715213628e-01 1.454587616964396132e-02
3.484678948044459503e+03 5.217198355905375839e-01 1.674665868748339073e-02
3.488163626992504760e+03 5.126214334522967153e-01 1.367625523765654549e-02
3.491651790619498570e+03 5.082356814066723016e-01 1.243057967891054820e-02
3.495143442410119405e+03 5.080984183190635495e-01 1.088054750723808396e-02
3.498638585852530468e+03 5.111320050008445470e-01 9.736030150309826769e-03
3.502137224438384237e+03 5.159130587437963378e-01 8.817448513934260032e-03
3.505639361662823831e+03 5.194921284997219280e-01 8.283025871720648206e-03
3.509145001024487556e+03 5.230312669802473780e-01 8.017137221825258384e-03
3.512654146025513455e+03 5.255587548794726782e-01 8.303776310578750777e-03
3.516166800171540217e+03 5.320059985658038837e-01 7.980007719637345273e-03
3.519682966971712631e+03 5.395476560045145975e-01 7.736113078552308078e-03
3.523202649938685681e+03 5.474419729392082656e-01 7.871224262313986086e-03
3.526725852588625457e+03 5.564532353149347355e-01 8.084166035692412836e-03
3.530252578441215064e+03 5.688269191286084991e-01 8.297475516428976308e-03
3.533782831019657806e+03 5.799260707422072558e-01 8.368964461705239583e-03
3.537316613850678550e+03 5.924642422603800807e-01 8.191329882086430605e-03
3.540853930464530094e+03 6.040543365886361649e-01 7.833734030324192993e-03
3.544394784394995895e+03 6.164581532525651442e-01 7.461544323095061632e-03
3.547939179179392340e+03 6.335734287020959865e-01 8.279709082343876189e-03
3.551487118358572843e+03 6.516242784043135838e-01 9.297598887549900562e-03
3.555038605476932389e+03 6.682751165996502207e-01 9.796699961016782504e-03
3.558593644082410719e+03 6.833367936517357188e-01 9.972433215335365156e-03
3.562152237726494150e+03 6.943060478633321653e-01 9.912909637507110600e-03
3.565714389964221937e+03 7.040670463280238600e-01 9.743715295669962487e-03
3.569280104354187188e+03 7.111332299923068812e-01 9.964073034838746845e-03
3.572849384458542772e+03 7.164974916950486161e-01 9.720098000960537138e-03
3.576422233843002232e+03 7.207894106632228848e-01 9.120748788575784236e-03
3.579998656076846601e+03 7.220182677836086693e-01 8.578153260280054274e-03
3.583578654732924406e+03 7.215602558582622228e-01 8.085193482852241764e-03
3.587162233387658489e+03 7.127212200224891658e-01 8.427903899115091885e-03
3.590749395621047370e+03 6.996480982780926006e-01 8.275641125793223307e-03
3.594340145016669794e+03 6.837273046905201213e-01 7.587960495279247666e-03
3.597934485161687462e+03 6.630299867758923105e-01 6.107275629183279812e-03
3.601532419646850485e+03 6.424967009495231585e-01 5.393965271819769515e-03
3.605133952066498296e+03 6.240374103299485276e-01 5.938102528445762633e-03
3.608739086018566013e+03 6.030037322258867682e-01 6.095189677894005675e-03
3.612347825104585809e+03 5.796667104255042169e-01 6.130407249102653479e-03
3.615960172929691907e+03 5.569406995369303726e-01 6.342523915272384009e-03
3.619576133102622407e+03 5.363000773748538563e-01 6.695460273365379245e-03
3.623195709235726554e+03 5.154631767159851830e-01 7.742524981434460371e-03
3.626818904944963379e+03 4.977159510256597974e-01 8.299527797854365160e-03
3.630445723849909427e+03 4.827032155150639547e-01 8.964336740145458643e-03
3.634076169573760581e+03 4.750843765131085306e-01 9.363643503513362568e-03
3.637710245743335690e+03 4.719405765989315160e-01 9.290269164337160504e-03
3.641347955989080219e+03 4.741149491511295055e-01 8.611044106166974507e-03
3.644989303945070333e+03 4.815133723942960353e-01 7.977528348841175787e-03
3.648634293249016537e+03 4.928463195854567713e-01 7.666279917148695333e-03
3.652282927542266862e+03 5.119741893462834703e-01 8.212236298657726516e-03
3.655935210469810499e+03 5.346939277717610572e-01 9.018178557048126334e-03
3.659591145680281443e+03 5.647923411559269136e-01 1.061424079577169208e-02
3.663250736825963031e+03 6.042625342042894365e-01 1.119706150700919799e-02
3.666913987562790226e+03 6.377357894518823622e-01 1.101935252864785428e-02
3.670580901550354156e+03 6.683895674761550776e-01 1.032949705809750075e-02
3.674251482451905758e+03 6.905573031516459848e-01 9.213009398716009296e-03
3.677925733934358959e+03 7.051756425029307440e-01 7.742569291112993447e-03
3.681603659668294313e+03 7.113733421606642793e-01 7.168296954084891169e-03
3.685285263327964003e+03 7.094967679828902973e-01 7.120536125769859163e-03
3.688970548591293209e+03 7.006593568682117912e-01 7.385180969342157627e-03
3.692659519139885560e+03 6.792448259747980721e-01 7.856276870763893860e-03
3.696352178659026777e+03 6.502939590420939719e-01 7.395887016187727668e-03
3.700048530837686940e+03 6.109195163969995956e-01 6.654839902303642460e-03
3.703748579368525952e+03 5.685824807815008652e-01 6.296009924615526485e-03
3.707452327947895355e+03 5.281202909189453010e-01 6.431702317206457360e-03
3.711159780275844696e+03 4.897737761116587318e-01 6.680380839579035286e-03
3.714870940056121526e+03 4.511178250065822071e-01 5.810718155572089372e-03
3.718585810996179134e+03 4.204366140859442935e-01 5.339231393344147023e-03
3.722304396807176545e+03 3.964392020285481544e-01 5.098762731967480290e-03
3.726026701203984885e+03 3.812543182836789502e-01 4.924138512040098468e-03
3.729752727905190113e+03 3.753414738088513003e-01 4.846463854387749425e-03
3.733482480633096657e+03 3.777632327598376971e-01 4.774392743347301814e-03
3.737215963113731050e+03 3.922939597664500955e-01 6.237453577533094706e-03
3.740953179076846027e+03 4.143652715832405464e-01 7.606466063988601839e-03
3.744694132255923705e+03 4.406020671395520782e-01 8.995066800444628460e-03
3.748438826388181042e+03 4.712549312287671044e-01 9.920038686863847863e-03
3.752187265214570289e+03 4.997004918491967929e-01 9.981465843714931382e-03
3.755939452479786269e+03 5.275868452009813137e-01 9.072666599023778561e-03
3.759695391932267285e+03 5.526278992356890019e-01 6.953792665285792908e-03
3.763455087324201031e+03 5.694972352437528418e-01 6.265208038212553322e-03
3.767218542411526414e+03 5.838609166975650133e-01 5.609463279695085965e-03
3.770985760953939007e+03 5.839468892858059590e-01 9.069619725963417103e-03
3.774756746714894234e+03 5.796229938826191752e-01 9.652834516662534697e-03
3.778531503461610555e+03 5.693291475361981213e-01 8.186760986072955451e-03
3.782310034965073100e+03 5.640329777615271656e-01 7.086977544248834748e-03
3.786092345000039586e+03 5.628215036110022496e-01 7.045611102600682525e-03
3.789878437345040766e+03 5.611028550253136515e-01 6.506276276116561980e-03
3.793668315782387253e+03 5.630269171194118849e-01 6.549487185893126083e-03
3.797461984098170888e+03 5.705743978564717933e-01 6.623604253519883855e-03
3.801259446082270188e+03 5.814234190587496132e-01 6.171326720823900117e-03
3.805060705528353537e+03 5.944634333221273659e-01 6.092835155245812304e-03
3.808865766233883278e+03 6.106780597090893936e-01 5.198899304519237832e-03
3.812674632000118436e+03 6.260160391575503303e-01 5.637298702977424324e-03
3.816487306632119726e+03 6.427960561537868767e-01 5.770937899104502944e-03
3.820303793938753188e+03 6.615928211517219104e-01 6.256173750172771414e-03
3.824124097732693372e+03 6.779321275668752644e-01 6.322501126631309074e-03
3.827948221830427428e+03 6.931531404275830255e-01 6.373069349471162381e-03
3.831776170052258749e+03 7.061073803578042929e-01 6.570984830669811781e-03
3.835607946222312421e+03 7.168809112411681506e-01 7.328148562253517656e-03
3.839443554168536139e+03 7.322943991450416856e-01 7.261706092448135669e-03
3.843282997722705659e+03 7.480485174297314410e-01 7.183090320043449689e-03
3.847126280720429804e+03 7.626016027124179475e-01 7.590196201639452106e-03
3.850973407001151372e+03 7.734225157835291631e-01 6.839039791486567141e-03
3.854824380408153957e+03 7.855525682050398251e-01 8.284476196642917914e-03
3.858679204788563311e+03 7.941316563454073885e-01 9.718872077796161801e-03
3.862537883993353262e+03 7.960620254365883275e-01 9.479953235220868121e-03
3.866400421877347981e+03 7.932056052797796797e-01 8.742358682008084109e-03
3.870266822299226533e+03 7.832261337975406912e-01 9.090231269706459255e-03
3.874137089121526969e+03 7.706564978491484696e-01 9.370250369151964312e-03
3.878011226210649966e+03 7.545656488777403581e-01 9.933099231328401668e-03
3.881889237436861549e+03 7.364431034622030969e-01 9.838721837678650328e-03
3.885771126674299921e+03 7.159729489438098060e-01 8.685556035008271114e-03
3.889656897800975457e+03 7.006164549775566464e-01 6.116004033667890930e-03
3.893546554698777527e+03 6.951649027792945468e-01 7.097531638515667228e-03
3.897440101253477678e+03 6.958202639720807436e-01 7.143306645553358473e-03
3.901337541354732366e+03 7.010908956815420368e-01 6.960355127988773760e-03
3.905238878896088409e+03 7.148053134716777501e-01 6.193657414299722115e-03
3.909144117774985716e+03 7.309899315895392879e-01 6.651440287301515694e-03
3.913053261892762293e+03 7.518243188526965159e-01 6.472599241860343272e-03
3.916966315154656058e+03 7.781939126106968141e-01 7.794312771215904795e-03
3.920883281469812118e+03 8.019254358844207786e-01 8.952813505978934536e-03
3.924804164751283224e+03 8.251484537966062849e-01 1.032133178583317934e-02
3.928728968916035683e+03 8.444955931052759990e-01 9.927638073535640165e-03
3.932657697884953450e+03 8.549593580539169846e-01 8.403698141242024397e-03
3.936590355582839493e+03 8.547332014251612931e-01 9.487173729235964803e-03
3.940526945938423523e+03 8.483638239894686350e-01 1.068260878498897976e-02
3.944467472884363360e+03 8.371716365387932290e-01 1.117846858948750091e-02
3.948411940357249023e+03 8.242445502946990077e-01 1.101142169820211285e-02
3.952360352297607733e+03 8.111112040188233063e-01 9.852635395978305913e-03
3.956312712649906643e+03 8.032764270993754119e-01 9.037494935718599909e-03
3.960269025362557841e+03 7.973461174055709311e-01 8.040360318873063239e-03
3.964229294387921527e+03 8.006846593101382137e-01 8.182606248125860390e-03
3.968193523682310570e+03 8.126520044560650025e-01 6.956932452169768515e-03
3.972161717205994591e+03 8.270242870018351677e-01 5.575396754475981514e-03
3.976133878923201792e+03 8.421323686014273724e-01 5.629355018601150951e-03
3.980110012802126221e+03 8.607715817415186876e-01 5.461060457248995831e-03
3.984090122814929600e+03 8.769269741251406458e-01 4.837833547871714726e-03
3.988074212937745870e+03 8.945806142100818370e-01 4.715812137540288836e-03
3.992062287150684824e+03 9.132452425056513112e-01 5.537887197464036459e-03
3.996054349437837118e+03 9.293074340142762901e-01 5.899418339438439185e-03
4.000050403787276082e+03 9.441424805652934849e-01 5.244411054238003883e-03
4.004050454191064546e+03 9.553752756970326221e-01 3.972454866959493174e-03
4.008054504645257111e+03 9.598460028030597613e-01 4.450381132340214957e-03
4.012062559149903791e+03 9.600308662825944861e-01 4.599348816969159488e-03
4.016074621709055009e+03 9.565241512747164609e-01 4.724793574004836419e-03
4.020090696330765240e+03 9.491691892263203201e-01 4.737034669434732684e-03
4.024110787027097558e+03 9.399376061301928376e-01 3.803323591092294415e-03
4.028134897814125907e+03 9.324084232779608072e-01 3.265608829662665531e-03
4.032163032711941469e+03 9.271777381557838593e-01 3.289809632943609726e-03
4.036195195744654484e+03 9.205129804765449508e-01 3.284270414362660661e-03
4.040231390940400615e+03 9.150453410658548892e-01 3.398539422468965961e-03
4.044271622331342314e+03 9.133211725258507663e-01 3.287464372094581200e-03
4.048315893953675186e+03 9.092005466530838076e-01 3.321245174924244373e-03
4.052364209847629809e+03 9.031043832794916071e-01 3.428138521485418928e-03
4.056416574057479011e+03 8.951751191271060115e-01 3.355513964665372394e-03
4.060472990631537868e+03 8.840463785138894526e-01 3.457757062785800535e-03
4.064533463622170530e+03 8.711558859643377950e-01 3.823490033011413616e-03
4.068597997085794304e+03 8.544519981058683600e-01 3.553832120734615706e-03
4.072666595082881486e+03 8.322291225729205877e-01 3.319802544014466023e-03
4.076739261677965715e+03 8.054283677746827408e-01 3.525111599820920406e-03
4.080816000939644709e+03 7.752563444148938832e-01 3.797330805760876660e-03
4.084896816940585722e+03 7.419460774320904006e-01 4.683102600829216859e-03
4.088981713757527814e+03 7.112188866275485077e-01 4.777897022529696558e-03
4.093070695471286854e+03 6.821890752669560465e-01 4.571280379712418240e-03
4.097163766166759160e+03 6.577793094178886468e-01 3.410696398031226855e-03
4.101260929932927866e+03 6.401657658290342834e-01 2.798220551633280855e-03
4.105362190862862008e+03 6.313146081938134646e-01 2.759647655745108008e-03
4.109467553053726078e+03 6.299883207193029966e-01 2.802628580755393145e-03
4.113577020606780934e+03 6.350342008011007344e-01 2.903790038604310564e-03
4.117690597627389252e+03 6.463611038968342104e-01 3.402199059586674419e-03
4.121808288225018259e+03 6.658264681013240649e-01 4.479113225347016933e-03
4.125930096513244280e+03 6.847972542831264331e-01 4.506819003655918900e-03
4.130056026609759101e+03 7.009271983902115588e-01 3.956768467618698368e-03
4.134186082636369974e+03 7.140008083407284323e-01 4.089036820973001272e-03
4.138320268719007800e+03 7.263151932665060651e-01 4.131197658824923083e-03
4.142458588987728035e+03 7.346306191083806780e-01 4.040880073342132880e-03
4.146601047576717065e+03 7.393333836363127354e-01 4.010280376406733654e-03
4.150747648624294925e+03 7.397919305388563904e-01 3.982208763031197356e-03
4.154898396272920763e+03 7.356519587211893807e-01 4.171471832819634816e-03
4.159053294669195566e+03 7.292442971345243219e-01 4.640653552125468401e-03
4.163212347963865795e+03 7.200084228693676147e-01 5.792630318760951663e-03
4.167375560311830668e+03 7.157784191567763132e-01 6.031177991759538622e-03
4.171542935872143971e+03 7.173550822426610907e-01 5.611375264251595475e-03
4.175714478808017702e+03 7.253982274121779650e-01 6.042650706418337125e-03
4.179890193286827525e+03 7.363324774285043839e-01 6.202473378953987995e-03
4.184070083480115500e+03 7.493461591944160505e-01 6.303860093374741638e-03
4.188254153563597356e+03 7.660621582080018310e-01 6.806866746467671488e-03
4.192442407717161586e+03 7.814587907065071448e-01 6.727363449577280011e-03
4.196634850124880359e+03 7.978329320923970291e-01 6.490455177065098703e-03
4.200831484975006788e+03 8.150865202979298285e-01 5.037612698422419197e-03
4.205032316459983122e+03 8.262255908267952531e-01 4.585952788524144327e-03
4.209237348776444378e+03 8.302638424373990356e-01 4.934253246108423127e-03
4.213446586125221984e+03 8.307440068151724644e-01 4.500216907807929115e-03
4.217660032711349231e+03 8.292383619076632018e-01 4.300211973847387244e-03
4.221877692744061278e+03 8.235486840057616442e-01 3.504860775025182319e-03
4.226099570436806971e+03 8.197400507614878151e-01 3.777630007372530675e-03
4.230325670007245208e+03 8.154334498569469902e-01 3.523148121256769634e-03
4.234555995677254032e+03 8.092010512429326230e-01 3.711818337085274599e-03
4.238790551672932452e+03 8.024842519079810055e-01 4.344774508742798788e-03
4.243029342224606808e+03 7.948094103129297316e-01 3.728760881164547812e-03
4.247272371566832589e+03 7.905334743864751434e-01 3.294608490319506002e-03
4.251519643938400804e+03 7.914937060520005341e-01 5.236193806275821379e-03
4.255771163582340705e+03 7.913087831066061284e-01 5.149299047867189789e-03
4.260026934745924336e+03 7.894432579968255759e-01 5.122700091162286917e-03
4.264286961680671993e+03 7.883602331116102979e-01 5.067471167855486930e-03
4.268551248642354039e+03 7.879335904929553047e-01 4.965939731088492640e-03
4.272819799890998183e+03 7.851600016291035988e-01 5.313980350659172104e-03
4.277092619690890388e+03 7.856315695227916729e-01 5.276224463819673138e-03
4.281369712310583054e+03 7.871267708291309617e-01 5.237373931663607401e-03
4.285651082022895025e+03 7.872765116390519902e-01 5.127987451790641006e-03
4.289936733104918858e+03 7.871248324281627795e-01 5.314227166208889026e-03
4.294226669838025373e+03 7.862670598360278484e-01 5.496152727168584703e-03
4.298520896507864563e+03 7.832734095182615208e-01 5.470906280988146152e-03
4.302819417404373780e+03 7.781344179426815666e-01 5.392614099325199542e-03
4.307122236821779552e+03 7.727388895401650082e-01 4.330199616241270540e-03
4.311429359058603040e+03 7.633512738393528618e-01 3.950746539406985863e-03
4.315740788417662770e+03 7.486632920218511122e-01 4.306446814186461539e-03
4.320056529206081905e+03 7.302131889348739691e-01 4.053078121320088413e-03
4.324376585735290064e+03 7.103195924463656663e-01 2.848039834895675290e-03
4.328700962321026054e+03 6.927296834504791390e-01 2.375740242751351455e-03
4.333029663283348782e+03 6.792834586070142233e-01 2.590343238813331249e-03
4.337362692946633615e+03 6.638637182078518384e-01 2.576254120445847784e-03
4.341700055639581478e+03 6.506804687164453593e-01 2.550224480355588012e-03
4.346041755695222491e+03 6.401915944299086947e-01 2.292978840633948506e-03
4.350387797450919606e+03 6.298444683430796109e-01 4.015226888337997124e-03
4.354738185248371337e+03 6.235561309428047094e-01 3.775403672586453204e-03
4.359092923433621763e+03 6.238858655865436864e-01 3.812415849573046450e-03
4.363452016357056891e+03 6.281965094271220185e-01 4.363663754796107824e-03
4.367815468373414660e+03 6.360335569380434206e-01 5.338991827405869042e-03
4.372183283841789489e+03 6.450643917963865270e-01 5.165114949809685926e-03
4.376555467125633186e+03 6.553381542987324337e-01 4.999415884460524893e-03
4.380932022592760404e+03 6.656879535462580932e-01 4.879353289148689703e-03
4.385312954615354101e+03 6.757410542764826777e-01 5.362764963606409842e-03
4.389698267569970994e+03 6.879938694903315888e-01 5.401543167346119570e-03
4.394087965837542470e+03 7.004286054291430919e-01 5.535254324015781956e-03
4.398482053803381859e+03 7.128132863222005344e-01 5.301824381128253209e-03
4.402880535857186260e+03 7.251499272042412070e-01 4.703709608909212476e-03
4.407283416393044718e+03 7.392918491452118435e-01 4.349673272259174488e-03
4.411690699809440048e+03 7.561876734528034660e-01 5.172014149213166948e-03
4.416102390509250654e+03 7.735495850542510876e-01 5.262048306770412097e-03
4.420518492899761441e+03 7.883883710350192420e-01 4.912700838042322916e-03
4.424939011392662906e+03 8.009947202635694374e-01 3.358373179931524108e-03
4.429363950404056595e+03 8.073539123851595223e-01 4.136205695544390749e-03
4.433793314354462382e+03 8.084016759962338039e-01 3.937687406794840479e-03
4.438227107668818462e+03 8.080123184142330439e-01 3.684062076889736432e-03
4.442665334776488635e+03 8.046992204350743583e-01 3.663080860522422832e-03
4.447108000111265937e+03 7.989570403864002524e-01 3.685715832370062197e-03
4.451555108111379013e+03 7.911634896448079823e-01 3.716472200164075597e-03
4.456006663219492111e+03 7.809283004663508665e-01 4.187631660528681049e-03
4.460462669882713271e+03 7.740934686600169368e-01 4.163415759968780785e-03
4.464923132552597053e+03 7.676825478126582114e-01 4.339003795333208277e-03
4.469388055685150903e+03 7.629937846290222314e-01 4.273516487720576372e-03
4.473857443740837880e+03 7.639574105140291005e-01 4.285605717535086526e-03
4.478331301184580298e+03 7.684207025461301521e-01 4.143630446149892781e-03
4.482809632485766087e+03 7.786250734194830603e-01 4.289230866281475152e-03
4.487292442118253348e+03 7.921911192724548911e-01 4.379738550173670718e-03
4.491779734560373072e+03 8.107369381753432025e-01 4.674899245560609762e-03
4.496271514294934605e+03 8.329585010813579382e-01 4.336431278022915420e-03
4.500767785809231100e+03 8.566894436425502857e-01 3.678033472430944882e-03
4.505268553595042249e+03 8.820627334398459807e-01 3.016232696672939157e-03
4.509773822148638828e+03 9.057079815142425883e-01 2.898463731058675396e-03
4.514283595970789065e+03 9.259874733939268410e-01 2.318959052229474429e-03
