# starting wavelength: 3436.450
# ending wavelength: 7294.350
# wav flux eflux
3.439693648295834464e+03 2.937341277203577850e-01 2.811044491183731925e-02
3.443133341944131189e+03 3.574792211711441681e-01 2.215911067440374735e-02
3.446576475286076402e+03 4.248678122799791623e-01 1.767959008596076131e-02
3.450023051761363604e+03 4.917310909952712361e-01 1.693743529105419532e-02
3.453473074813126004e+03 5.483449045890298468e-01 1.381638417870227099e-02
3.456926547887940615e+03 5.969831225152378851e-01 1.303633804978614544e-02
3.460383474435829612e+03 6.343302344312977681e-01 1.259584405294652404e-02
3.463843857910266706e+03 6.604204397921513703e-01 1.227817858972794773e-02
3.467307701768178049e+03 6.736011161736312758e-01 1.332480290077878507e-02
3.470775009469947236e+03 6.811966883379916293e-01 1.249394759561353943e-02
3.474245784479418489e+03 6.841648484702760324e-01 1.162733681901146482e-02
3.477720030263898934e+03 6.846879883092626962e-01 1.158485549476462838e-02
3.481197750294164052e+03 6.745563980065545362e-01 1.105345014740754216e-02
3.484678948044459503e+03 6.602270361651394470e-01 1.096465615265752175e-02
3.488163626992504760e+03 6.309191378941937378e-01 1.109267628380888882e-02
3.491651790619498570e+03 5.960012493982721482e-01 1.154577825235012650e-02
3.495143442410119405e+03 5.602325335571221032e-01 1.173301502292639457e-02
3.498638585852530468e+03 5.143267273789183802e-01 1.272798601747191470e-02
3.502137224438384237e+03 4.681609083251788705e-01 1.265171449779072671e-02
3.505639361662823831e+03 4.226699318784163384e-01 1.245927321246667260e-02
3.509145001024487556e+03 3.751088577048566908e-01 1.267918592465718843e-02
3.512654146025513455e+03 3.316903202655526739e-01 1.302541982343622014e-02
3.516166800171540217e+03 2.909909207638894935e-01 1.320915901003126558e-02
3.519682966971712631e+03 2.575431843609423677e-01 1.328742210225238550e-02
3.523202649938685681e+03 2.262020934512705972e-01 1.319344343307885491e-02
3.526725852588625457e+03 2.069629007337571436e-01 1.311231673957724032e-02
3.530252578441215064e+03 1.933924569447378616e-01 1.300195818356423595e-02
3.533782831019657806e+03 1.852648584682274890e-01 1.337673396077543840e-02
3.537316613850678550e+03 1.881849495331316680e-01 1.404723167887868968e-02
3.540853930464530094e+03 1.951753417811018243e-01 1.445710624616552802e-02
3.544394784394995895e+03 2.058814705425338343e-01 1.468001403233592725e-02
3.547939179179392340e+03 2.252725435486516714e-01 1.576219578449794198e-02
3.551487118358572843e+03 2.473558695289944653e-01 1.620513114247891170e-02
3.555038605476932389e+03 2.717516334246711796e-01 1.658633054566279602e-02
3.558593644082410719e+03 3.065672450424746787e-01 1.601524169413482898e-02
3.562152237726494150e+03 3.403180207943502511e-01 1.458292048258035510e-02
3.565714389964221937e+03 3.680114630292806721e-01 1.224442156728291521e-02
3.569280104354187188e+03 3.878467731567366572e-01 1.209741098500930097e-02
3.572849384458542772e+03 4.085281680289173933e-01 1.222136850632488982e-02
3.576422233843002232e+03 4.191962002809663801e-01 1.381786677156394104e-02
3.579998656076846601e+03 4.241475576866026165e-01 1.476724824015360552e-02
3.583578654732924406e+03 4.245246457491206882e-01 1.414839495588815672e-02
3.587162233387658489e+03 4.191610062126339686e-01 1.147809996951360163e-02
3.590749395621047370e+03 4.211700898604227028e-01 1.171825620027294561e-02
3.594340145016669794e+03 4.251780132552565039e-01 1.293313055345926554e-02
3.597934485161687462e+03 4.210288953775433440e-01 1.304567812853569750e-02
3.601532419646850485e+03 4.145704011866062078e-01 1.278358635309788903e-02
3.605133952066498296e+03 3.983871965767269430e-01 1.277985604523216440e-02
3.608739086018566013e+03 3.834567734734619093e-01 1.296068255544891197e-02
3.612347825104585809e+03 3.696272263598790464e-01 1.341188677627221451e-02
3.615960172929691907e+03 3.560362708914427965e-01 1.359165593058832971e-02
3.619576133102622407e+03 3.432182111663606427e-01 1.374336773613187013e-02
3.623195709235726554e+03 3.288441806148106883e-01 1.425451164975574669e-02
3.626818904944963379e+03 3.171095571131749002e-01 1.415273046499671526e-02
3.630445723849909427e+03 3.078589170170974998e-01 1.448297876194422872e-02
3.634076169573760581e+03 2.990286301357542587e-01 1.542774172282198111e-02
3.637710245743335690e+03 2.926964779399132688e-01 1.606206066715924405e-02
3.641347955989080219e+03 2.793825672032806962e-01 1.605539581806867191e-02
3.644989303945070333e+03 2.645022174623032352e-01 1.586621575967090553e-02
3.648634293249016537e+03 2.444120479510772936e-01 1.608386497659534606e-02
3.652282927542266862e+03 2.264624587381456611e-01 1.670933028663643474e-02
3.655935210469810499e+03 2.066828376568687897e-01 1.733152763410366129e-02
3.659591145680281443e+03 1.900246710699161345e-01 1.749936294678645921e-02
3.663250736825963031e+03 1.835139250870600480e-01 1.728000026116725818e-02
3.666913987562790226e+03 1.739592049333612833e-01 1.776151258759115989e-02
3.670580901550354156e+03 1.633043519352150585e-01 1.758439928736963212e-02
3.674251482451905758e+03 1.539724847488624371e-01 1.572617150013785534e-02
3.677925733934358959e+03 1.517777860375112420e-01 1.471097507144198020e-02
3.681603659668294313e+03 1.521478515772656526e-01 1.409960437982013190e-02
3.685285263327964003e+03 1.583518525533186283e-01 1.481938464939443548e-02
3.688970548591293209e+03 1.668083445686978639e-01 1.534814583224658469e-02
3.692659519139885560e+03 1.864968225555763137e-01 1.553141794982096542e-02
3.696352178659026777e+03 2.105597360707825993e-01 1.271854940946653793e-02
3.700048530837686940e+03 2.342757188087398190e-01 9.057754060840776320e-03
3.703748579368525952e+03 2.449707512056760184e-01 9.828123187339443678e-03
3.707452327947895355e+03 2.523822513652376753e-01 1.116865712604097477e-02
3.711159780275844696e+03 2.549500438712704597e-01 1.150376840702255730e-02
3.714870940056121526e+03 2.541509963560605878e-01 1.063511896684559040e-02
3.718585810996179134e+03 2.503046242239759245e-01 8.396324925103859985e-03
3.722304396807176545e+03 2.504514312602357240e-01 6.084621206290581098e-03
3.726026701203984885e+03 2.563106844724614697e-01 6.902213674848273542e-03
3.729752727905190113e+03 2.618309362285747843e-01 7.205153222109296832e-03
3.733482480633096657e+03 2.727231448746886278e-01 7.951904571811880054e-03
3.737215963113731050e+03 2.803137300293923606e-01 7.969300250572200484e-03
3.740953179076846027e+03 2.901647546440070946e-01 7.654707035098021022e-03
3.744694132255923705e+03 2.955663512190171427e-01 7.459353956329013539e-03
3.748438826388181042e+03 2.988583798137531833e-01 5.944104406564971327e-03
3.752187265214570289e+03 2.954093645271431146e-01 5.768367772290275940e-03
3.755939452479786269e+03 2.865063860711310473e-01 5.705008496654170175e-03
3.759695391932267285e+03 2.713272358801085415e-01 5.574305416232092948e-03
3.763455087324201031e+03 2.500827108320329839e-01 5.422756311378896556e-03
3.767218542411526414e+03 2.246531402066683780e-01 5.720131991292841910e-03
3.770985760953939007e+03 1.919235715124231467e-01 5.202123941173785078e-03
3.774756746714894234e+03 1.581129532010341343e-01 5.133611991277427927e-03
3.778531503461610555e+03 1.267421632504594220e-01 4.836585679844020505e-03
3.782310034965073100e+03 9.142839087627346872e-02 4.993361979661128242e-03
3.786092345000039586e+03 5.450213842085856186e-02 5.884891250120993095e-03
3.789878437345040766e+03 1.998228508540940418e-02 7.184417548791096134e-03
3.793668315782387253e+03 -5.820180551758549758e-03 7.043461682693145931e-03
3.797461984098170888e+03 -2.765014884497313252e-02 6.559198534907734017e-03
3.801259446082270188e+03 -4.136152882348261006e-02 4.204187568843054980e-03
3.805060705528353537e+03 -4.131718338515906475e-02 4.418200768497683624e-03
3.808865766233883278e+03 -3.136624554829680472e-02 4.488746516585494055e-03
3.812674632000118436e+03 -9.842879287175067271e-03 6.528740119625476082e-03
3.816487306632119726e+03 1.585358449521390850e-02 8.355251317352391932e-03
3.820303793938753188e+03 4.495857579921507668e-02 8.965642841078076339e-03
3.824124097732693372e+03 7.115353892592134188e-02 7.627895401680598493e-03
3.827948221830427428e+03 8.825609028977254855e-02 6.713193901587035176e-03
3.831776170052258749e+03 9.723452829671130893e-02 7.540140688461528969e-03
3.835607946222312421e+03 1.030048209309178953e-01 8.622061987262180302e-03
3.839443554168536139e+03 1.029718828695109500e-01 1.049579216038551942e-02
3.843282997722705659e+03 1.028447492785368317e-01 1.034365082726080264e-02
3.847126280720429804e+03 1.047505214637933502e-01 8.368735840672804349e-03
3.850973407001151372e+03 1.156334826801404536e-01 6.295179301729053774e-03
3.854824380408153957e+03 1.378833822688281530e-01 7.243734809929590346e-03
3.858679204788563311e+03 1.677538160319630434e-01 8.112908253212366277e-03
3.862537883993353262e+03 2.022239260553405915e-01 8.116889089378109476e-03
3.866400421877347981e+03 2.432553729038345325e-01 8.033578704415273927e-03
3.870266822299226533e+03 2.876897293499293129e-01 4.692703855088781358e-03
3.874137089121526969e+03 3.252494945189858266e-01 5.212243919810036381e-03
3.878011226210649966e+03 3.623947858365577090e-01 5.233654339773199937e-03
3.881889237436861549e+03 3.913096296577925903e-01 5.421852680720893290e-03
3.885771126674299921e+03 4.186876650541226930e-01 5.756705647184550724e-03
3.889656897800975457e+03 4.410537266016055780e-01 7.608721093002889825e-03
3.893546554698777527e+03 4.551583996564524948e-01 7.781896512592830113e-03
3.897440101253477678e+03 4.607012920161076552e-01 7.311686634773766937e-03
3.901337541354732366e+03 4.541743458687007573e-01 8.560042189116084249e-03
3.905238878896088409e+03 4.439930319510993484e-01 9.074269333539075957e-03
3.909144117774985716e+03 4.300467288409229871e-01 9.828717935429151509e-03
3.913053261892762293e+03 4.122858252602470963e-01 1.057989580294600891e-02
3.916966315154656058e+03 3.982325651363539665e-01 1.002931857467005868e-02
3.920883281469812118e+03 3.891652943387820529e-01 8.048956214096431028e-03
3.924804164751283224e+03 3.904837114131456399e-01 7.347705693629516185e-03
3.928728968916035683e+03 4.030727014597614843e-01 7.875495066217328213e-03
3.932657697884953450e+03 4.240094021637688670e-01 8.475185068409676892e-03
3.936590355582839493e+03 4.516697236732297172e-01 8.473831650395100001e-03
3.940526945938423523e+03 4.877891752012118443e-01 6.888758658815435400e-03
3.944467472884363360e+03 5.241687122700500190e-01 5.322548915787854266e-03
3.948411940357249023e+03 5.547652377071854435e-01 5.182654766158409365e-03
3.952360352297607733e+03 5.848932918640121770e-01 4.568839449255007214e-03
3.956312712649906643e+03 6.054751382826593087e-01 3.587948304113743395e-03
3.960269025362557841e+03 6.275916130452093844e-01 3.644032125369570801e-03
3.964229294387921527e+03 6.471448661677180469e-01 3.534889491593805853e-03
3.968193523682310570e+03 6.618798149924123297e-01 3.913409966941777153e-03
3.972161717205994591e+03 6.745249276839264674e-01 4.993686697191800604e-03
3.976133878923201792e+03 6.857832229604686747e-01 3.943317889196822079e-03
3.980110012802126221e+03 7.016679615311193219e-01 3.919899543672226289e-03
3.984090122814929600e+03 7.174515367631818519e-01 4.413161243098840184e-03
3.988074212937745870e+03 7.367983010301337732e-01 3.834222727864457052e-03
3.992062287150684824e+03 7.602917168448574126e-01 4.668102523334253032e-03
3.996054349437837118e+03 7.853762581696679401e-01 6.009090740411296427e-03
4.000050403787276082e+03 8.096294290707328756e-01 6.472636856019908964e-03
4.004050454191064546e+03 8.288470884492681323e-01 5.895662714807888526e-03
4.008054504645257111e+03 8.431454005487807324e-01 5.318996724778105034e-03
4.012062559149903791e+03 8.491788502097828983e-01 5.222396940002969369e-03
4.016074621709055009e+03 8.498207094661752725e-01 5.028735198732558510e-03
4.020090696330765240e+03 8.436624579043349170e-01 5.080722977898520162e-03
4.024110787027097558e+03 8.286204242054787672e-01 5.085228387048580483e-03
4.028134897814125907e+03 8.084597276172312830e-01 5.443408625968350345e-03
4.032163032711941469e+03 7.860989794430038868e-01 3.774257814050489390e-03
4.036195195744654484e+03 7.673298962042129912e-01 3.556052681043822116e-03
4.040231390940400615e+03 7.489270072473719342e-01 3.449014150715318510e-03
4.044271622331342314e+03 7.351513567987426612e-01 4.947370759461730029e-03
4.048315893953675186e+03 7.200291579529085606e-01 4.904644367660313323e-03
4.052364209847629809e+03 7.097743326498455740e-01 5.544567859124042986e-03
4.056416574057479011e+03 6.964685082046878639e-01 4.844194294388924280e-03
4.060472990631537868e+03 6.787516829516248018e-01 4.872045637828010221e-03
4.064533463622170530e+03 6.624390366379852013e-01 4.787565766565935431e-03
4.068597997085794304e+03 6.437451672653520252e-01 4.711745014593606527e-03
4.072666595082881486e+03 6.235506443530804965e-01 5.178135112209349827e-03
4.076739261677965715e+03 6.029455016166876957e-01 5.924962287287955341e-03
4.080816000939644709e+03 5.829229357149845470e-01 6.029871108856791652e-03
4.084896816940585722e+03 5.686363702050426516e-01 5.482365899514152728e-03
4.088981713757527814e+03 5.585527923970916575e-01 4.353180982499144439e-03
4.093070695471286854e+03 5.564327070966420541e-01 4.569123920196525336e-03
4.097163766166759160e+03 5.613067515668711538e-01 5.372526436884739187e-03
4.101260929932927866e+03 5.691218382442305712e-01 6.039095444275279292e-03
4.105362190862862008e+03 5.752328785329554606e-01 5.776668144773095849e-03
4.109467553053726078e+03 5.830810799846785075e-01 5.621605176789684459e-03
4.113577020606780934e+03 5.862732688348343268e-01 4.936167854586592449e-03
4.117690597627389252e+03 5.833345820447785046e-01 4.859087458189590217e-03
4.121808288225018259e+03 5.783119913990324434e-01 4.238982809105254664e-03
4.125930096513244280e+03 5.622592334707317008e-01 4.110181421370026622e-03
4.130056026609759101e+03 5.432218480064490151e-01 3.921698762252591279e-03
4.134186082636369974e+03 5.148654976201317846e-01 4.366520945317241623e-03
4.138320268719007800e+03 4.841610928728057872e-01 4.408050839783294282e-03
4.142458588987728035e+03 4.566109771213031632e-01 4.513592424607641880e-03
4.146601047576717065e+03 4.303411172954001995e-01 4.642512860965648282e-03
4.150747648624294925e+03 4.080616263439738600e-01 4.529357845189057111e-03
4.154898396272920763e+03 3.919728599593497176e-01 4.150087190685087732e-03
4.159053294669195566e+03 3.818144903711763183e-01 3.746419828199061813e-03
4.163212347963865795e+03 3.799932223601431014e-01 4.255850545845292834e-03
4.167375560311830668e+03 3.833610151850114223e-01 4.834722217142735715e-03
4.171542935872143971e+03 3.930833889985042573e-01 5.778762604259629100e-03
4.175714478808017702e+03 4.047248293681161568e-01 5.044209021420354225e-03
4.179890193286827525e+03 4.155569077117426402e-01 3.624134507454832704e-03
4.184070083480115500e+03 4.220521823125346073e-01 3.801834782441524362e-03
4.188254153563597356e+03 4.283370849363746236e-01 3.635260180879052155e-03
4.192442407717161586e+03 4.289268430325636761e-01 4.187180623167066976e-03
4.196634850124880359e+03 4.297575080261231140e-01 3.586403575016852002e-03
4.200831484975006788e+03 4.309304775757465955e-01 3.761770181347177510e-03
4.205032316459983122e+03 4.290165643508338511e-01 3.658911616205931267e-03
4.209237348776444378e+03 4.261785458496474277e-01 3.633839945417108135e-03
4.213446586125221984e+03 4.215509903817709625e-01 3.510676752500968990e-03
4.217660032711349231e+03 4.181138423566662099e-01 3.574701157598130733e-03
4.221877692744061278e+03 4.139320829013649061e-01 3.705323875303074763e-03
4.226099570436806971e+03 4.097293691236623681e-01 4.101550504611924108e-03
4.230325670007245208e+03 4.067630372637804914e-01 4.272947120423028350e-03
4.234555995677254032e+03 4.065130076465610642e-01 4.130074913511905949e-03
4.238790551672932452e+03 4.069677572083816308e-01 3.690978338172271143e-03
4.243029342224606808e+03 4.101346165306971048e-01 3.764139302288337704e-03
4.247272371566832589e+03 4.153710974254816723e-01 4.213052169974951765e-03
4.251519643938400804e+03 4.233951693856297105e-01 4.111022091942839393e-03
4.255771163582340705e+03 4.302373678395081114e-01 3.489242196152239888e-03
4.260026934745924336e+03 4.352156546860583841e-01 3.155828881549618738e-03
4.264286961680671993e+03 4.385438512888798490e-01 3.188779465378212188e-03
4.268551248642354039e+03 4.397523959993766551e-01 3.434685597025926348e-03
4.272819799890998183e+03 4.380143204014070313e-01 2.746085819506383866e-03
4.277092619690890388e+03 4.376075124812592865e-01 2.646657548537843796e-03
4.281369712310583054e+03 4.368365140514817724e-01 2.583780271849008946e-03
4.285651082022895025e+03 4.351039272306114758e-01 2.491092852036168055e-03
4.289936733104918858e+03 4.327772777265179727e-01 2.608142948426407214e-03
4.294226669838025373e+03 4.305809187094482016e-01 2.647491807766051610e-03
4.298520896507864563e+03 4.281326005081353414e-01 1.508043948724806325e-03
4.302819417404373780e+03 4.208839457563953723e-01 1.693137749887002261e-03
4.307122236821779552e+03 4.125007983283375812e-01 1.641858177530018193e-03
4.311429359058603040e+03 4.012712280434491685e-01 1.628503489673497609e-03
4.315740788417662770e+03 3.878354678125501831e-01 1.720758863173561023e-03
4.320056529206081905e+03 3.717988393205575726e-01 1.646614305384531268e-03
4.324376585735290064e+03 3.556562910738463312e-01 1.408037575823604948e-03
4.328700962321026054e+03 3.395411156377098338e-01 1.376779896457657523e-03
4.333029663283348782e+03 3.248921496901090999e-01 1.374857080616312182e-03
4.337362692946633615e+03 3.101146751804434998e-01 1.719199940024868306e-03
4.341700055639581478e+03 2.972407886934717025e-01 2.014489920087528686e-03
4.346041755695222491e+03 2.886194169780947338e-01 2.114495205418576770e-03
4.350387797450919606e+03 2.834276123520457769e-01 2.035649137666954711e-03
4.354738185248371337e+03 2.827608323163273152e-01 1.814425087588861013e-03
4.359092923433621763e+03 2.874325277315707972e-01 1.823879807273945646e-03
4.363452016357056891e+03 2.968157181145190671e-01 2.287012437435072265e-03
4.367815468373414660e+03 3.089152686614616283e-01 2.296733308632756092e-03
4.372183283841789489e+03 3.249111237084629233e-01 2.738839676400349650e-03
4.376555467125633186e+03 3.421548652231206633e-01 2.810348003817851256e-03
4.380932022592760404e+03 3.590254495494356046e-01 2.534109472900473222e-03
4.385312954615354101e+03 3.730323519896772688e-01 2.556395503450270123e-03
4.389698267569970994e+03 3.845451129306452498e-01 1.742478838709094792e-03
4.394087965837542470e+03 3.914948636343178467e-01 1.850377157578522117e-03
4.398482053803381859e+03 3.936655958476652506e-01 2.714298925747940083e-03
4.402880535857186260e+03 3.937248072805807908e-01 2.494211273434676895e-03
4.407283416393044718e+03 3.920562635830198150e-01 2.444798501159526835e-03
4.411690699809440048e+03 3.894239799990942830e-01 2.169851221261788823e-03
4.416102390509250654e+03 3.884431323688951054e-01 2.144928025525985778e-03
4.420518492899761441e+03 3.865907506394586912e-01 1.939711088927445698e-03
4.424939011392662906e+03 3.874184786031016348e-01 1.950809667461519178e-03
4.429363950404056595e+03 3.904097119066708976e-01 1.978131934981559349e-03
4.433793314354462382e+03 3.948713048753195731e-01 1.939357078220080429e-03
4.438227107668818462e+03 4.013307430293711620e-01 1.956457047274594817e-03
4.442665334776488635e+03 4.107112572284148388e-01 1.864967711804848714e-03
4.447108000111265937e+03 4.214500299508385783e-01 1.956915773317697681e-03
4.451555108111379013e+03 4.343491513776714941e-01 2.291695156981912989e-03
4.456006663219492111e+03 4.491081877141723799e-01 2.749510339107135316e-03
4.460462669882713271e+03 4.636290839295937882e-01 2.788683775650657552e-03
4.464923132552597053e+03 4.795064808531410705e-01 3.027858647579200792e-03
4.469388055685150903e+03 4.938344740244915987e-01 2.860164217906430422e-03
4.473857443740837880e+03 5.077223161887653990e-01 3.272080293653050354e-03
4.478331301184580298e+03 5.219934176820860694e-01 3.683671001393043574e-03
