# starting wavelength: 3436.450
# ending wavelength: 7272.510
# wav flux eflux
3.439693648295834464e+03 4.922341878857642850e-01 2.431097942320196298e-02
3.443133341944131189e+03 4.770343785821695159e-01 1.978449778656617142e-02
3.446576475286076402e+03 4.712653733025420899e-01 1.557572223017383330e-02
3.450023051761363604e+03 4.772432833087156823e-01 1.472365772097181634e-02
3.453473074813126004e+03 4.871492891392319446e-01 1.274845410224063544e-02
3.456926547887940615e+03 5.010114206629902034e-01 1.042658557234765054e-02
3.460383474435829612e+03 5.193140066494836837e-01 9.144100432059057426e-03
3.463843857910266706e+03 5.405124803593636118e-01 8.228648413966426975e-03
3.467307701768178049e+03 5.661000642865379184e-01 7.320112646121287696e-03
3.470775009469947236e+03 5.943876679047086498e-01 6.630178162947960273e-03
3.474245784479418489e+03 6.247462193566464261e-01 6.123971593801930992e-03
3.477720030263898934e+03 6.597027700359805458e-01 6.751208344306658567e-03
3.481197750294164052e+03 6.956720914314969972e-01 7.643119915544077485e-03
3.484678948044459503e+03 7.270962968109412339e-01 7.475349094757402502e-03
3.488163626992504760e+03 7.560512214085597371e-01 7.397140503903230739e-03
3.491651790619498570e+03 7.770882428585418333e-01 7.686466707823775592e-03
3.495143442410119405e+03 7.977268283885091682e-01 7.859448365204281528e-03
3.498638585852530468e+03 8.107619300319597322e-01 8.546167932029504269e-03
3.502137224438384237e+03 8.241112909467209757e-01 8.529447412907387865e-03
3.505639361662823831e+03 8.355665388063193699e-01 8.937762888620030127e-03
3.509145001024487556e+03 8.406805518994457938e-01 8.798334407839702651e-03
3.512654146025513455e+03 8.367781684184030233e-01 9.260443979907686390e-03
3.516166800171540217e+03 8.278438659370574992e-01 9.839051200899600474e-03
3.519682966971712631e+03 8.154934410346382778e-01 1.031100661705531239e-02
3.523202649938685681e+03 7.973247813128416794e-01 1.063174163626378482e-02
3.526725852588625457e+03 7.785528307025714190e-01 1.066391641576523719e-02
3.530252578441215064e+03 7.585175579954130942e-01 1.067336534293656866e-02
3.533782831019657806e+03 7.350986083584112318e-01 1.056792153273209897e-02
3.537316613850678550e+03 7.102048090950715542e-01 1.055803405849832337e-02
3.540853930464530094e+03 6.828324224934229081e-01 1.014477070720564908e-02
3.544394784394995895e+03 6.551887018607536195e-01 9.313026995146777773e-03
3.547939179179392340e+03 6.279561833291901207e-01 8.848072853644282226e-03
3.551487118358572843e+03 6.005831049454246617e-01 8.935186666866663796e-03
3.555038605476932389e+03 5.797263475444077718e-01 8.897963283969226658e-03
3.558593644082410719e+03 5.635306328002032128e-01 8.756362725404269812e-03
3.562152237726494150e+03 5.500215029442881987e-01 8.762173052551816901e-03
3.565714389964221937e+03 5.381047996494192631e-01 8.657121235971251480e-03
3.569280104354187188e+03 5.298795455988781766e-01 8.464682995276803096e-03
3.572849384458542772e+03 5.225751615761873303e-01 8.446850232691739679e-03
3.576422233843002232e+03 5.176822306984897315e-01 8.738678690872279248e-03
3.579998656076846601e+03 5.141948919044487809e-01 8.697456344584422738e-03
3.583578654732924406e+03 5.137530353282031559e-01 8.788418702337446112e-03
3.587162233387658489e+03 5.165330006093667992e-01 9.097423460334139178e-03
3.590749395621047370e+03 5.198600349187093572e-01 9.367582237697453032e-03
3.594340145016669794e+03 5.319188171199726867e-01 9.903455220658385905e-03
3.597934485161687462e+03 5.397452569792317023e-01 9.181087754338778176e-03
3.601532419646850485e+03 5.422672564852045740e-01 9.535248090155202388e-03
3.605133952066498296e+03 5.408459411051702581e-01 1.178791862728797643e-02
3.608739086018566013e+03 5.390993919034029469e-01 1.178926918715741089e-02
3.612347825104585809e+03 5.449127621316652847e-01 1.197474228672237330e-02
3.615960172929691907e+03 5.573410704114543091e-01 1.166366731361436100e-02
3.619576133102622407e+03 5.694165377475669532e-01 1.169005181692690624e-02
3.623195709235726554e+03 5.804205425400477125e-01 1.157508007674328508e-02
3.626818904944963379e+03 5.880924863628407273e-01 1.052690262978560852e-02
3.630445723849909427e+03 6.043127142293186482e-01 1.074255874052587253e-02
3.634076169573760581e+03 6.255163275377988441e-01 1.312644972893725094e-02
3.637710245743335690e+03 6.476603080463370077e-01 1.450013468496545548e-02
3.641347955989080219e+03 6.691761923865044981e-01 1.528238052017565594e-02
3.644989303945070333e+03 6.859197192016808220e-01 1.482638160608532214e-02
3.648634293249016537e+03 7.002886338591213233e-01 1.396973682598039689e-02
3.652282927542266862e+03 7.126891133475024009e-01 1.326798926630735204e-02
3.655935210469810499e+03 7.162591753764571134e-01 1.397387333465155423e-02
3.659591145680281443e+03 7.152268188101297275e-01 1.568599821988668486e-02
3.663250736825963031e+03 7.138193388810665230e-01 1.790038037119491901e-02
3.666913987562790226e+03 7.137414901357977959e-01 1.796564248657746971e-02
3.670580901550354156e+03 7.086823723598238978e-01 1.790729057077048922e-02
3.674251482451905758e+03 7.055024797495498268e-01 1.729071264057372229e-02
3.677925733934358959e+03 7.065525839810667952e-01 1.541575455091566405e-02
3.681603659668294313e+03 7.165948767013797793e-01 1.292871430459546257e-02
3.685285263327964003e+03 7.373193146087622107e-01 1.282034886194442086e-02
3.688970548591293209e+03 7.671432241245060846e-01 1.395946204862136795e-02
3.692659519139885560e+03 7.999735118911087683e-01 1.451930966403307613e-02
3.696352178659026777e+03 8.512435029756094673e-01 1.310055278101920385e-02
3.700048530837686940e+03 8.969581470586034389e-01 1.204376062404008754e-02
3.703748579368525952e+03 9.396184513870463606e-01 1.189831550408893511e-02
3.707452327947895355e+03 9.824692696990204865e-01 1.083366484921291679e-02
3.711159780275844696e+03 1.024414376958908690e+00 9.955860415730922314e-03
3.714870940056121526e+03 1.050792609557863466e+00 1.062032055309644965e-02
3.718585810996179134e+03 1.063339646637698532e+00 1.130177342841414030e-02
3.722304396807176545e+03 1.059392053391427613e+00 1.184510464112069165e-02
3.726026701203984885e+03 1.038814815130402192e+00 1.173376215723515373e-02
3.729752727905190113e+03 1.004080368933881084e+00 1.152040517190822816e-02
3.733482480633096657e+03 9.515561422656627633e-01 1.132688191628150078e-02
3.737215963113731050e+03 8.840720151292067452e-01 1.144243397639703626e-02
3.740953179076846027e+03 7.998748525934593623e-01 1.388457280130965532e-02
3.744694132255923705e+03 6.999474202641308151e-01 1.528866126287716995e-02
3.748438826388181042e+03 5.961094332388858774e-01 1.541397487481093419e-02
3.752187265214570289e+03 4.959762291917806376e-01 1.475116010717354362e-02
3.755939452479786269e+03 4.044785027047343995e-01 1.466597150160132805e-02
3.759695391932267285e+03 3.163197740608012509e-01 1.244196999761373879e-02
3.763455087324201031e+03 2.403634311141503999e-01 1.022612916053150869e-02
3.767218542411526414e+03 1.845930160929147024e-01 1.001781734207334539e-02
3.770985760953939007e+03 1.453210915963459304e-01 1.056018125578254627e-02
3.774756746714894234e+03 1.277805441851575796e-01 1.042147362707532797e-02
3.778531503461610555e+03 1.348967152650804580e-01 5.435960235668257576e-03
3.782310034965073100e+03 1.435713992212393764e-01 5.349116019920737049e-03
3.786092345000039586e+03 1.618650371621174477e-01 7.332347843220985567e-03
3.789878437345040766e+03 1.868381312008419171e-01 8.159498230746048408e-03
3.793668315782387253e+03 2.157711129332217925e-01 8.293377599684599935e-03
3.797461984098170888e+03 2.387558037559167623e-01 8.180166954760488551e-03
3.801259446082270188e+03 2.545397946573492165e-01 7.577191822462961066e-03
3.805060705528353537e+03 2.625816465507472830e-01 7.676648872639446272e-03
3.808865766233883278e+03 2.654797135912271289e-01 8.128790638386259107e-03
3.812674632000118436e+03 2.570109668927134106e-01 1.139184128010714558e-02
3.816487306632119726e+03 2.468112810405218016e-01 1.184021402252842352e-02
3.820303793938753188e+03 2.317425386466681059e-01 1.109452941794744976e-02
3.824124097732693372e+03 2.166343677892503261e-01 8.850652837202909948e-03
3.827948221830427428e+03 2.076273356350662735e-01 8.056757630827309988e-03
3.831776170052258749e+03 2.043576184163589105e-01 8.680450804138503326e-03
3.835607946222312421e+03 2.077675713170286376e-01 1.094160399197515940e-02
3.839443554168536139e+03 2.099973284517228922e-01 1.102052928692912569e-02
3.843282997722705659e+03 2.077249232469770557e-01 1.074896949954515929e-02
3.847126280720429804e+03 2.096776881758277977e-01 9.580817993279148320e-03
3.850973407001151372e+03 2.071310379567179449e-01 1.070623618153834951e-02
3.854824380408153957e+03 2.071030693042597570e-01 1.028828899747970781e-02
3.858679204788563311e+03 2.058190736503986984e-01 9.164998793380958741e-03
3.862537883993353262e+03 2.109497413029016444e-01 9.295763489178397732e-03
3.866400421877347981e+03 2.160015869837574598e-01 8.811153188305257192e-03
3.870266822299226533e+03 2.290262706934556580e-01 8.800969641409093006e-03
3.874137089121526969e+03 2.486095111775150635e-01 8.814033064868465397e-03
3.878011226210649966e+03 2.713477068722476293e-01 8.328513454075659947e-03
3.881889237436861549e+03 2.980979536632519800e-01 8.400011532718564336e-03
3.885771126674299921e+03 3.250509136856852277e-01 1.045350494047749684e-02
3.889656897800975457e+03 3.644163950309416422e-01 1.086975517299680963e-02
3.893546554698777527e+03 4.096979439568639303e-01 9.898853928269798694e-03
3.897440101253477678e+03 4.650773480555831507e-01 8.544775254645609400e-03
3.901337541354732366e+03 5.304033213193185547e-01 8.899693783470901190e-03
3.905238878896088409e+03 6.034239177496568685e-01 1.043999127836105385e-02
3.909144117774985716e+03 6.863294879024821604e-01 1.091740011909940813e-02
3.913053261892762293e+03 7.622618655602841908e-01 8.497508310697687167e-03
3.916966315154656058e+03 8.275249676419890177e-01 8.008388560535244921e-03
3.920883281469812118e+03 8.827861234088231202e-01 6.770545557553800213e-03
3.924804164751283224e+03 9.225999181159150186e-01 6.567865114217437579e-03
3.928728968916035683e+03 9.493077667135768616e-01 6.974743902548811124e-03
3.932657697884953450e+03 9.587298445608566366e-01 9.367791472225932281e-03
3.936590355582839493e+03 9.609956516800089998e-01 9.466398278693272453e-03
3.940526945938423523e+03 9.548086071103069061e-01 6.923001018236773878e-03
3.944467472884363360e+03 9.490786101299255595e-01 4.804863338621187877e-03
3.948411940357249023e+03 9.477794532528310834e-01 5.319931060009532899e-03
3.952360352297607733e+03 9.484752252806399886e-01 6.143538058304669723e-03
3.956312712649906643e+03 9.496959332537470155e-01 5.833970921388490632e-03
3.960269025362557841e+03 9.495271602167857372e-01 7.133322376884946962e-03
3.964229294387921527e+03 9.573028151417850573e-01 7.936309872284354888e-03
3.968193523682310570e+03 9.732188381540288757e-01 7.925681468120724868e-03
3.972161717205994591e+03 9.950461451424501558e-01 8.152366599341650394e-03
3.976133878923201792e+03 1.019165149951626992e+00 8.320984520253683903e-03
3.980110012802126221e+03 1.045778857140197582e+00 8.360303076718715934e-03
3.984090122814929600e+03 1.076526189995659744e+00 8.377007066054837497e-03
3.988074212937745870e+03 1.104450527520226100e+00 8.679634613341863716e-03
3.992062287150684824e+03 1.132705577751103476e+00 8.588096628204342636e-03
3.996054349437837118e+03 1.157182497648145070e+00 7.698369867778015289e-03
4.000050403787276082e+03 1.176456705858826890e+00 6.974592850271235309e-03
4.004050454191064546e+03 1.187406027135558650e+00 8.013107007037169674e-03
4.008054504645257111e+03 1.191259649874721438e+00 7.928544540096555196e-03
4.012062559149903791e+03 1.193909766921240401e+00 7.363171190062585414e-03
4.016074621709055009e+03 1.190702006849644334e+00 6.080461338294334064e-03
4.020090696330765240e+03 1.187252790135664426e+00 6.061980303277991061e-03
4.024110787027097558e+03 1.183793656084947132e+00 6.026482924248131694e-03
4.028134897814125907e+03 1.180588733761028353e+00 4.976817973395671925e-03
4.032163032711941469e+03 1.169839575830311063e+00 4.829109366024304448e-03
4.036195195744654484e+03 1.152273803690121223e+00 5.518744454477187561e-03
4.040231390940400615e+03 1.135081463961115089e+00 5.231528926602972349e-03
4.044271622331342314e+03 1.119707106683572428e+00 5.410423237852209424e-03
4.048315893953675186e+03 1.100092509527756057e+00 5.354679637116317378e-03
4.052364209847629809e+03 1.078099204418578427e+00 5.325080775564246770e-03
4.056416574057479011e+03 1.052596170921245466e+00 5.089893557052545432e-03
4.060472990631537868e+03 1.028829694978528497e+00 5.034703981641827468e-03
4.064533463622170530e+03 1.006946396744553773e+00 5.003019277353267132e-03
4.068597997085794304e+03 9.861891719912418974e-01 4.957145288467002496e-03
4.072666595082881486e+03 9.663705602196152045e-01 5.746055759840455225e-03
4.076739261677965715e+03 9.506188080137729646e-01 5.800275541783174449e-03
4.080816000939644709e+03 9.379534709484390609e-01 5.114002614509509555e-03
4.084896816940585722e+03 9.315471391913537902e-01 5.684115051317872695e-03
4.088981713757527814e+03 9.303607966561696641e-01 6.236490175351694018e-03
4.093070695471286854e+03 9.296694485920784512e-01 6.223501677993496621e-03
4.097163766166759160e+03 9.336380898192547795e-01 5.869024019096843493e-03
4.101260929932927866e+03 9.388890665110961598e-01 6.436447423915934996e-03
4.105362190862862008e+03 9.499767273149647417e-01 6.329386146398456071e-03
4.109467553053726078e+03 9.609600209157326267e-01 6.083761486041252414e-03
4.113577020606780934e+03 9.741066641734065223e-01 5.156274743730171820e-03
4.117690597627389252e+03 9.917670652069192627e-01 5.160168470423899187e-03
4.121808288225018259e+03 1.012074199692766019e+00 5.433087015924461041e-03
4.125930096513244280e+03 1.032859433778148039e+00 6.588214356693421550e-03
4.130056026609759101e+03 1.052970882121989193e+00 7.347686476379236380e-03
4.134186082636369974e+03 1.066014539519805515e+00 7.004891565751297441e-03
4.138320268719007800e+03 1.075898297465350151e+00 6.176543252898110924e-03
4.142458588987728035e+03 1.080891695433173760e+00 5.612858357514725373e-03
4.146601047576717065e+03 1.077340514501028412e+00 6.429476848858970903e-03
4.150747648624294925e+03 1.066332551924952243e+00 6.430359074112997064e-03
4.154898396272920763e+03 1.054050484662793608e+00 5.284432733273041610e-03
4.159053294669195566e+03 1.040154878369869307e+00 5.128831044657380586e-03
4.163212347963865795e+03 1.026161905365209126e+00 5.996634716337145669e-03
4.167375560311830668e+03 1.009028076827602094e+00 5.793423977746819942e-03
4.171542935872143971e+03 9.892197870230379220e-01 5.641018157574643685e-03
4.175714478808017702e+03 9.684763360344004202e-01 6.083936624791321836e-03
4.179890193286827525e+03 9.465788640537866616e-01 6.626715005704395325e-03
4.184070083480115500e+03 9.284344140889806418e-01 6.802532013714436727e-03
4.188254153563597356e+03 9.127906091099422525e-01 6.606259786596868112e-03
4.192442407717161586e+03 8.997253904322424223e-01 6.102581436983633457e-03
4.196634850124880359e+03 8.911244488562563015e-01 5.263583373125968121e-03
4.200831484975006788e+03 8.897358893150100201e-01 6.898841441981644167e-03
4.205032316459983122e+03 8.935795585854496847e-01 8.038109766676310858e-03
4.209237348776444378e+03 8.976421221391430727e-01 6.871671642008317371e-03
4.213446586125221984e+03 8.988215121300916488e-01 6.227094482781777955e-03
4.217660032711349231e+03 8.982901436336798717e-01 5.435486137702047471e-03
4.221877692744061278e+03 8.948865627684211566e-01 5.312458509103401734e-03
4.226099570436806971e+03 8.856087551836473448e-01 5.787953005481959699e-03
4.230325670007245208e+03 8.723211162099415716e-01 4.916367734178686208e-03
4.234555995677254032e+03 8.614065930268862692e-01 3.981353678920813641e-03
4.238790551672932452e+03 8.528156046794431733e-01 3.620484843322020491e-03
4.243029342224606808e+03 8.476587648436358924e-01 4.683675985274571123e-03
4.247272371566832589e+03 8.417736098509938092e-01 4.828196921427130653e-03
4.251519643938400804e+03 8.364743781039638559e-01 4.699779465464831024e-03
4.255771163582340705e+03 8.303000358307417450e-01 4.524969588556890070e-03
4.260026934745924336e+03 8.249002632147655056e-01 4.239630207431514981e-03
4.264286961680671993e+03 8.191984143065421664e-01 4.245613250823202130e-03
4.268551248642354039e+03 8.126811046034965180e-01 4.527386157922815013e-03
4.272819799890998183e+03 8.046361513821869149e-01 3.903989445782985682e-03
4.277092619690890388e+03 7.986173361147104188e-01 2.602804713110809780e-03
4.281369712310583054e+03 7.986094680113771105e-01 3.412026136511919251e-03
4.285651082022895025e+03 8.000918699398531508e-01 3.888281900191371907e-03
4.289936733104918858e+03 8.010871936989656383e-01 3.943456791772577755e-03
4.294226669838025373e+03 8.036129874224239300e-01 3.785560190975166116e-03
4.298520896507864563e+03 8.057431430287658181e-01 3.466808518670637298e-03
4.302819417404373780e+03 8.080721963420292031e-01 3.143260847838033872e-03
4.307122236821779552e+03 8.080692540241181110e-01 3.851158846294392563e-03
4.311429359058603040e+03 8.071240858359262083e-01 3.524137866727268618e-03
4.315740788417662770e+03 8.064592933327811020e-01 2.982314477363857876e-03
4.320056529206081905e+03 8.071799864631348242e-01 2.984350738905666017e-03
4.324376585735290064e+03 8.095299173787947611e-01 4.300758389839526991e-03
4.328700962321026054e+03 8.083685530194929525e-01 4.817853759294952846e-03
4.333029663283348782e+03 8.040098777263051666e-01 4.535012030458478345e-03
4.337362692946633615e+03 7.958698414422721301e-01 4.209739214968405592e-03
4.341700055639581478e+03 7.829951326910429277e-01 3.559676821693784528e-03
4.346041755695222491e+03 7.653242187811684083e-01 3.322560026081397468e-03
4.350387797450919606e+03 7.419932674881277723e-01 3.455511034191696869e-03
4.354738185248371337e+03 7.125700756503193789e-01 3.740984124238198871e-03
4.359092923433621763e+03 6.815907499664124458e-01 2.980832706714223700e-03
4.363452016357056891e+03 6.516217206313380528e-01 2.806612523492748711e-03
4.367815468373414660e+03 6.232196189339731518e-01 2.431618065375706992e-03
4.372183283841789489e+03 5.979267444384630537e-01 2.210080151022707912e-03
4.376555467125633186e+03 5.764359327618485684e-01 3.029783130566117682e-03
4.380932022592760404e+03 5.620848250244645516e-01 3.125299000278591605e-03
4.385312954615354101e+03 5.554561160380175888e-01 3.108148043192610326e-03
4.389698267569970994e+03 5.553605396997064458e-01 2.981936503914360461e-03
4.394087965837542470e+03 5.623242630104972051e-01 3.031926478008002863e-03
4.398482053803381859e+03 5.771921451036394757e-01 2.542281146716106246e-03
4.402880535857186260e+03 6.016403396152165683e-01 2.585181532584019618e-03
4.407283416393044718e+03 6.352783512660443721e-01 3.652152188935253816e-03
4.411690699809440048e+03 6.733014353645935257e-01 4.929981221425667678e-03
4.416102390509250654e+03 7.118506928925283361e-01 5.231129312364236200e-03
4.420518492899761441e+03 7.504600507601273396e-01 5.168236886143863680e-03
4.424939011392662906e+03 7.833103245658482594e-01 4.657626454646585784e-03
4.429363950404056595e+03 8.114427077814341249e-01 3.982931498116782515e-03
4.433793314354462382e+03 8.331291488297301040e-01 3.949885951145378805e-03
4.438227107668818462e+03 8.456371957116931570e-01 4.921689228269806628e-03
4.442665334776488635e+03 8.546116671276257071e-01 4.793855352486313219e-03
4.447108000111265937e+03 8.590418461975746212e-01 4.356467013886549181e-03
4.451555108111379013e+03 8.606462878258740457e-01 4.339146998293522822e-03
4.456006663219492111e+03 8.582854111095689076e-01 4.260818268221583383e-03
4.460462669882713271e+03 8.511200887997607545e-01 4.387544319629021333e-03
4.464923132552597053e+03 8.474327742582178358e-01 4.446855655972261311e-03
4.469388055685150903e+03 8.468480701860336968e-01 4.352610753911874582e-03
4.473857443740837880e+03 8.473134650922694577e-01 4.486850989951841548e-03
4.478331301184580298e+03 8.491874977941467062e-01 4.530369085436566044e-03
