# starting wavelength: 3498.840
# ending wavelength: 7272.510
# wav flux eflux
3.502137224438384237e+03 1.544644954513622270e+00 9.330046430553767811e-03
3.505639361662823831e+03 1.518724732537050759e+00 7.375395981873590114e-03
3.509145001024487556e+03 1.498005416259695188e+00 5.516744197972402002e-03
3.512654146025513455e+03 1.482360073562652536e+00 5.034835569117005784e-03
3.516166800171540217e+03 1.469766260622326293e+00 4.723897034859959009e-03
3.519682966971712631e+03 1.459017990174569235e+00 4.001370826649918409e-03
3.523202649938685681e+03 1.449976693441492159e+00 3.269048303086646585e-03
3.526725852588625457e+03 1.442598956167974622e+00 2.762209033574962534e-03
3.530252578441215064e+03 1.436674534338118869e+00 2.309306412246216016e-03
3.533782831019657806e+03 1.432318657833508979e+00 2.080537653513768633e-03
3.537316613850678550e+03 1.429204205347542889e+00 1.977559104177717495e-03
3.540853930464530094e+03 1.426867925697656636e+00 1.925820509381476415e-03
3.544394784394995895e+03 1.423754702225753510e+00 1.815458214287103082e-03
3.547939179179392340e+03 1.420825470660411982e+00 1.711343423309470094e-03
3.551487118358572843e+03 1.417905631823586532e+00 1.622248067489538660e-03
3.555038605476932389e+03 1.414519219123756777e+00 1.570096601239775406e-03
3.558593644082410719e+03 1.410804268819434437e+00 1.531095112803201571e-03
3.562152237726494150e+03 1.406629977705675216e+00 1.517581196645431110e-03
3.565714389964221937e+03 1.402082434841555258e+00 1.545646713613470311e-03
3.569280104354187188e+03 1.397123977006272222e+00 1.574563038540849075e-03
3.572849384458542772e+03 1.391156425893736337e+00 1.641424391969514406e-03
3.576422233843002232e+03 1.384220430353851228e+00 1.806476742317769972e-03
3.579998656076846601e+03 1.377148980231237330e+00 1.963259655133933398e-03
3.583578654732924406e+03 1.370546844632223538e+00 2.040845856184828663e-03
3.587162233387658489e+03 1.364106589208323506e+00 2.201760451761457325e-03
3.590749395621047370e+03 1.358096104856942876e+00 2.249182055711009334e-03
3.594340145016669794e+03 1.352344178559436561e+00 2.082446104211103672e-03
3.597934485161687462e+03 1.347759943398488369e+00 2.036776934058552417e-03
3.601532419646850485e+03 1.343575879310243693e+00 2.007886395284666937e-03
3.605133952066498296e+03 1.339498402458367377e+00 2.029649551460518866e-03
3.608739086018566013e+03 1.336893770013021898e+00 2.241629225552159606e-03
3.612347825104585809e+03 1.335146467175301499e+00 2.615666255791614450e-03
3.615960172929691907e+03 1.333855323958345940e+00 2.780779448721247809e-03
3.619576133102622407e+03 1.332839700866576438e+00 2.866052761382486581e-03
3.623195709235726554e+03 1.333506191525814844e+00 2.738576366900252745e-03
3.626818904944963379e+03 1.333412886746100146e+00 2.454505923476540518e-03
3.630445723849909427e+03 1.333578027783224984e+00 2.201877714392116298e-03
3.634076169573760581e+03 1.333459383022794320e+00 2.531101512101084205e-03
3.637710245743335690e+03 1.332708328411353893e+00 3.350428785408080500e-03
3.641347955989080219e+03 1.332605245746443234e+00 4.006485350437404523e-03
3.644989303945070333e+03 1.335833055041789619e+00 4.014428140033033353e-03
3.648634293249016537e+03 1.338227212233725982e+00 4.564968305273328295e-03
3.652282927542266862e+03 1.342547529253236949e+00 4.727608013299404444e-03
3.655935210469810499e+03 1.350285427825118179e+00 4.707531460810958010e-03
3.659591145680281443e+03 1.358554292013714360e+00 4.132637510745003351e-03
3.663250736825963031e+03 1.371504608271346903e+00 3.130816360599432500e-03
3.666913987562790226e+03 1.388499541615622723e+00 2.675216634508417388e-03
3.670580901550354156e+03 1.408976669647910462e+00 2.843623334533287340e-03
3.674251482451905758e+03 1.432797059675948281e+00 3.915571106855478961e-03
3.677925733934358959e+03 1.458851406813417295e+00 5.022825809431294419e-03
3.681603659668294313e+03 1.482747197275022355e+00 4.996372058374293039e-03
3.685285263327964003e+03 1.509904734675991289e+00 6.135416718963710055e-03
3.688970548591293209e+03 1.534013380845815400e+00 6.614393991878776691e-03
3.692659519139885560e+03 1.553873648487181347e+00 6.911649751597620690e-03
3.696352178659026777e+03 1.571911457473392559e+00 5.690212761810159274e-03
3.700048530837686940e+03 1.577421702679042248e+00 5.237047150792878934e-03
3.703748579368525952e+03 1.573132744232101921e+00 4.336082877722443989e-03
3.707452327947895355e+03 1.557446738653099461e+00 3.306552543188650238e-03
3.711159780275844696e+03 1.529834534990813788e+00 2.671939683068203474e-03
3.714870940056121526e+03 1.489917776605953925e+00 3.063915903532457574e-03
3.718585810996179134e+03 1.437804613991312985e+00 4.543828832965227799e-03
3.722304396807176545e+03 1.378686132601462111e+00 4.692976172714432778e-03
3.726026701203984885e+03 1.306698077802509461e+00 6.044996254020640856e-03
3.729752727905190113e+03 1.227780256876336518e+00 7.108748605524162732e-03
3.733482480633096657e+03 1.140913408922445083e+00 6.900950382359188895e-03
3.737215963113731050e+03 1.055065515053733582e+00 6.679382938555246743e-03
3.740953179076846027e+03 9.708284195314033083e-01 5.966038919469539466e-03
3.744694132255923705e+03 8.898018596066279429e-01 4.667392458512133017e-03
3.748438826388181042e+03 8.146943621324708174e-01 3.520419650917355932e-03
3.752187265214570289e+03 7.478246939321353537e-01 2.566679068320131332e-03
3.755939452479786269e+03 6.903632381371748172e-01 2.925101361504583476e-03
3.759695391932267285e+03 6.404848584874837103e-01 3.060925506451205556e-03
3.763455087324201031e+03 6.016667511471680552e-01 4.147576730346347676e-03
3.767218542411526414e+03 5.717979031979114612e-01 4.668927543210519768e-03
3.770985760953939007e+03 5.520504735289464282e-01 4.621622532665967467e-03
3.774756746714894234e+03 5.368563254093932091e-01 4.215445220117221281e-03
3.778531503461610555e+03 5.259115939978024068e-01 3.714062514859821189e-03
3.782310034965073100e+03 5.184335248371101379e-01 2.427546941664720202e-03
3.786092345000039586e+03 5.112905438552941551e-01 2.015421423537722134e-03
3.789878437345040766e+03 5.054971984269538421e-01 1.891566513854860262e-03
3.793668315782387253e+03 5.005501567535067808e-01 2.172588087679424088e-03
3.797461984098170888e+03 4.970941518832833750e-01 2.248704703807723713e-03
3.801259446082270188e+03 4.936787719199963176e-01 2.231798400626834340e-03
3.805060705528353537e+03 4.907032481097586829e-01 2.406140566344397783e-03
3.808865766233883278e+03 4.896275885588203258e-01 2.236034522741237041e-03
3.812674632000118436e+03 4.920416366113252171e-01 1.692650182367557658e-03
3.816487306632119726e+03 4.979792760040964161e-01 1.372050970606673252e-03
3.820303793938753188e+03 5.079451496946277844e-01 1.272737131239789349e-03
3.824124097732693372e+03 5.220237220463496142e-01 1.270081663627796540e-03
3.827948221830427428e+03 5.405110286929996066e-01 1.269006983654973920e-03
3.831776170052258749e+03 5.645461216745192301e-01 1.243349951267800355e-03
3.835607946222312421e+03 5.922737253637926358e-01 1.277396666155136131e-03
3.839443554168536139e+03 6.247071689201753042e-01 1.765784765788228029e-03
3.843282997722705659e+03 6.608948962583258702e-01 1.650501424977579784e-03
3.847126280720429804e+03 7.002974014205447517e-01 1.837006360091280113e-03
3.850973407001151372e+03 7.431614947745408539e-01 1.823730423703545309e-03
3.854824380408153957e+03 7.906877029512686672e-01 1.815430397735646540e-03
3.858679204788563311e+03 8.418230353975356683e-01 1.877635507805436267e-03
3.862537883993353262e+03 8.970234352136662315e-01 2.058072880242000149e-03
3.866400421877347981e+03 9.565473627357342634e-01 2.181813214716478867e-03
3.870266822299226533e+03 1.020113352871765855e+00 2.029636808707509840e-03
3.874137089121526969e+03 1.088644731387831577e+00 1.959894680709819894e-03
3.878011226210649966e+03 1.161931703436283714e+00 2.036969556702943746e-03
3.881889237436861549e+03 1.239288511045976371e+00 2.220105765863716624e-03
3.885771126674299921e+03 1.317952732331425292e+00 2.221779444376568210e-03
3.889656897800975457e+03 1.399191462766334881e+00 2.210520587467941153e-03
3.893546554698777527e+03 1.481202985639760383e+00 2.006975016627440996e-03
3.897440101253477678e+03 1.561713635765727748e+00 1.756102848945375423e-03
3.901337541354732366e+03 1.639928485821160464e+00 1.615526823089449187e-03
3.905238878896088409e+03 1.713518982510811028e+00 1.598306204657661119e-03
3.909144117774985716e+03 1.782494643400059475e+00 1.877260705624106190e-03
3.913053261892762293e+03 1.846599185769864926e+00 2.813249466179076549e-03
3.916966315154656058e+03 1.902892007435254662e+00 2.669633877705052984e-03
3.920883281469812118e+03 1.948376850304861296e+00 2.539378172065344733e-03
3.924804164751283224e+03 1.983637405711873525e+00 2.686469919036444092e-03
3.928728968916035683e+03 2.010968058736401165e+00 2.655561761512955418e-03
3.932657697884953450e+03 2.029635551029572937e+00 2.838545313889466546e-03
3.936590355582839493e+03 2.039520916452206123e+00 3.511875617813535379e-03
3.940526945938423523e+03 2.042617333771096000e+00 4.072421565700589351e-03
3.944467472884363360e+03 2.042476850469273852e+00 3.439651674325048224e-03
3.948411940357249023e+03 2.039900702263388599e+00 2.500765446133861904e-03
3.952360352297607733e+03 2.038021038101030413e+00 2.407145454995964808e-03
3.956312712649906643e+03 2.036256473322839877e+00 2.422395850845094397e-03
3.960269025362557841e+03 2.035436344951768284e+00 2.456634341357121030e-03
3.964229294387921527e+03 2.036389174431830984e+00 2.264513359920947329e-03
3.968193523682310570e+03 2.038973748398146046e+00 1.920956717559978806e-03
3.972161717205994591e+03 2.041872531204826924e+00 1.843305357056367055e-03
3.976133878923201792e+03 2.044733062631513665e+00 1.992979854976610534e-03
3.980110012802126221e+03 2.047770155426282379e+00 1.790976885192993671e-03
3.984090122814929600e+03 2.052728352919336086e+00 2.197066832770199710e-03
3.988074212937745870e+03 2.058136553933519242e+00 2.366962419024775180e-03
3.992062287150684824e+03 2.061705089364898491e+00 2.343446017410843064e-03
3.996054349437837118e+03 2.062935762669083850e+00 2.371009031777284674e-03
4.000050403787276082e+03 2.061591386876278520e+00 2.345437435146038255e-03
4.004050454191064546e+03 2.058522787709513580e+00 1.973963514064236511e-03
4.008054504645257111e+03 2.051685793736920171e+00 1.861653975323495800e-03
4.012062559149903791e+03 2.040365339039028836e+00 1.839318648811566915e-03
4.016074621709055009e+03 2.024307443677481277e+00 1.597093172155362832e-03
4.020090696330765240e+03 2.005117112934779122e+00 1.783500649495684161e-03
4.024110787027097558e+03 1.980550003329565989e+00 1.769890449089699981e-03
4.028134897814125907e+03 1.952388966050713437e+00 1.712410238533166673e-03
4.032163032711941469e+03 1.919656443563102277e+00 1.700147984397931385e-03
4.036195195744654484e+03 1.883455166628426936e+00 1.692277560263695307e-03
4.040231390940400615e+03 1.843329321067828763e+00 1.677180775207184373e-03
4.044271622331342314e+03 1.800521813598769283e+00 1.755804464474301167e-03
4.048315893953675186e+03 1.754913037078188687e+00 2.462743482539124420e-03
4.052364209847629809e+03 1.707497270814412049e+00 2.750959865964827493e-03
4.056416574057479011e+03 1.662279273895743481e+00 2.165545426936416832e-03
4.060472990631537868e+03 1.621462077411685243e+00 1.980592396719949196e-03
4.064533463622170530e+03 1.584014178751181667e+00 1.790603699827612730e-03
4.068597997085794304e+03 1.551304009038872112e+00 1.994177878532686025e-03
4.072666595082881486e+03 1.523287401977934774e+00 2.499956759829502061e-03
4.076739261677965715e+03 1.498475475224059439e+00 2.783141217513515273e-03
4.080816000939644709e+03 1.476085980674078257e+00 2.567144347658972293e-03
4.084896816940585722e+03 1.455669920964440589e+00 2.358917854726765798e-03
4.088981713757527814e+03 1.437246745905546463e+00 2.100942273181002299e-03
4.093070695471286854e+03 1.419630931457075862e+00 1.919416298022888880e-03
4.097163766166759160e+03 1.402216715271148217e+00 1.801739261209827974e-03
4.101260929932927866e+03 1.383669100592203716e+00 1.905317524263055833e-03
4.105362190862862008e+03 1.364086429657635158e+00 1.903080557965279584e-03
4.109467553053726078e+03 1.343766201001016514e+00 1.876049723320608346e-03
4.113577020606780934e+03 1.323786558075919162e+00 1.873805612226225317e-03
4.117690597627389252e+03 1.303802207256312240e+00 2.342672388556117907e-03
4.121808288225018259e+03 1.285734136301104780e+00 2.656956843602400423e-03
4.125930096513244280e+03 1.269045935590815022e+00 2.931130768540867338e-03
4.130056026609759101e+03 1.255169649111777641e+00 2.626707392295419500e-03
4.134186082636369974e+03 1.246221124220769694e+00 2.280754239832384709e-03
4.138320268719007800e+03 1.242435713902607208e+00 2.031337568978291378e-03
4.142458588987728035e+03 1.243430464074143371e+00 1.899918020659429902e-03
4.146601047576717065e+03 1.250368429690803529e+00 2.227987467603170010e-03
4.150747648624294925e+03 1.262141753197306926e+00 2.033182378252252568e-03
4.154898396272920763e+03 1.276943619229155225e+00 1.298611055478887839e-03
4.159053294669195566e+03 1.293371904076515921e+00 1.087925599721898664e-03
4.163212347963865795e+03 1.311408374134803489e+00 1.081055114102129691e-03
4.167375560311830668e+03 1.330102627317589992e+00 1.610463531846301720e-03
4.171542935872143971e+03 1.347378814708174000e+00 2.012672667582171906e-03
4.175714478808017702e+03 1.362262935620918824e+00 2.074194418344500659e-03
4.179890193286827525e+03 1.374614915096865619e+00 1.913372914503368638e-03
4.184070083480115500e+03 1.383220942861896008e+00 2.175543294352893457e-03
4.188254153563597356e+03 1.389373295747472037e+00 2.408404749966324560e-03
4.192442407717161586e+03 1.393047267539407885e+00 2.563899895165484399e-03
4.196634850124880359e+03 1.394347122181944565e+00 2.436494229807050545e-03
4.200831484975006788e+03 1.394271118400293386e+00 2.392636591116302242e-03
4.205032316459983122e+03 1.391912682019561087e+00 2.241152153662109240e-03
4.209237348776444378e+03 1.388161073719915040e+00 2.121744776564423070e-03
4.213446586125221984e+03 1.383994176756039973e+00 2.103615626553631546e-03
4.217660032711349231e+03 1.380445831246322808e+00 2.098670641511662330e-03
4.221877692744061278e+03 1.377538742146556361e+00 2.063442318242570284e-03
4.226099570436806971e+03 1.375597946189655696e+00 1.932046825053423999e-03
4.230325670007245208e+03 1.373616821944115829e+00 1.862796363043792407e-03
4.234555995677254032e+03 1.370988892109336943e+00 1.794061264189050851e-03
4.238790551672932452e+03 1.368236216972976704e+00 1.597818928370220307e-03
4.243029342224606808e+03 1.366144890867067252e+00 1.605472418675578297e-03
4.247272371566832589e+03 1.364845629218641720e+00 1.543785050136147396e-03
4.251519643938400804e+03 1.364344503501579320e+00 1.403454319028010116e-03
4.255771163582340705e+03 1.364344475174475768e+00 1.260609690402386077e-03
4.260026934745924336e+03 1.363861105525604467e+00 1.366238625274086502e-03
4.264286961680671993e+03 1.363079180898694398e+00 1.228999160708963432e-03
4.268551248642354039e+03 1.362491330183644989e+00 1.243249496091789700e-03
4.272819799890998183e+03 1.361728939531004601e+00 1.413412064950223326e-03
4.277092619690890388e+03 1.361069764074142041e+00 1.546390569748458399e-03
4.281369712310583054e+03 1.360097918018608354e+00 1.250797055181325111e-03
4.285651082022895025e+03 1.357851356603010373e+00 1.438171380769249271e-03
4.289936733104918858e+03 1.355133754578798033e+00 1.751093883135392514e-03
4.294226669838025373e+03 1.352058671810806523e+00 2.060324473882538341e-03
4.298520896507864563e+03 1.349868366804068076e+00 2.023891523124336702e-03
4.302819417404373780e+03 1.348497116418277075e+00 1.726561147921918575e-03
4.307122236821779552e+03 1.348573269823478915e+00 1.555638400934694111e-03
4.311429359058603040e+03 1.349619962350814939e+00 1.514128384989831249e-03
4.315740788417662770e+03 1.351245717014569525e+00 1.504092408251985445e-03
4.320056529206081905e+03 1.353876881146508282e+00 1.538696578158023397e-03
4.324376585735290064e+03 1.356157889295513952e+00 1.559984928348817244e-03
4.328700962321026054e+03 1.356548495334844784e+00 1.766893593358953183e-03
4.333029663283348782e+03 1.353983648817848051e+00 1.832975349275172946e-03
4.337362692946633615e+03 1.346595741642991895e+00 1.782032423827725537e-03
4.341700055639581478e+03 1.332015748311265568e+00 1.849901556198702479e-03
4.346041755695222491e+03 1.311033852456970683e+00 1.881460366993984411e-03
4.350387797450919606e+03 1.282396211944848874e+00 1.702281050033771547e-03
4.354738185248371337e+03 1.246214658776560791e+00 1.705742544580055422e-03
4.359092923433621763e+03 1.203486216139427301e+00 2.124910293586388093e-03
4.363452016357056891e+03 1.155129965904509337e+00 2.839337227054825833e-03
4.367815468373414660e+03 1.102692738168360886e+00 3.186996164997180515e-03
4.372183283841789489e+03 1.049512683746862240e+00 3.028943950286185332e-03
4.376555467125633186e+03 9.973444866631047123e-01 2.262231217368517681e-03
4.380932022592760404e+03 9.492985197900223326e-01 1.448951264328955614e-03
4.385312954615354101e+03 9.073568727475053164e-01 8.064350232641789807e-04
4.389698267569970994e+03 8.728647986094772993e-01 9.011360594849082912e-04
4.394087965837542470e+03 8.457787339186081388e-01 8.647183810768703602e-04
4.398482053803381859e+03 8.258666692386630315e-01 8.634074467206285424e-04
4.402880535857186260e+03 8.147572597643969461e-01 1.168540674864094976e-03
4.407283416393044718e+03 8.107619556590244247e-01 1.509538102200450949e-03
4.411690699809440048e+03 8.130076957297061035e-01 1.846298082253929052e-03
4.416102390509250654e+03 8.198304045606045198e-01 1.825788426177401159e-03
4.420518492899761441e+03 8.300973358993137818e-01 1.688607084428048058e-03
4.424939011392662906e+03 8.427954506247666844e-01 1.642245671186128237e-03
4.429363950404056595e+03 8.577195653955613786e-01 1.320905586965551940e-03
4.433793314354462382e+03 8.735692894643763973e-01 1.149182490255918655e-03
4.438227107668818462e+03 8.894362971924292260e-01 1.241020453156646769e-03
4.442665334776488635e+03 9.056544041229467323e-01 1.426841081475425672e-03
4.447108000111265937e+03 9.222497882168403383e-01 1.456074221264522890e-03
4.451555108111379013e+03 9.395420635255722352e-01 1.310437604601378961e-03
4.456006663219492111e+03 9.583169239540563211e-01 1.197160360698085830e-03
4.460462669882713271e+03 9.788139655341149270e-01 9.659150331892213609e-04
4.464923132552597053e+03 1.001720166342299878e+00 8.671445731676328530e-04
4.469388055685150903e+03 1.027764098743716881e+00 8.662750622138136458e-04
4.473857443740837880e+03 1.056473128766799885e+00 8.481446855708300349e-04
4.478331301184580298e+03 1.087045851204662794e+00 7.959226007296272979e-04
4.482809632485766087e+03 1.119432599861730049e+00 7.660539424851291581e-04
4.487292442118253348e+03 1.154215415789042076e+00 1.110911000835642769e-03
4.491779734560373072e+03 1.189924688267472552e+00 1.458526710262867971e-03
4.496271514294934605e+03 1.225796107107553823e+00 1.535706314737489073e-03
4.500767785809231100e+03 1.259785915201103057e+00 1.286154049111031938e-03
4.505268553595042249e+03 1.291556473033905750e+00 1.287503299149150068e-03
4.509773822148638828e+03 1.321569086824644801e+00 1.436871237730449197e-03
4.514283595970789065e+03 1.349784641340382230e+00 1.603495768661998772e-03
4.518797879566761367e+03 1.376470209090173702e+00 1.724078774823519346e-03
4.523316677446328868e+03 1.401273078697208074e+00 1.665165660052707504e-03
4.527839994123776705e+03 1.425630295450228679e+00 1.348214983383168222e-03
4.532367834117902021e+03 1.449858997176702191e+00 1.094650509910897324e-03
4.536900201952022144e+03 1.473816651672790190e+00 9.821922335675533234e-04
4.541437102153975502e+03 1.498166919622791360e+00 9.427295997573601014e-04
4.545978539256130716e+03 1.522822550972891653e+00 1.105710940334023520e-03
4.550524517795388419e+03 1.546954795560522733e+00 1.349706079366555641e-03
4.555075042313184895e+03 1.569624679937393186e+00 1.309738670144545286e-03
4.559630117355500261e+03 1.589456756218041944e+00 1.193497013243845000e-03
