# starting wavelength: 3436.450
# ending wavelength: 7272.510
# wav flux eflux
3.439693648295834464e+03 1.225586431516413555e+00 1.853733306213836349e-02
3.443133341944131189e+03 1.269151531988804482e+00 1.437002794232320607e-02
3.446576475286076402e+03 1.311180402737657902e+00 1.156769925435907620e-02
3.450023051761363604e+03 1.346757317103749685e+00 9.428696192910961810e-03
3.453473074813126004e+03 1.378780697040487002e+00 8.875677483243169658e-03
3.456926547887940615e+03 1.409690610806240141e+00 7.258940142727582541e-03
3.460383474435829612e+03 1.438051849542743454e+00 6.871708836883994205e-03
3.463843857910266706e+03 1.462897786900502428e+00 5.962331154838435877e-03
3.467307701768178049e+03 1.484231541454855696e+00 5.296453187601885861e-03
3.470775009469947236e+03 1.500916675398088040e+00 4.843030153824328179e-03
3.474245784479418489e+03 1.512439984908234392e+00 4.788732510326051788e-03
3.477720030263898934e+03 1.521552444385418035e+00 4.494078599159167034e-03
3.481197750294164052e+03 1.527683503992509406e+00 4.249497101327306438e-03
3.484678948044459503e+03 1.530184083784788651e+00 4.090445990863405060e-03
3.488163626992504760e+03 1.529281231868573343e+00 4.051688276857091410e-03
3.491651790619498570e+03 1.525768420885665888e+00 4.056896999630903167e-03
3.495143442410119405e+03 1.520865360792813092e+00 4.149700836238226324e-03
3.498638585852530468e+03 1.512415934051834832e+00 4.300571398117078795e-03
3.502137224438384237e+03 1.503096064822174283e+00 4.299413674424100960e-03
3.505639361662823831e+03 1.492219506322875588e+00 4.362287572784254337e-03
3.509145001024487556e+03 1.480758888720776323e+00 4.313454529021534464e-03
3.512654146025513455e+03 1.468760991502050972e+00 4.319019677991253747e-03
3.516166800171540217e+03 1.457508679283858744e+00 4.416327752628569983e-03
3.519682966971712631e+03 1.445536132902566440e+00 4.427605204458168534e-03
3.523202649938685681e+03 1.431966845025547830e+00 4.459106594303759857e-03
3.526725852588625457e+03 1.417916174919750416e+00 4.253936903047494250e-03
3.530252578441215064e+03 1.406152585868892135e+00 4.299623668970498601e-03
3.533782831019657806e+03 1.395000424681870355e+00 4.445928221699976986e-03
3.537316613850678550e+03 1.383790580083763766e+00 4.574837957703804282e-03
3.540853930464530094e+03 1.374211815845149509e+00 4.590589252922147590e-03
3.544394784394995895e+03 1.365972514122355985e+00 4.542048292090430754e-03
3.547939179179392340e+03 1.358540752209827618e+00 4.042473217620711802e-03
3.551487118358572843e+03 1.352009731720281493e+00 3.614717166400212549e-03
3.555038605476932389e+03 1.342080627496897938e+00 3.914558161167190110e-03
3.558593644082410719e+03 1.333085479586741062e+00 3.667317847090189025e-03
3.562152237726494150e+03 1.326358200807729704e+00 3.670583640800910430e-03
3.565714389964221937e+03 1.318897486484198467e+00 3.579119732743057600e-03
3.569280104354187188e+03 1.311850934566666904e+00 3.174107550252501780e-03
3.572849384458542772e+03 1.306948203804262132e+00 3.159236450291558543e-03
3.576422233843002232e+03 1.303746892594640272e+00 3.117428718758692534e-03
3.579998656076846601e+03 1.300579740949558527e+00 3.198659281028462184e-03
3.583578654732924406e+03 1.297665001727855927e+00 3.143425611227052083e-03
3.587162233387658489e+03 1.297101674310905395e+00 3.137883054101133461e-03
3.590749395621047370e+03 1.296405097376007731e+00 3.011674807385234399e-03
3.594340145016669794e+03 1.299552570213918123e+00 3.022747784892493121e-03
3.597934485161687462e+03 1.303104873328776447e+00 2.943526744514923799e-03
3.601532419646850485e+03 1.306768688901326358e+00 2.962629108447370051e-03
3.605133952066498296e+03 1.311385724792187180e+00 2.966404838894338286e-03
3.608739086018566013e+03 1.316445662625674418e+00 3.063314146261777570e-03
3.612347825104585809e+03 1.322502006807169339e+00 3.094728289483880158e-03
3.615960172929691907e+03 1.330548871640268693e+00 3.235555013695048335e-03
3.619576133102622407e+03 1.338686705405822908e+00 3.425800967442012030e-03
3.623195709235726554e+03 1.348255355413754852e+00 3.762890962665507710e-03
3.626818904944963379e+03 1.359125001138308919e+00 3.443758851459861273e-03
3.630445723849909427e+03 1.365631733105104217e+00 3.456508241208165050e-03
3.634076169573760581e+03 1.370456416169685721e+00 3.370922842622134548e-03
3.637710245743335690e+03 1.375956304586453127e+00 3.374477227908757263e-03
3.641347955989080219e+03 1.381650666273159134e+00 3.191239182252701874e-03
3.644989303945070333e+03 1.385856255446097141e+00 3.117601627758352905e-03
3.648634293249016537e+03 1.388921557169220167e+00 3.167535489110702429e-03
3.652282927542266862e+03 1.392346882742184766e+00 3.254155831896105716e-03
3.655935210469810499e+03 1.392545009810801204e+00 3.875483703882550215e-03
3.659591145680281443e+03 1.392222850121225708e+00 4.239483839139744289e-03
3.663250736825963031e+03 1.391534970759288559e+00 4.238168180721854639e-03
3.666913987562790226e+03 1.394369473533547010e+00 4.308944728976686622e-03
3.670580901550354156e+03 1.398810515664844267e+00 3.980947371695391784e-03
3.674251482451905758e+03 1.406989989370410088e+00 3.916256558177556163e-03
3.677925733934358959e+03 1.417288474110776519e+00 4.176222102393839335e-03
3.681603659668294313e+03 1.429302020236892012e+00 5.014656678669075079e-03
3.685285263327964003e+03 1.441802919349180145e+00 5.374325946949645542e-03
3.688970548591293209e+03 1.454743885245273205e+00 5.353619824306678904e-03
3.692659519139885560e+03 1.466156932889458808e+00 5.058972213621543319e-03
3.696352178659026777e+03 1.477485845260029240e+00 4.332301769870072414e-03
3.700048530837686940e+03 1.484226314738959607e+00 3.874765420305441559e-03
3.703748579368525952e+03 1.486742810434862117e+00 3.731309197695450650e-03
3.707452327947895355e+03 1.482488999885809511e+00 3.727641495347862842e-03
3.711159780275844696e+03 1.474303224603517481e+00 3.521628070118712657e-03
3.714870940056121526e+03 1.459105118358492881e+00 3.479303603189274133e-03
3.718585810996179134e+03 1.438137898170259277e+00 3.613229474162153471e-03
3.722304396807176545e+03 1.408237025450545410e+00 3.657306161862083557e-03
3.726026701203984885e+03 1.369153664779497959e+00 3.423962015602567428e-03
3.729752727905190113e+03 1.323634655438077790e+00 3.524485591911035755e-03
3.733482480633096657e+03 1.273159637575207004e+00 3.485351645589776764e-03
3.737215963113731050e+03 1.217590006668347602e+00 3.397357759049434139e-03
3.740953179076846027e+03 1.157640711947721002e+00 4.095606507115281958e-03
3.744694132255923705e+03 1.091100760711591899e+00 5.893615056088720092e-03
3.748438826388181042e+03 1.023866289219891534e+00 6.693543508700708008e-03
3.752187265214570289e+03 9.580175384912058556e-01 6.323268655039715122e-03
3.755939452479786269e+03 8.964477287521060989e-01 5.225998277424624000e-03
3.759695391932267285e+03 8.405026698988991019e-01 5.005395113571351265e-03
3.763455087324201031e+03 7.897678112642269044e-01 5.302873817161155197e-03
3.767218542411526414e+03 7.454376415718341198e-01 5.539335939107672968e-03
3.770985760953939007e+03 7.066279628063218965e-01 5.507577364498927180e-03
3.774756746714894234e+03 6.744973597170235147e-01 5.593536568819411359e-03
3.778531503461610555e+03 6.502867144980211123e-01 4.309720383243755698e-03
3.782310034965073100e+03 6.260324657985578689e-01 3.931842104178391237e-03
3.786092345000039586e+03 6.036480307623328656e-01 4.137842645025404699e-03
3.789878437345040766e+03 5.836778790961675289e-01 4.341438974546456102e-03
3.793668315782387253e+03 5.669999670390100110e-01 4.199211884505817984e-03
3.797461984098170888e+03 5.536184179568676145e-01 3.778078858534067441e-03
3.801259446082270188e+03 5.454550850972846865e-01 4.055308947429857314e-03
3.805060705528353537e+03 5.390579653025829865e-01 3.961535606515497084e-03
3.808865766233883278e+03 5.369149534561514781e-01 4.199467873475930604e-03
3.812674632000118436e+03 5.407174063350512760e-01 3.961965510228018274e-03
3.816487306632119726e+03 5.512562415709921781e-01 3.226193168460115245e-03
3.820303793938753188e+03 5.628669187981054645e-01 3.658104822574853848e-03
3.824124097732693372e+03 5.767309747662225927e-01 4.492975892599314520e-03
3.827948221830427428e+03 5.968901231182142109e-01 4.014199509958550627e-03
3.831776170052258749e+03 6.233654345335259972e-01 3.358694056829505253e-03
3.835607946222312421e+03 6.569914163352682523e-01 3.343971238581165510e-03
3.839443554168536139e+03 6.966377857970653675e-01 3.323591540495894441e-03
3.843282997722705659e+03 7.407104194017868348e-01 4.040858605381861431e-03
3.847126280720429804e+03 7.893018903524957608e-01 6.028594524492716586e-03
3.850973407001151372e+03 8.388207859387356580e-01 6.398520566644642221e-03
3.854824380408153957e+03 8.847160914032162760e-01 5.386659803598642729e-03
3.858679204788563311e+03 9.246427563671818506e-01 4.936096038252973765e-03
3.862537883993353262e+03 9.590992197373944261e-01 6.313857389346345071e-03
3.866400421877347981e+03 9.900055042260341720e-01 7.914817300182784218e-03
3.870266822299226533e+03 1.021036972967529488e+00 8.246626875080998939e-03
3.874137089121526969e+03 1.055880746984256602e+00 7.458632346489271932e-03
3.878011226210649966e+03 1.094417680661762482e+00 6.939139322715936857e-03
3.881889237436861549e+03 1.135894154498497732e+00 6.290098646873115880e-03
3.885771126674299921e+03 1.182868389904907280e+00 6.425859037472245704e-03
3.889656897800975457e+03 1.236783094359807045e+00 6.151124213791547835e-03
3.893546554698777527e+03 1.291946808021982473e+00 5.963737347438697808e-03
3.897440101253477678e+03 1.350144832118955085e+00 5.725779312766346094e-03
3.901337541354732366e+03 1.410463839048343937e+00 5.123628162137515082e-03
3.905238878896088409e+03 1.470302335062606769e+00 4.891715359883198368e-03
3.909144117774985716e+03 1.525784803546310187e+00 4.858033778485823864e-03
3.913053261892762293e+03 1.578143792540283030e+00 4.929307988106148945e-03
3.916966315154656058e+03 1.626553802124465653e+00 6.094913991167103667e-03
3.920883281469812118e+03 1.669927753322993480e+00 6.554539748032736299e-03
3.924804164751283224e+03 1.704439134337379258e+00 5.646658218666313067e-03
3.928728968916035683e+03 1.730998575387516780e+00 4.448495266805191882e-03
3.932657697884953450e+03 1.746056083084495114e+00 4.637648157348580637e-03
3.936590355582839493e+03 1.750709355561312908e+00 5.829151076809568552e-03
3.940526945938423523e+03 1.746361968163609113e+00 6.350788323817704861e-03
3.944467472884363360e+03 1.738168758569091699e+00 5.272034223077599023e-03
3.948411940357249023e+03 1.730501987353143978e+00 4.774099704300413527e-03
3.952360352297607733e+03 1.720561234402421480e+00 4.156297477650593326e-03
3.956312712649906643e+03 1.712366176237110293e+00 3.934448645272047712e-03
3.960269025362557841e+03 1.706808872420135348e+00 4.022559777544045846e-03
3.964229294387921527e+03 1.706634461715762718e+00 4.005710699449988380e-03
3.968193523682310570e+03 1.710048933085021483e+00 4.461976043560797640e-03
3.972161717205994591e+03 1.714659204682528193e+00 4.061845114092985619e-03
3.976133878923201792e+03 1.719719427801214673e+00 4.065042561817881761e-03
3.980110012802126221e+03 1.725607295724189694e+00 4.121685967144250035e-03
3.984090122814929600e+03 1.731346477779837745e+00 3.650350316221110617e-03
3.988074212937745870e+03 1.740046823597838133e+00 3.912738575110649014e-03
3.992062287150684824e+03 1.747773964411789782e+00 4.041593998633483641e-03
3.996054349437837118e+03 1.753845783240009837e+00 4.330282515775155626e-03
4.000050403787276082e+03 1.754756640889703956e+00 4.485918363545816044e-03
4.004050454191064546e+03 1.752381530887856975e+00 3.919718907366153554e-03
4.008054504645257111e+03 1.741238054131686086e+00 3.635817648539054012e-03
4.012062559149903791e+03 1.722667854315019120e+00 3.606340844694588561e-03
4.016074621709055009e+03 1.695656301574251845e+00 3.874231378137243855e-03
4.020090696330765240e+03 1.664184734287535550e+00 4.171654072450362016e-03
4.024110787027097558e+03 1.630094234808615816e+00 4.274201158879486866e-03
4.028134897814125907e+03 1.589955295021016957e+00 4.825471349023191872e-03
4.032163032711941469e+03 1.549426454509187590e+00 4.373344350741948869e-03
4.036195195744654484e+03 1.509764545239966615e+00 2.223843557282171018e-03
4.040231390940400615e+03 1.477275964349688886e+00 3.378500483649297254e-03
4.044271622331342314e+03 1.449184864148231222e+00 3.795911972049259564e-03
4.048315893953675186e+03 1.421495111947087553e+00 3.716680994095110033e-03
4.052364209847629809e+03 1.397628057616311370e+00 3.598958994719467577e-03
4.056416574057479011e+03 1.376781474405535111e+00 3.696746492252739325e-03
4.060472990631537868e+03 1.360210049905868024e+00 3.666672749649378324e-03
4.064533463622170530e+03 1.347157674189614740e+00 3.648023107914029079e-03
4.068597997085794304e+03 1.335992833160201565e+00 3.615444256236213013e-03
4.072666595082881486e+03 1.327428941730823597e+00 3.684910110232354503e-03
4.076739261677965715e+03 1.320194264893713498e+00 3.903209598438572066e-03
4.080816000939644709e+03 1.314483337437011068e+00 4.160691976659698643e-03
4.084896816940585722e+03 1.307541089313528193e+00 4.372611208798712033e-03
4.088981713757527814e+03 1.299252074168169901e+00 3.955580561978896785e-03
4.093070695471286854e+03 1.288218600185902174e+00 4.192009121232993275e-03
4.097163766166759160e+03 1.276997308776566475e+00 4.282878442466185598e-03
4.101260929932927866e+03 1.264917131914565118e+00 4.466180887456669066e-03
4.105362190862862008e+03 1.249758579776137690e+00 4.161099227158255448e-03
4.109467553053726078e+03 1.236013440530651541e+00 3.104938334347624902e-03
4.113577020606780934e+03 1.224668991731295398e+00 2.178025236882195383e-03
4.117690597627389252e+03 1.218099788968721509e+00 2.217026476657102656e-03
4.121808288225018259e+03 1.214248635553887512e+00 2.284868081173958409e-03
4.125930096513244280e+03 1.211213002726668320e+00 2.426810110215530444e-03
4.130056026609759101e+03 1.209733088086380137e+00 2.126177151957720207e-03
4.134186082636369974e+03 1.208899077023346980e+00 2.144840947199634553e-03
4.138320268719007800e+03 1.210086587634720212e+00 2.020502765970940730e-03
4.142458588987728035e+03 1.211811020325736843e+00 2.117457102212369317e-03
4.146601047576717065e+03 1.213821701999209246e+00 2.096134839590903243e-03
4.150747648624294925e+03 1.216990387822856290e+00 1.676541082745040779e-03
4.154898396272920763e+03 1.222690734979897664e+00 1.571431412028612704e-03
4.159053294669195566e+03 1.230720867447962830e+00 2.026961565396298223e-03
4.163212347963865795e+03 1.239807188453925901e+00 2.070790324983461887e-03
4.167375560311830668e+03 1.247263621109605980e+00 2.044603890274390105e-03
4.171542935872143971e+03 1.254742128354203956e+00 2.013481343118022401e-03
4.175714478808017702e+03 1.262400650138237213e+00 1.754373506763657557e-03
4.179890193286827525e+03 1.268001934594892299e+00 1.554216759749613022e-03
4.184070083480115500e+03 1.270403461653758725e+00 1.620365538952541363e-03
4.188254153563597356e+03 1.271217083771650991e+00 1.795552062754794589e-03
4.192442407717161586e+03 1.271070294862121308e+00 1.738442132092698090e-03
4.196634850124880359e+03 1.268896461554590571e+00 1.564972493836561682e-03
4.200831484975006788e+03 1.267339218554323077e+00 2.185141056356397667e-03
4.205032316459983122e+03 1.263686294571384039e+00 2.144308069280687241e-03
4.209237348776444378e+03 1.257864535847903475e+00 2.349511030302420169e-03
4.213446586125221984e+03 1.251710958480400926e+00 2.722597754465014980e-03
4.217660032711349231e+03 1.246464160629132900e+00 3.199833497214132298e-03
4.221877692744061278e+03 1.242417369868296984e+00 3.360088705898202095e-03
4.226099570436806971e+03 1.240538697941304669e+00 3.001237890193194247e-03
4.230325670007245208e+03 1.241135888374182539e+00 2.563404642227790509e-03
4.234555995677254032e+03 1.246190377913442227e+00 3.330288165879810580e-03
4.238790551672932452e+03 1.253135473711993964e+00 3.739086849815122324e-03
4.243029342224606808e+03 1.260702698003089761e+00 3.755502947684314242e-03
4.247272371566832589e+03 1.266887106944723396e+00 3.686181062601146235e-03
4.251519643938400804e+03 1.273141421719484301e+00 3.360132227086346738e-03
4.255771163582340705e+03 1.279297522558045852e+00 2.883348106695494441e-03
4.260026934745924336e+03 1.282073825207840745e+00 2.756207560407603670e-03
4.264286961680671993e+03 1.281213364152544942e+00 2.967544449520167962e-03
4.268551248642354039e+03 1.277663158050734493e+00 2.688899750250613174e-03
4.272819799890998183e+03 1.273161481692873132e+00 2.384804034658563696e-03
4.277092619690890388e+03 1.266957045522489000e+00 2.002620525940880785e-03
4.281369712310583054e+03 1.261564965568377605e+00 1.843123493261297373e-03
4.285651082022895025e+03 1.254822361631758421e+00 1.954363694843308085e-03
4.289936733104918858e+03 1.247824617591261953e+00 2.232313775702704853e-03
4.294226669838025373e+03 1.241943807101011155e+00 2.246866580630947543e-03
4.298520896507864563e+03 1.236237842502919237e+00 2.217052675363559086e-03
4.302819417404373780e+03 1.231253909817637382e+00 2.067328430772660819e-03
4.307122236821779552e+03 1.227264949480852740e+00 1.893150660544062284e-03
4.311429359058603040e+03 1.224449728215405431e+00 1.850432667670110767e-03
4.315740788417662770e+03 1.223714657740361256e+00 1.856216096511034783e-03
4.320056529206081905e+03 1.222186751542729821e+00 1.724290430574432946e-03
4.324376585735290064e+03 1.220591608200206402e+00 1.660949256435918396e-03
4.328700962321026054e+03 1.217026213943848134e+00 1.762956303576010235e-03
4.333029663283348782e+03 1.211492348826545440e+00 2.068769218082355376e-03
4.337362692946633615e+03 1.203486173254855185e+00 1.780441513156089681e-03
4.341700055639581478e+03 1.189188675744197621e+00 1.686431180083387609e-03
4.346041755695222491e+03 1.169905105470147255e+00 1.702176142913320190e-03
4.350387797450919606e+03 1.145663112994336208e+00 1.688446029872133543e-03
4.354738185248371337e+03 1.117012777398628476e+00 1.536576368306535661e-03
4.359092923433621763e+03 1.083430342424187787e+00 1.810818009681702551e-03
4.363452016357056891e+03 1.045972866981316418e+00 2.407400801086125898e-03
4.367815468373414660e+03 1.006207970562411624e+00 2.358919785099822513e-03
4.372183283841789489e+03 9.657640563712261983e-01 2.006195143119011981e-03
4.376555467125633186e+03 9.273645842364998115e-01 1.759439551169598038e-03
4.380932022592760404e+03 8.907194744785600360e-01 1.511590122152415509e-03
4.385312954615354101e+03 8.579742969081565196e-01 1.473406617112417178e-03
4.389698267569970994e+03 8.307495856817057600e-01 1.437416543539136830e-03
4.394087965837542470e+03 8.104550996529655826e-01 1.430484641148848301e-03
4.398482053803381859e+03 7.963708047707968030e-01 1.419066205191741063e-03
4.402880535857186260e+03 7.881760755963284071e-01 1.545089306762664240e-03
4.407283416393044718e+03 7.867627816588609324e-01 2.287590090904004746e-03
4.411690699809440048e+03 7.895865023128095794e-01 2.451945363177967813e-03
4.416102390509250654e+03 7.965669092902952775e-01 2.224861491874914349e-03
4.420518492899761441e+03 8.065323806515867222e-01 1.875726097772771085e-03
4.424939011392662906e+03 8.178209268503197071e-01 1.880511269146196290e-03
4.429363950404056595e+03 8.305568498419380052e-01 1.624549887907664148e-03
4.433793314354462382e+03 8.437303462054910330e-01 1.480629205048408607e-03
4.438227107668818462e+03 8.566991971403296047e-01 1.614172677762807338e-03
4.442665334776488635e+03 8.692286527869373947e-01 1.687399071314737986e-03
4.447108000111265937e+03 8.820833436066002342e-01 1.268679670893964068e-03
4.451555108111379013e+03 8.960974155048834211e-01 1.038041335690579464e-03
4.456006663219492111e+03 9.111967904931803641e-01 9.311437018385852402e-04
4.460462669882713271e+03 9.283147339940017728e-01 8.993825521164273409e-04
4.464923132552597053e+03 9.461223922714118162e-01 1.346888100268569784e-03
4.469388055685150903e+03 9.659396445314549773e-01 1.431151994564707798e-03
4.473857443740837880e+03 9.883983010305185113e-01 1.373697047948966524e-03
4.478331301184580298e+03 1.012734590220987663e+00 1.417860740552574512e-03
