# starting wavelength: 3467.510
# ending wavelength: 7360.260
# wav flux eflux
3.470775009469947236e+03 1.609907756605018780e-01 3.536949250922510890e-02
3.474245784479418489e+03 1.603626051080576931e-01 2.750301367007478015e-02
3.477720030263898934e+03 1.630706539326110538e-01 2.137155079789596068e-02
3.481197750294164052e+03 1.579818314558342207e-01 2.032898970493914395e-02
3.484678948044459503e+03 1.612324500923876247e-01 1.586730213942368420e-02
3.488163626992504760e+03 1.655150250078818164e-01 1.265965471869206355e-02
3.491651790619498570e+03 1.717184056361135969e-01 1.281934930041358882e-02
3.495143442410119405e+03 1.731624148770617433e-01 1.045548568673887631e-02
3.498638585852530468e+03 1.734666703315125014e-01 9.466468223307622845e-03
3.502137224438384237e+03 1.728093225536708466e-01 8.216084751345081871e-03
3.505639361662823831e+03 1.723521579446560537e-01 7.259586869962552681e-03
3.509145001024487556e+03 1.734542200808899814e-01 6.713739459483598557e-03
3.512654146025513455e+03 1.738539410423052822e-01 6.160881761106799977e-03
3.516166800171540217e+03 1.744916076720470777e-01 5.740288565854717757e-03
3.519682966971712631e+03 1.758369684547456679e-01 5.427265990184769809e-03
3.523202649938685681e+03 1.752796534013688068e-01 5.401089586862701207e-03
3.526725852588625457e+03 1.768615517707032292e-01 5.210548016409454267e-03
3.530252578441215064e+03 1.788680087813083741e-01 5.116395916932605509e-03
3.533782831019657806e+03 1.825653492334785022e-01 5.247104472873738261e-03
3.537316613850678550e+03 1.863806366572344220e-01 5.171866238400116278e-03
3.540853930464530094e+03 1.918242457179718530e-01 5.051115299544137877e-03
3.544394784394995895e+03 1.992907512948233761e-01 5.031888119355613920e-03
3.547939179179392340e+03 2.091810017086695173e-01 5.226245748838704609e-03
3.551487118358572843e+03 2.212666158326245802e-01 5.335519601710561090e-03
3.555038605476932389e+03 2.330626077323594836e-01 5.234998626926066004e-03
3.558593644082410719e+03 2.429837456816727470e-01 6.000439731785931104e-03
3.562152237726494150e+03 2.528719880629549666e-01 6.755319332424764879e-03
3.565714389964221937e+03 2.699979207558364513e-01 6.741613705216959948e-03
3.569280104354187188e+03 2.876686088313609169e-01 6.921095104480093352e-03
3.572849384458542772e+03 3.077166349719459570e-01 6.973649146304745396e-03
3.576422233843002232e+03 3.299665536494268969e-01 7.061768800600946167e-03
3.579998656076846601e+03 3.537560286734870996e-01 6.834961555296015408e-03
3.583578654732924406e+03 3.807417635829163927e-01 7.239893159874548345e-03
3.587162233387658489e+03 4.100990224754350044e-01 8.087729831958654844e-03
3.590749395621047370e+03 4.395304537315045668e-01 8.919032823665219711e-03
3.594340145016669794e+03 4.680266007177323329e-01 9.317255100364314063e-03
3.597934485161687462e+03 4.950576304451269616e-01 9.609931264192315969e-03
3.601532419646850485e+03 5.222150906886351418e-01 9.591749224747708399e-03
3.605133952066498296e+03 5.477774203097319772e-01 7.887149279385450087e-03
3.608739086018566013e+03 5.657712262620608890e-01 7.726216348746908248e-03
3.612347825104585809e+03 5.795970271057463430e-01 7.897436439490689367e-03
3.615960172929691907e+03 5.897592741965930196e-01 8.118373095636096173e-03
3.619576133102622407e+03 5.968392059995999421e-01 8.109304468222059553e-03
3.623195709235726554e+03 6.014922533436497520e-01 8.052127166235118622e-03
3.626818904944963379e+03 6.022527553709472459e-01 8.062824435459425149e-03
3.630445723849909427e+03 5.979075225917059866e-01 8.196500256129696238e-03
3.634076169573760581e+03 5.869628983060480865e-01 8.216543798014423403e-03
3.637710245743335690e+03 5.699930126277696907e-01 8.427283169710848496e-03
3.641347955989080219e+03 5.495381549299531709e-01 7.795830774275205703e-03
3.644989303945070333e+03 5.275026300536289625e-01 7.651859066829341111e-03
3.648634293249016537e+03 5.018694390729694366e-01 7.714197904733794721e-03
3.652282927542266862e+03 4.755716380002159571e-01 8.250631267893590581e-03
3.655935210469810499e+03 4.555744757612802398e-01 8.481239382586935882e-03
3.659591145680281443e+03 4.367883856409582322e-01 9.131138065861956962e-03
3.663250736825963031e+03 4.234370745987628415e-01 9.549271854004046101e-03
3.666913987562790226e+03 4.109355451784509339e-01 1.051273981823396333e-02
3.670580901550354156e+03 4.052001056312292682e-01 9.484966651715939084e-03
3.674251482451905758e+03 4.081677555197790186e-01 9.569074648484355086e-03
3.677925733934358959e+03 4.207558926469854854e-01 1.149791478769546585e-02
3.681603659668294313e+03 4.318821260366123016e-01 1.164554343324195225e-02
3.685285263327964003e+03 4.500651760634406529e-01 1.259923135558489379e-02
3.688970548591293209e+03 4.711174223556801044e-01 1.256815870228099492e-02
3.692659519139885560e+03 4.954667220262188865e-01 1.249663945732746272e-02
3.696352178659026777e+03 5.231625207940332478e-01 1.177435487766100193e-02
3.700048530837686940e+03 5.521502282116896865e-01 1.126031928011382230e-02
3.703748579368525952e+03 5.812154253793738734e-01 1.113886940817506235e-02
3.707452327947895355e+03 6.126055200686496560e-01 1.153703177739300728e-02
3.711159780275844696e+03 6.372910521460092292e-01 1.207896850633815092e-02
3.714870940056121526e+03 6.607583943575684460e-01 1.103502319406939741e-02
3.718585810996179134e+03 6.838935772194704166e-01 9.869851608316141181e-03
3.722304396807176545e+03 7.091932130800686629e-01 1.049645205522007317e-02
3.726026701203984885e+03 7.349165910165984528e-01 1.278041445783146234e-02
3.729752727905190113e+03 7.558589447786100424e-01 1.400090516796942582e-02
3.733482480633096657e+03 7.666173019509862074e-01 1.451587884937868313e-02
3.737215963113731050e+03 7.753600622350207416e-01 1.458868847878832392e-02
3.740953179076846027e+03 7.783058574965137089e-01 1.422976259164205996e-02
3.744694132255923705e+03 7.811325825453836469e-01 9.991979716731765743e-03
3.748438826388181042e+03 7.613770365119980621e-01 1.116729234457608348e-02
3.752187265214570289e+03 7.306224641917872242e-01 1.348584449891013400e-02
3.755939452479786269e+03 6.915260807069928406e-01 1.509233179129765810e-02
3.759695391932267285e+03 6.478204952510672188e-01 1.411868919023455925e-02
3.763455087324201031e+03 6.015557630833789915e-01 1.098972296102362044e-02
3.767218542411526414e+03 5.557305633812775758e-01 9.917513273167831434e-03
3.770985760953939007e+03 5.110508472952226544e-01 1.003746511190261627e-02
3.774756746714894234e+03 4.699277075396319781e-01 1.046076224237679590e-02
3.778531503461610555e+03 4.339805205578303182e-01 9.996684722405203838e-03
3.782310034965073100e+03 4.126918206506600129e-01 1.037086704426237391e-02
3.786092345000039586e+03 3.991154004373347330e-01 1.040403363583982874e-02
3.789878437345040766e+03 3.980866861478695728e-01 1.014525933700660167e-02
3.793668315782387253e+03 4.034608849686022181e-01 1.015025058295455224e-02
3.797461984098170888e+03 4.164133384331037968e-01 1.015620785512731140e-02
3.801259446082270188e+03 4.363385588125203718e-01 1.018474789524993589e-02
3.805060705528353537e+03 4.652183335699587308e-01 1.216543917994449171e-02
3.808865766233883278e+03 4.954655540772400224e-01 1.360251548395665158e-02
3.812674632000118436e+03 5.232299783913387792e-01 1.398364167671022409e-02
3.816487306632119726e+03 5.561906832694545333e-01 1.384247410542638508e-02
3.820303793938753188e+03 5.859018286174234591e-01 1.246690339008756088e-02
3.824124097732693372e+03 6.037573171363186386e-01 1.002329635158966115e-02
3.827948221830427428e+03 6.094214430025254314e-01 1.017098196299300386e-02
3.831776170052258749e+03 5.989185615604533108e-01 1.191500166556277648e-02
3.835607946222312421e+03 5.798782285272858772e-01 1.156342222068538171e-02
3.839443554168536139e+03 5.561063136830983744e-01 9.802740291453169649e-03
3.843282997722705659e+03 5.386384701011756038e-01 9.144499205772928588e-03
3.847126280720429804e+03 5.338624833028646766e-01 8.990051209696189871e-03
3.850973407001151372e+03 5.352005306080460656e-01 8.893520570708921338e-03
3.854824380408153957e+03 5.430601964185310937e-01 6.456894171215108412e-03
3.858679204788563311e+03 5.688341396222161839e-01 1.048129364740493612e-02
3.862537883993353262e+03 6.033090456848104743e-01 1.110772848882816098e-02
3.866400421877347981e+03 6.399930493718244406e-01 1.021186126198761826e-02
3.870266822299226533e+03 6.798321807800002947e-01 7.151326389635758937e-03
3.874137089121526969e+03 7.157076019107925235e-01 6.581073348794862568e-03
3.878011226210649966e+03 7.471454295874183638e-01 6.741658835436464998e-03
3.881889237436861549e+03 7.754951948746451329e-01 6.770462466293830466e-03
3.885771126674299921e+03 8.021576035693736006e-01 6.743257316450084783e-03
3.889656897800975457e+03 8.214508562480078435e-01 6.296720397168715892e-03
3.893546554698777527e+03 8.383106835938912704e-01 6.362941589376745755e-03
3.897440101253477678e+03 8.544876907878462546e-01 5.591168617410526009e-03
3.901337541354732366e+03 8.728046207825665981e-01 5.530767305097413281e-03
3.905238878896088409e+03 8.940186121346709314e-01 5.994328220376427332e-03
3.909144117774985716e+03 9.130532799701727154e-01 6.080855312587432962e-03
3.913053261892762293e+03 9.289751922217663882e-01 5.254507583338110729e-03
3.916966315154656058e+03 9.388688366186095369e-01 5.421217130584076414e-03
3.920883281469812118e+03 9.441746286554686396e-01 5.836844693398014240e-03
3.924804164751283224e+03 9.500439159078576390e-01 5.713153881239334438e-03
3.928728968916035683e+03 9.535627429479290873e-01 5.534348406406765578e-03
3.932657697884953450e+03 9.590273431690485850e-01 4.860399743773080941e-03
3.936590355582839493e+03 9.599060023397727459e-01 5.177039663225754297e-03
3.940526945938423523e+03 9.590125610317835614e-01 5.167259610524914913e-03
3.944467472884363360e+03 9.592913893726644492e-01 5.349347474104201167e-03
3.948411940357249023e+03 9.588259723061891560e-01 5.652847180699243669e-03
3.952360352297607733e+03 9.582709293088126357e-01 6.138903016560274227e-03
3.956312712649906643e+03 9.561286560442199267e-01 5.675214014018746707e-03
3.960269025362557841e+03 9.526386060216283092e-01 5.718945596401543187e-03
3.964229294387921527e+03 9.467253774381717557e-01 7.072334444243878228e-03
3.968193523682310570e+03 9.413526750745000449e-01 6.794065840953194407e-03
3.972161717205994591e+03 9.403253359524224031e-01 6.085788440238612020e-03
3.976133878923201792e+03 9.439030679051931827e-01 6.642240264960324291e-03
3.980110012802126221e+03 9.502803754581893303e-01 6.716765104358530039e-03
3.984090122814929600e+03 9.583634760017643028e-01 6.619092210808341301e-03
3.988074212937745870e+03 9.687854469933308010e-01 6.584885203546502960e-03
3.992062287150684824e+03 9.819108504220198652e-01 6.670020922104328252e-03
3.996054349437837118e+03 9.940194669788386950e-01 6.679983698435332587e-03
4.000050403787276082e+03 1.009559594587750464e+00 6.411337056909585143e-03
4.004050454191064546e+03 1.025695740205483819e+00 6.222287915369570030e-03
4.008054504645257111e+03 1.039542191904331947e+00 6.224557961384738665e-03
4.012062559149903791e+03 1.049283319154723726e+00 6.242278900940194386e-03
4.016074621709055009e+03 1.055227132393379952e+00 6.603371851217449198e-03
4.020090696330765240e+03 1.059631487603166722e+00 7.193114855127915978e-03
4.024110787027097558e+03 1.056482310029373872e+00 6.670771729742054797e-03
4.028134897814125907e+03 1.048465553117825744e+00 5.480567861405652094e-03
4.032163032711941469e+03 1.032183660376168266e+00 6.623820514357410712e-03
4.036195195744654484e+03 1.009296345349036228e+00 7.504494715872259483e-03
4.040231390940400615e+03 9.827856393450312700e-01 6.695410267018931869e-03
4.044271622331342314e+03 9.584454422155047615e-01 5.462777699104665909e-03
4.048315893953675186e+03 9.348689159115788350e-01 5.126565403731297987e-03
4.052364209847629809e+03 9.169173768043287209e-01 5.248166810168761361e-03
4.056416574057479011e+03 9.017042390122650408e-01 5.723201164835471470e-03
4.060472990631537868e+03 8.877388402201368267e-01 5.696149807045061166e-03
4.064533463622170530e+03 8.801841847941682673e-01 5.526058350542551942e-03
4.068597997085794304e+03 8.761329974231037987e-01 4.141898519900907676e-03
4.072666595082881486e+03 8.696223672399496785e-01 4.145890868108118542e-03
4.076739261677965715e+03 8.628209395739944165e-01 4.912395309085079535e-03
4.080816000939644709e+03 8.572326532274814337e-01 5.545849068920066967e-03
4.084896816940585722e+03 8.553804257943051770e-01 4.855608723399639642e-03
4.088981713757527814e+03 8.577836328857848525e-01 5.205577570046714120e-03
4.093070695471286854e+03 8.624610339194246356e-01 5.974934214662350716e-03
4.097163766166759160e+03 8.686174234936500094e-01 5.582761528204876859e-03
4.101260929932927866e+03 8.739223037286013573e-01 5.425986739517653541e-03
4.105362190862862008e+03 8.787685862188419073e-01 5.056378865761801053e-03
4.109467553053726078e+03 8.793688608308634080e-01 5.241093434209883814e-03
4.113577020606780934e+03 8.781677063199535560e-01 5.444332182137649224e-03
4.117690597627389252e+03 8.766203546962458848e-01 5.424595097880031275e-03
4.121808288225018259e+03 8.750904294291678154e-01 5.329560725498873330e-03
4.125930096513244280e+03 8.657676191180985192e-01 5.261212749839335075e-03
4.130056026609759101e+03 8.593540109245177971e-01 5.190235792218674850e-03
4.134186082636369974e+03 8.532340368510429318e-01 5.315205307713555087e-03
4.138320268719007800e+03 8.446710838278700395e-01 5.056403813706080060e-03
4.142458588987728035e+03 8.398084726168056902e-01 4.811786859929543560e-03
4.146601047576717065e+03 8.372682376084690237e-01 4.401121689523999556e-03
4.150747648624294925e+03 8.340808842467738460e-01 5.096355800856744965e-03
4.154898396272920763e+03 8.316881840927893288e-01 5.658286157739847444e-03
4.159053294669195566e+03 8.335656841208159973e-01 4.353367516096180029e-03
4.163212347963865795e+03 8.429650018853079851e-01 4.924573381866042925e-03
4.167375560311830668e+03 8.562748288982936495e-01 5.423938253485977544e-03
4.171542935872143971e+03 8.713559361903304712e-01 5.394051206066897454e-03
4.175714478808017702e+03 8.874179931694954337e-01 5.711242316369554740e-03
4.179890193286827525e+03 9.052021782188396370e-01 6.509353747929627794e-03
4.184070083480115500e+03 9.171621915196381813e-01 5.488559884116402977e-03
4.188254153563597356e+03 9.217227172087050224e-01 5.562320552141095803e-03
4.192442407717161586e+03 9.219043789965452040e-01 5.591679247552223085e-03
4.196634850124880359e+03 9.182038763696195316e-01 5.554560198369704396e-03
4.200831484975006788e+03 9.086347523421804961e-01 5.924658441570558078e-03
4.205032316459983122e+03 8.924743787496585146e-01 4.584755211164848014e-03
4.209237348776444378e+03 8.777585616475410690e-01 4.649088840528754242e-03
4.213446586125221984e+03 8.658770334891942033e-01 4.330353016813957671e-03
4.217660032711349231e+03 8.557501606181072695e-01 3.951654466963326270e-03
4.221877692744061278e+03 8.499150420593855060e-01 4.014104634686019996e-03
4.226099570436806971e+03 8.501520873018336699e-01 3.984842187265150160e-03
4.230325670007245208e+03 8.525997379518899244e-01 4.012309543378625443e-03
4.234555995677254032e+03 8.581157663211453901e-01 3.847898737888465377e-03
4.238790551672932452e+03 8.693533081081641356e-01 3.913426947034236852e-03
4.243029342224606808e+03 8.848806777975812832e-01 3.977300296661910768e-03
4.247272371566832589e+03 8.985765009642397994e-01 4.374618550753467394e-03
4.251519643938400804e+03 9.098701855942344929e-01 5.767005907770892705e-03
4.255771163582340705e+03 9.192360780021018307e-01 7.634961985518193099e-03
4.260026934745924336e+03 9.216089202289636795e-01 5.494256218003731700e-03
4.264286961680671993e+03 9.124071316696307221e-01 5.752887052408657206e-03
4.268551248642354039e+03 8.951955520140020273e-01 6.336913587871710087e-03
4.272819799890998183e+03 8.710163898318791231e-01 8.322818626667055977e-03
4.277092619690890388e+03 8.436778594860231406e-01 9.441709976258098186e-03
4.281369712310583054e+03 8.155136325893783678e-01 9.043200464191263055e-03
4.285651082022895025e+03 7.907832261640498350e-01 7.682208410275139648e-03
4.289936733104918858e+03 7.737276033506902406e-01 5.419574821225705413e-03
4.294226669838025373e+03 7.684328257353685299e-01 6.679384251567941841e-03
4.298520896507864563e+03 7.686677097475375087e-01 7.015347771228635544e-03
4.302819417404373780e+03 7.759223197755157342e-01 7.054855380272980273e-03
4.307122236821779552e+03 7.906274395934806964e-01 6.030332275933763912e-03
4.311429359058603040e+03 8.047596551423937816e-01 4.964297695484063896e-03
4.315740788417662770e+03 8.190036315754773977e-01 4.936705554846913639e-03
4.320056529206081905e+03 8.336342193240565690e-01 4.920374996343224866e-03
4.324376585735290064e+03 8.471872594941267653e-01 4.735196371221437814e-03
4.328700962321026054e+03 8.583407101563905739e-01 4.108683727006459500e-03
4.333029663283348782e+03 8.694587446125389141e-01 4.443701140400140720e-03
4.337362692946633615e+03 8.792934289383530500e-01 4.271757954118472755e-03
4.341700055639581478e+03 8.827153839419630277e-01 4.222824471770806470e-03
4.346041755695222491e+03 8.855716413731118397e-01 4.148646278769412693e-03
4.350387797450919606e+03 8.849891700591423493e-01 3.683158753240841406e-03
4.354738185248371337e+03 8.787832038816704161e-01 4.717969071458976565e-03
4.359092923433621763e+03 8.717448742035663889e-01 5.048663815827582682e-03
4.363452016357056891e+03 8.628216869500816566e-01 5.024432820590529238e-03
4.367815468373414660e+03 8.535582482345841493e-01 3.834072775367996372e-03
4.372183283841789489e+03 8.484386490726253394e-01 4.073557973268475581e-03
4.376555467125633186e+03 8.462871591939078453e-01 4.714436593375084111e-03
4.380932022592760404e+03 8.431824286322923134e-01 4.751612863375377811e-03
4.385312954615354101e+03 8.427324266188839230e-01 4.442208859550316781e-03
4.389698267569970994e+03 8.442670747648058915e-01 3.767878267529543336e-03
4.394087965837542470e+03 8.441602056025073741e-01 4.639166380298638190e-03
4.398482053803381859e+03 8.468403557974101270e-01 4.557986542174297627e-03
4.402880535857186260e+03 8.528369286191501697e-01 4.991345191832655126e-03
4.407283416393044718e+03 8.586883446653906793e-01 5.481991227200850442e-03
4.411690699809440048e+03 8.633647866955350691e-01 5.656188446317491139e-03
4.416102390509250654e+03 8.672883242376825397e-01 5.559426473492641921e-03
4.420518492899761441e+03 8.705820194980743443e-01 5.524942083248210976e-03
4.424939011392662906e+03 8.722464906954943142e-01 5.484723979778603244e-03
4.429363950404056595e+03 8.723593005572441994e-01 5.169877766301922764e-03
4.433793314354462382e+03 8.701374472311480535e-01 5.584321778295952589e-03
4.438227107668818462e+03 8.654133613397845259e-01 6.017094412599768329e-03
4.442665334776488635e+03 8.622690035943496589e-01 5.780454162491017144e-03
4.447108000111265937e+03 8.602437700941240051e-01 4.609292348199597704e-03
4.451555108111379013e+03 8.620456835289401765e-01 4.642737902869717437e-03
4.456006663219492111e+03 8.688290649528199738e-01 5.218419770972581966e-03
4.460462669882713271e+03 8.769913490881130480e-01 4.787816137538427122e-03
4.464923132552597053e+03 8.874737256235518679e-01 4.589912514759979245e-03
4.469388055685150903e+03 9.012183164435090266e-01 4.334591477383527292e-03
4.473857443740837880e+03 9.157644831008291408e-01 4.428551797796549498e-03
4.478331301184580298e+03 9.310378784663286833e-01 3.926992019564716843e-03
4.482809632485766087e+03 9.490074562550712134e-01 3.725665306679941825e-03
4.487292442118253348e+03 9.719643463849673148e-01 4.376111463995810760e-03
4.491779734560373072e+03 9.939866544142795801e-01 4.351382561210164271e-03
4.496271514294934605e+03 1.016195622181442104e+00 4.316882769783769898e-03
4.500767785809231100e+03 1.038954640767155713e+00 4.276261816435786983e-03
4.505268553595042249e+03 1.064734755317185311e+00 4.246792901518520527e-03
4.509773822148638828e+03 1.089237162117522750e+00 3.548845654132297064e-03
4.514283595970789065e+03 1.109627346319316032e+00 3.651956429608990348e-03
4.518797879566761367e+03 1.128797510589917508e+00 3.646659107431953969e-03
