# starting wavelength: 3422.740
# ending wavelength: 7250.730
# wav flux eflux
3.425969201965453522e+03 1.285121661113569624e+00 1.779842891870012794e-02
3.429395171167419903e+03 1.272956868573980271e+00 1.423079053215555410e-02
3.432824566338588284e+03 1.272289520956227271e+00 1.211629212693528246e-02
3.436257390904928343e+03 1.276414088699069582e+00 1.209381180921861344e-02
3.439693648295834464e+03 1.280167620355615377e+00 1.075262043349120393e-02
3.443133341944131189e+03 1.283496610099239765e+00 8.770370275124806173e-03
3.446576475286076402e+03 1.288101549809528512e+00 7.580933981508211281e-03
3.450023051761363604e+03 1.293499473053944415e+00 6.568668236439537816e-03
3.453473074813126004e+03 1.299774723448069880e+00 5.802214639929151319e-03
3.456926547887940615e+03 1.306817283278163933e+00 5.226007192859158726e-03
3.460383474435829612e+03 1.315045334976620461e+00 4.861580454642561340e-03
3.463843857910266706e+03 1.321960629594929992e+00 4.555488228622377872e-03
3.467307701768178049e+03 1.326924801500942941e+00 4.700604925490447020e-03
3.470775009469947236e+03 1.333000343945226707e+00 4.549864090787197023e-03
3.474245784479418489e+03 1.339676969929727068e+00 4.378006855126622549e-03
3.477720030263898934e+03 1.345706919670738966e+00 4.317072525268791927e-03
3.481197750294164052e+03 1.351746090605745021e+00 4.392368786211176684e-03
3.484678948044459503e+03 1.356299561797815301e+00 4.383611559927414261e-03
3.488163626992504760e+03 1.360573302022451747e+00 4.345644522046106933e-03
3.491651790619498570e+03 1.364574714925974819e+00 4.264398164930142433e-03
3.495143442410119405e+03 1.369239976408899384e+00 4.102754304952245003e-03
3.498638585852530468e+03 1.373772559919793856e+00 4.052194765784981716e-03
3.502137224438384237e+03 1.379626164263357602e+00 4.176783042991347346e-03
3.505639361662823831e+03 1.385332525076097498e+00 4.239970607787386415e-03
3.509145001024487556e+03 1.392004827794611543e+00 4.291715306389623508e-03
3.512654146025513455e+03 1.398142582100692977e+00 3.746752689899364962e-03
3.516166800171540217e+03 1.401526873026004427e+00 3.750905433324662301e-03
3.519682966971712631e+03 1.403951558705526237e+00 3.799125455377253685e-03
3.523202649938685681e+03 1.405623696775627707e+00 3.887284778761710899e-03
3.526725852588625457e+03 1.407202928728890079e+00 3.915744101697322954e-03
3.530252578441215064e+03 1.406432576458252370e+00 3.852557139678550787e-03
3.533782831019657806e+03 1.405562929039552822e+00 3.913729698567108145e-03
3.537316613850678550e+03 1.404110592222067799e+00 4.002983477739207457e-03
3.540853930464530094e+03 1.401728505649692869e+00 4.114256396918342107e-03
3.544394784394995895e+03 1.397423462136201611e+00 3.922915521257684494e-03
3.547939179179392340e+03 1.391828151764381793e+00 3.802087972438703781e-03
3.551487118358572843e+03 1.384627224473965912e+00 3.777416949648276703e-03
3.555038605476932389e+03 1.374278411414125989e+00 3.798062349271806408e-03
3.558593644082410719e+03 1.363037920773923828e+00 3.402530522844382770e-03
3.562152237726494150e+03 1.351797833269277715e+00 3.332396885409822773e-03
3.565714389964221937e+03 1.340922649386999232e+00 3.359226753848081060e-03
3.569280104354187188e+03 1.329702849589009084e+00 3.389654068163533603e-03
3.572849384458542772e+03 1.317756940493158169e+00 3.409683457650782880e-03
3.576422233843002232e+03 1.306892499288049514e+00 3.486667932567433584e-03
3.579998656076846601e+03 1.294121615877340759e+00 3.626723066966816740e-03
3.583578654732924406e+03 1.281847924744559331e+00 3.614221348436999666e-03
3.587162233387658489e+03 1.272688718212610315e+00 3.655326894274999946e-03
3.590749395621047370e+03 1.264499744206488918e+00 3.800495453012628800e-03
3.594340145016669794e+03 1.256895590023567211e+00 3.960136979509492998e-03
3.597934485161687462e+03 1.251628781492102549e+00 3.599611086516928560e-03
3.601532419646850485e+03 1.248210894318191766e+00 3.404532773971272967e-03
3.605133952066498296e+03 1.247251433815692812e+00 3.227498953796406958e-03
3.608739086018566013e+03 1.249833695484558360e+00 3.717171361794714430e-03
3.612347825104585809e+03 1.255465354556876800e+00 4.342361984830551622e-03
3.615960172929691907e+03 1.260213210971979469e+00 4.211438150152701544e-03
3.619576133102622407e+03 1.265869827303144568e+00 3.884983868300764462e-03
3.623195709235726554e+03 1.271443200366748627e+00 4.062688841410287861e-03
3.626818904944963379e+03 1.275850284793736078e+00 4.324918166260708838e-03
3.630445723849909427e+03 1.279577511013417102e+00 4.390580497884318673e-03
3.634076169573760581e+03 1.281074792358114944e+00 4.005881470699854292e-03
3.637710245743335690e+03 1.279454332281893869e+00 4.083372953008015428e-03
3.641347955989080219e+03 1.276380462827426232e+00 3.649895720176693243e-03
3.644989303945070333e+03 1.268970363409748670e+00 3.516359476570518876e-03
3.648634293249016537e+03 1.258642256787813274e+00 3.334153927800317333e-03
3.652282927542266862e+03 1.241658405884584981e+00 3.549795130989932563e-03
3.655935210469810499e+03 1.221288163994610043e+00 2.945434871573284277e-03
3.659591145680281443e+03 1.199410767530968869e+00 2.826678925230233577e-03
3.663250736825963031e+03 1.174625509395136325e+00 2.827305690014712478e-03
3.666913987562790226e+03 1.148150248196139644e+00 2.733595904925370870e-03
3.670580901550354156e+03 1.117953640568302820e+00 2.985121554850371246e-03
3.674251482451905758e+03 1.086288492951414275e+00 3.067395311097744891e-03
3.677925733934358959e+03 1.054754810858302028e+00 3.205455836042905328e-03
3.681603659668294313e+03 1.021205294352006687e+00 3.414206001695045505e-03
3.685285263327964003e+03 9.876402274870837994e-01 3.974687744312564025e-03
3.688970548591293209e+03 9.543580177473722781e-01 3.957617584260847247e-03
3.692659519139885560e+03 9.238705671526089569e-01 3.393766924538228411e-03
3.696352178659026777e+03 8.970415217429634769e-01 3.510003969643291262e-03
3.700048530837686940e+03 8.726422278825403112e-01 3.660961460425010087e-03
3.703748579368525952e+03 8.506665807615346742e-01 3.565562783113519763e-03
3.707452327947895355e+03 8.306385233112564270e-01 3.540255779779337853e-03
3.711159780275844696e+03 8.125241239396598925e-01 3.491245915325494678e-03
3.714870940056121526e+03 7.962167477371642210e-01 3.664913478720411948e-03
3.718585810996179134e+03 7.847688669247868676e-01 3.908844113524291390e-03
3.722304396807176545e+03 7.728011446598964662e-01 3.511997936806040069e-03
3.726026701203984885e+03 7.620217016372694552e-01 3.291378339171235554e-03
3.729752727905190113e+03 7.503965250604039960e-01 3.117082945736025703e-03
3.733482480633096657e+03 7.369457050088459305e-01 3.112477306056275587e-03
3.737215963113731050e+03 7.235997495590162920e-01 3.446084754922717087e-03
3.740953179076846027e+03 7.067281540058288902e-01 3.384754517262029885e-03
3.744694132255923705e+03 6.890281851582934491e-01 3.392371961599367769e-03
3.748438826388181042e+03 6.707804048328177560e-01 3.089362288133585144e-03
3.752187265214570289e+03 6.496484942115524630e-01 3.614906478019147464e-03
3.755939452479786269e+03 6.307034843705571214e-01 3.783941012210004142e-03
3.759695391932267285e+03 6.097232885344509024e-01 4.444072975386919103e-03
3.763455087324201031e+03 5.895766895218411685e-01 5.026970997396799229e-03
3.767218542411526414e+03 5.729326416160324120e-01 4.044444086093944811e-03
3.770985760953939007e+03 5.632770294625824015e-01 3.390012375176160511e-03
3.774756746714894234e+03 5.609760445583106270e-01 3.601046636459132033e-03
3.778531503461610555e+03 5.650604052709474745e-01 3.707522429285426638e-03
3.782310034965073100e+03 5.760586029690630827e-01 3.994919295876368098e-03
3.786092345000039586e+03 5.913885975242240134e-01 4.037268568419803520e-03
3.789878437345040766e+03 6.136064527699143234e-01 4.512719669684425207e-03
3.793668315782387253e+03 6.396458846256044550e-01 3.851562521813342750e-03
3.797461984098170888e+03 6.696760288434838726e-01 2.279469796420190760e-03
3.801259446082270188e+03 6.980477006309504517e-01 2.662362442231913564e-03
3.805060705528353537e+03 7.275447127775349632e-01 3.352613041776965515e-03
3.808865766233883278e+03 7.595951186880275374e-01 3.199905144592994979e-03
3.812674632000118436e+03 7.922223902719718325e-01 3.129702944022699253e-03
3.816487306632119726e+03 8.261332643056675806e-01 3.160779107097586287e-03
3.820303793938753188e+03 8.598121638254051513e-01 3.175881938360696193e-03
3.824124097732693372e+03 8.933657072098823981e-01 3.487562928256809133e-03
3.827948221830427428e+03 9.290972154660509519e-01 3.396707631762592872e-03
3.831776170052258749e+03 9.648184201172826935e-01 3.380796687506131600e-03
3.835607946222312421e+03 1.000707610856004459e+00 3.368479436625350636e-03
3.839443554168536139e+03 1.035302128436888847e+00 3.376560008178523201e-03
3.843282997722705659e+03 1.071109643613345375e+00 3.305522368108588724e-03
3.847126280720429804e+03 1.108446312844346249e+00 3.286721188943956228e-03
3.850973407001151372e+03 1.146674938977670255e+00 3.339168475479083187e-03
3.854824380408153957e+03 1.183970401205070688e+00 3.302687301993285311e-03
3.858679204788563311e+03 1.223409449473936927e+00 3.390795373299292353e-03
3.862537883993353262e+03 1.262013488755896917e+00 3.372729578192502648e-03
3.866400421877347981e+03 1.302501219940008781e+00 2.857358994229388435e-03
3.870266822299226533e+03 1.340925493619450792e+00 3.108961364117857756e-03
3.874137089121526969e+03 1.378285979647479564e+00 3.001917847715118368e-03
3.878011226210649966e+03 1.415362847594605844e+00 2.225517532760705117e-03
3.881889237436861549e+03 1.455903973775429128e+00 3.025507095836432736e-03
3.885771126674299921e+03 1.494552339338634184e+00 3.073775274711594997e-03
3.889656897800975457e+03 1.530988797649796229e+00 2.956614763470577761e-03
3.893546554698777527e+03 1.565661671620744766e+00 2.890434041067118341e-03
3.897440101253477678e+03 1.595948276599574278e+00 3.068749542418386638e-03
3.901337541354732366e+03 1.623803922478127104e+00 2.945752306541715888e-03
3.905238878896088409e+03 1.646074277596850655e+00 3.043572242494322830e-03
3.909144117774985716e+03 1.664358044515428681e+00 3.444003912256096353e-03
3.913053261892762293e+03 1.677902969226038099e+00 3.717686713513104931e-03
3.916966315154656058e+03 1.690317519938325797e+00 3.488007878839300378e-03
3.920883281469812118e+03 1.699755294055048660e+00 3.236494907357808596e-03
3.924804164751283224e+03 1.709038010071394220e+00 3.337163271804294978e-03
3.928728968916035683e+03 1.715878869872335510e+00 3.254525061209824401e-03
3.932657697884953450e+03 1.723090677109305746e+00 3.121871748664294642e-03
3.936590355582839493e+03 1.729037093815517068e+00 3.026761666252841734e-03
3.940526945938423523e+03 1.733591499437734829e+00 2.765251514728802370e-03
3.944467472884363360e+03 1.735794083602395954e+00 2.904917622300950703e-03
3.948411940357249023e+03 1.736295864706226322e+00 3.296920735389804666e-03
3.952360352297607733e+03 1.736823160100301022e+00 3.307649198813127599e-03
3.956312712649906643e+03 1.739139472899476679e+00 3.288083003240233407e-03
3.960269025362557841e+03 1.740261549517957640e+00 3.060451904893089770e-03
3.964229294387921527e+03 1.741067680939351714e+00 3.261553274669288984e-03
3.968193523682310570e+03 1.742000570978434748e+00 3.652919203867300776e-03
3.972161717205994591e+03 1.742324826950800709e+00 3.379219932408972227e-03
3.976133878923201792e+03 1.739450131892716245e+00 2.521162635207141196e-03
3.980110012802126221e+03 1.732070403981633255e+00 2.801283600969385265e-03
3.984090122814929600e+03 1.723056193195413144e+00 2.800381282782053640e-03
3.988074212937745870e+03 1.709862339680190635e+00 2.858209460275366876e-03
3.992062287150684824e+03 1.693126655045873896e+00 2.803821326580401788e-03
3.996054349437837118e+03 1.670621616690956435e+00 2.942672624578173378e-03
4.000050403787276082e+03 1.647421446163518377e+00 2.968389960260131924e-03
4.004050454191064546e+03 1.622499478412762208e+00 2.803698063873857893e-03
4.008054504645257111e+03 1.596703745459271850e+00 2.756681854309450848e-03
4.012062559149903791e+03 1.571108242393751908e+00 2.776540878802085006e-03
4.016074621709055009e+03 1.545675540012400040e+00 3.043660441180308981e-03
4.020090696330765240e+03 1.521610270328908499e+00 3.189981880877030326e-03
4.024110787027097558e+03 1.498649715643323610e+00 3.072105138865884825e-03
4.028134897814125907e+03 1.479634746504333798e+00 2.877045380941320972e-03
4.032163032711941469e+03 1.463830587640134295e+00 3.159055330837892261e-03
4.036195195744654484e+03 1.451254333820927389e+00 3.936506650731073399e-03
4.040231390940400615e+03 1.440525215559803840e+00 4.058546905057332579e-03
4.044271622331342314e+03 1.428964824242607845e+00 3.521407815008988085e-03
4.048315893953675186e+03 1.418188677024904809e+00 3.016974929650763013e-03
4.052364209847629809e+03 1.404883618855010230e+00 3.016101687249238186e-03
4.056416574057479011e+03 1.390637564149316940e+00 2.999597144663835278e-03
4.060472990631537868e+03 1.377121279484240679e+00 3.049941125873861271e-03
4.064533463622170530e+03 1.363521133463338586e+00 3.318831906858828867e-03
4.068597997085794304e+03 1.350036843574190293e+00 3.545832328015583075e-03
4.072666595082881486e+03 1.337639999013994663e+00 2.727235082972085528e-03
4.076739261677965715e+03 1.330815396543666873e+00 2.068374762116727359e-03
4.080816000939644709e+03 1.329954464361253530e+00 2.355309540768694022e-03
4.084896816940585722e+03 1.333272168073061481e+00 2.540053429227487336e-03
4.088981713757527814e+03 1.340367632478810078e+00 2.548742975015708470e-03
4.093070695471286854e+03 1.349776878049142814e+00 2.418315668918101340e-03
4.097163766166759160e+03 1.361318485549326107e+00 2.339956755160857264e-03
4.101260929932927866e+03 1.373406330201144332e+00 2.530368172294517916e-03
4.105362190862862008e+03 1.386104205479317342e+00 2.460919874073715097e-03
4.109467553053726078e+03 1.397130744009168257e+00 2.325319188903564403e-03
4.113577020606780934e+03 1.406997783992975259e+00 1.952184380160752741e-03
4.117690597627389252e+03 1.412677389845200082e+00 1.856740480044744793e-03
4.121808288225018259e+03 1.413335973629992415e+00 1.812475802136843299e-03
4.125930096513244280e+03 1.412898991243863644e+00 1.886208719029760540e-03
4.130056026609759101e+03 1.409851557588202908e+00 1.940006922809484622e-03
4.134186082636369974e+03 1.405356297623970852e+00 2.219641100860091174e-03
4.138320268719007800e+03 1.400470951677169840e+00 2.308904171387732209e-03
4.142458588987728035e+03 1.396251616596179357e+00 2.236069678558795341e-03
4.146601047576717065e+03 1.391581759490933656e+00 2.073390856298034692e-03
4.150747648624294925e+03 1.386772442263120242e+00 1.842856784927599401e-03
4.154898396272920763e+03 1.383514893789464573e+00 1.930735368077881806e-03
4.159053294669195566e+03 1.381915319603998382e+00 1.892774338476387172e-03
4.163212347963865795e+03 1.379731443141026137e+00 1.598449359584504367e-03
4.167375560311830668e+03 1.376590479995356331e+00 1.332591832476855403e-03
4.171542935872143971e+03 1.372452953709544010e+00 1.383675999890074610e-03
4.175714478808017702e+03 1.367794960121052616e+00 1.510766554696636906e-03
4.179890193286827525e+03 1.363160666550576217e+00 1.551334129704317081e-03
4.184070083480115500e+03 1.358080489150575554e+00 1.762711244930297971e-03
4.188254153563597356e+03 1.354877336382867448e+00 1.514590173393588019e-03
4.192442407717161586e+03 1.353644621530047720e+00 1.683462421722907616e-03
4.196634850124880359e+03 1.352662374186561767e+00 1.737207098086719463e-03
4.200831484975006788e+03 1.352300394806775996e+00 1.729271964267666039e-03
4.205032316459983122e+03 1.353058028751137343e+00 1.640594729542335390e-03
4.209237348776444378e+03 1.354814638397011661e+00 1.600782801731040310e-03
4.213446586125221984e+03 1.356473455202420464e+00 1.627281803555091560e-03
4.217660032711349231e+03 1.358023945013951295e+00 1.628376141550738534e-03
4.221877692744061278e+03 1.359681179270024742e+00 1.505380308327192726e-03
4.226099570436806971e+03 1.360481218936658854e+00 1.507186287218808185e-03
4.230325670007245208e+03 1.359949546157923406e+00 1.453845057127434344e-03
4.234555995677254032e+03 1.358827305210834169e+00 1.470558246687999520e-03
4.238790551672932452e+03 1.357103556571177538e+00 1.387492261001533255e-03
4.243029342224606808e+03 1.354191514883660963e+00 1.364863403516404115e-03
4.247272371566832589e+03 1.349607163052563008e+00 1.615998892129416132e-03
4.251519643938400804e+03 1.344548994740186521e+00 1.950393318687592943e-03
4.255771163582340705e+03 1.338977658719347819e+00 2.114207490786672045e-03
4.260026934745924336e+03 1.333958813689480660e+00 1.981690229807881853e-03
4.264286961680671993e+03 1.327736373365602018e+00 1.514692181103864752e-03
4.268551248642354039e+03 1.323090542500541478e+00 2.445815631063993217e-03
4.272819799890998183e+03 1.317081275950237718e+00 2.731353763105697722e-03
4.277092619690890388e+03 1.308434675907956146e+00 2.525538375134899188e-03
4.281369712310583054e+03 1.296447375942736402e+00 2.267822051939475357e-03
4.285651082022895025e+03 1.280249668071635316e+00 2.241354065968596994e-03
4.289936733104918858e+03 1.261245619829080677e+00 2.290131751416704838e-03
4.294226669838025373e+03 1.238687147521615906e+00 2.915600925485772616e-03
4.298520896507864563e+03 1.213841806299040815e+00 3.144036740518586347e-03
4.302819417404373780e+03 1.188167153307205570e+00 2.702422662126781252e-03
4.307122236821779552e+03 1.163095959841605964e+00 2.362483618481972959e-03
4.311429359058603040e+03 1.138354173521937795e+00 2.244101966259024698e-03
4.315740788417662770e+03 1.114898738564224612e+00 2.292859993779591560e-03
4.320056529206081905e+03 1.093049432335509330e+00 2.220298374285009559e-03
4.324376585735290064e+03 1.073139959948233635e+00 1.860817628251321696e-03
4.328700962321026054e+03 1.054148775004240646e+00 1.962392819942807964e-03
4.333029663283348782e+03 1.036960113240824821e+00 2.009626494014213251e-03
4.337362692946633615e+03 1.021566648322287829e+00 1.942669094436833086e-03
4.341700055639581478e+03 1.008268894404490856e+00 2.019018514238906693e-03
4.346041755695222491e+03 9.952347810931077010e-01 1.796636748088641057e-03
4.350387797450919606e+03 9.857105502848240164e-01 2.161269082634920992e-03
4.354738185248371337e+03 9.772156702260534900e-01 2.354617271699197250e-03
4.359092923433621763e+03 9.694423239267431214e-01 2.239669944805315702e-03
4.363452016357056891e+03 9.626413258947834617e-01 1.873361059075844296e-03
4.367815468373414660e+03 9.555022287682075621e-01 2.205451726100506743e-03
4.372183283841789489e+03 9.493283302958759329e-01 2.597831422983856806e-03
4.376555467125633186e+03 9.443797918096892285e-01 2.364352909512098134e-03
4.380932022592760404e+03 9.406057936901989214e-01 1.940192753704272043e-03
4.385312954615354101e+03 9.399147586623852746e-01 1.697865929396346566e-03
4.389698267569970994e+03 9.423007415254286423e-01 1.714207820308133847e-03
4.394087965837542470e+03 9.475578756090089483e-01 1.734314924313528749e-03
4.398482053803381859e+03 9.557909157730540839e-01 1.746877624962136491e-03
4.402880535857186260e+03 9.665228231715029539e-01 1.594954119411213546e-03
4.407283416393044718e+03 9.790478507174651401e-01 1.587023583409261779e-03
4.411690699809440048e+03 9.934866828953949902e-01 1.593047490247103326e-03
4.416102390509250654e+03 1.010021870655210430e+00 1.615828791341007622e-03
4.420518492899761441e+03 1.029259046628751229e+00 1.806155280218830605e-03
4.424939011392662906e+03 1.049370904873457411e+00 1.940925539370232968e-03
4.429363950404056595e+03 1.068980831596004544e+00 1.788775775973967417e-03
4.433793314354462382e+03 1.091062511109468058e+00 1.714255135606467710e-03
4.438227107668818462e+03 1.113695767639423018e+00 1.680729863964188549e-03
4.442665334776488635e+03 1.136802558860213752e+00 1.880735509568639587e-03
4.447108000111265937e+03 1.160884211138269118e+00 2.000286951946289148e-03
4.451555108111379013e+03 1.184952563844837936e+00 1.779708433834870443e-03
4.456006663219492111e+03 1.210144790913924240e+00 1.678514583581242016e-03
4.460462669882713271e+03 1.236117426921884199e+00 1.811189994196647042e-03
