# starting wavelength: 3436.450
# ending wavelength: 7272.510
# wav flux eflux
3.439693648295834464e+03 2.468285462504819172e+00 3.049494146059772079e-02
3.443133341944131189e+03 2.489701250695152357e+00 2.285017423089981750e-02
3.446576475286076402e+03 2.509342038174553480e+00 1.747709843983307268e-02
3.450023051761363604e+03 2.529728071538214884e+00 1.519911641786068218e-02
3.453473074813126004e+03 2.545561776049904523e+00 1.456501758452963778e-02
3.456926547887940615e+03 2.554702937482352443e+00 1.567801232560995031e-02
3.460383474435829612e+03 2.553831334824440358e+00 1.280643974038384210e-02
3.463843857910266706e+03 2.548236847718893916e+00 1.151302432246589097e-02
3.467307701768178049e+03 2.539011464312539879e+00 1.000171532271065290e-02
3.470775009469947236e+03 2.527471183625549234e+00 8.863262442168831287e-03
3.474245784479418489e+03 2.516610210245826984e+00 8.301167468249437409e-03
3.477720030263898934e+03 2.507067387813916692e+00 8.531507509295085945e-03
3.481197750294164052e+03 2.496463454215828826e+00 8.581544291321494683e-03
3.484678948044459503e+03 2.485340524887541758e+00 8.873028287153000848e-03
3.488163626992504760e+03 2.471049590381134919e+00 8.782542725729003755e-03
3.491651790619498570e+03 2.453413612649265385e+00 8.542255928890392022e-03
3.495143442410119405e+03 2.432303270376188209e+00 8.458385725919869910e-03
3.498638585852530468e+03 2.409332860344881144e+00 8.672038806174951417e-03
3.502137224438384237e+03 2.384508409171071541e+00 8.649610775336828011e-03
3.505639361662823831e+03 2.359732257524004950e+00 8.562903624917314258e-03
3.509145001024487556e+03 2.332635022110493228e+00 8.818684772274595213e-03
3.512654146025513455e+03 2.307372588766499089e+00 8.723058883130239624e-03
3.516166800171540217e+03 2.280548710474473939e+00 9.494706548374256053e-03
3.519682966971712631e+03 2.254736382333234701e+00 9.650570351859228194e-03
3.523202649938685681e+03 2.229024755485641052e+00 9.641114400235637275e-03
3.526725852588625457e+03 2.206592910332941582e+00 9.590160637480252964e-03
3.530252578441215064e+03 2.184054761043956461e+00 9.497316600433304210e-03
3.533782831019657806e+03 2.161024904815496139e+00 9.217547495806390281e-03
3.537316613850678550e+03 2.140108473184055171e+00 9.341175306041190826e-03
3.540853930464530094e+03 2.123258052851300537e+00 9.540566916728752261e-03
3.544394784394995895e+03 2.106394116622247292e+00 9.485879339898719426e-03
3.547939179179392340e+03 2.091722105144308230e+00 9.504430365712418158e-03
3.551487118358572843e+03 2.077451565336251971e+00 9.434844562020660436e-03
3.555038605476932389e+03 2.066049620421198885e+00 9.714642850554377693e-03
3.558593644082410719e+03 2.061614673011465726e+00 9.929238462292995504e-03
3.562152237726494150e+03 2.061990008818805009e+00 9.144272583030322102e-03
3.565714389964221937e+03 2.061070536268327924e+00 8.076901791563728672e-03
3.569280104354187188e+03 2.060370987730125503e+00 6.556382487052624282e-03
3.572849384458542772e+03 2.055962246660243853e+00 6.887802014915049391e-03
3.576422233843002232e+03 2.053031785671093346e+00 7.130612646947655751e-03
3.579998656076846601e+03 2.044257219635229550e+00 7.855981296816864218e-03
3.583578654732924406e+03 2.038544550724555648e+00 7.725810841245927575e-03
3.587162233387658489e+03 2.033018995419585639e+00 7.312766832375894831e-03
3.590749395621047370e+03 2.025397626648755001e+00 6.528390746332471753e-03
3.594340145016669794e+03 2.027066057142977495e+00 6.480205939344455685e-03
3.597934485161687462e+03 2.030778843756337437e+00 6.452710563252530944e-03
3.601532419646850485e+03 2.038209058979004062e+00 6.534207198993346316e-03
3.605133952066498296e+03 2.044659637397262308e+00 6.743352635915533105e-03
3.608739086018566013e+03 2.053261928177314566e+00 6.991068957738634515e-03
3.612347825104585809e+03 2.063403881968425946e+00 7.329210515233530385e-03
3.615960172929691907e+03 2.077852052769538993e+00 7.570867474674014726e-03
3.619576133102622407e+03 2.094267063395071737e+00 7.560662940969049318e-03
3.623195709235726554e+03 2.111089723982269017e+00 7.679660633883174728e-03
3.626818904944963379e+03 2.129937605207465445e+00 8.662006953917581950e-03
3.630445723849909427e+03 2.147725931909385988e+00 9.915060759449513539e-03
3.634076169573760581e+03 2.164321804011282602e+00 1.100581380064514191e-02
3.637710245743335690e+03 2.176511909754231588e+00 1.059250852902624516e-02
3.641347955989080219e+03 2.178517155220259127e+00 1.032117619250150740e-02
3.644989303945070333e+03 2.171341445313383023e+00 9.731075290103774825e-03
3.648634293249016537e+03 2.155621916031541296e+00 8.379020194741052321e-03
3.652282927542266862e+03 2.126658312229855241e+00 8.252404123158378971e-03
3.655935210469810499e+03 2.086292160423459219e+00 8.586384123970558502e-03
3.659591145680281443e+03 2.031960043935479021e+00 8.568049488095013516e-03
3.663250736825963031e+03 1.969570319350249621e+00 8.544199446547223395e-03
3.666913987562790226e+03 1.900581204374187649e+00 8.312600160049213316e-03
3.670580901550354156e+03 1.817060902669626055e+00 8.307572563602833721e-03
3.674251482451905758e+03 1.721044934464624809e+00 8.773530526114337730e-03
3.677925733934358959e+03 1.616690737585441795e+00 8.150562098050182641e-03
3.681603659668294313e+03 1.504203157914432376e+00 8.552014555595066625e-03
3.685285263327964003e+03 1.391820477296825231e+00 9.296034377203213003e-03
3.688970548591293209e+03 1.279347083969237797e+00 9.338517305936978180e-03
3.692659519139885560e+03 1.172788028811475813e+00 8.803018852503032704e-03
3.696352178659026777e+03 1.079686894202831926e+00 9.204085299331851711e-03
3.700048530837686940e+03 9.930452763366837132e-01 9.740393428709059540e-03
3.703748579368525952e+03 9.168311940246609559e-01 1.094895940405464507e-02
3.707452327947895355e+03 8.463204935270869367e-01 9.467049816858166128e-03
3.711159780275844696e+03 7.985679787298177734e-01 7.288672462912540277e-03
3.714870940056121526e+03 7.739029176372065333e-01 1.057563428933151403e-02
3.718585810996179134e+03 7.660739432771803692e-01 1.425646817018292982e-02
3.722304396807176545e+03 7.716394705026490275e-01 1.647077471921425465e-02
3.726026701203984885e+03 7.870576114313350136e-01 1.684150235376940738e-02
3.729752727905190113e+03 8.077789100128852651e-01 1.442778737613849456e-02
3.733482480633096657e+03 8.304774947090678427e-01 1.247820433962614634e-02
3.737215963113731050e+03 8.539436803346818206e-01 1.044406005777309861e-02
3.740953179076846027e+03 8.728796244126252324e-01 9.633156269966625801e-03
3.744694132255923705e+03 8.861291508200125344e-01 1.057925916265183876e-02
3.748438826388181042e+03 8.914592475239028202e-01 1.112741550723401855e-02
3.752187265214570289e+03 8.944773403481252050e-01 1.183793133542931052e-02
3.755939452479786269e+03 8.986508311378808012e-01 1.168132125731393724e-02
3.759695391932267285e+03 9.064809750295280688e-01 1.069120952563030330e-02
3.763455087324201031e+03 9.196093901358757261e-01 8.839141576834585318e-03
3.767218542411526414e+03 9.418669249327511483e-01 8.660769710939434513e-03
3.770985760953939007e+03 9.682657883161747137e-01 8.376712766478153216e-03
3.774756746714894234e+03 1.005458053645503114e+00 8.577093004297263110e-03
3.778531503461610555e+03 1.056191630977074691e+00 8.348144879979597921e-03
3.782310034965073100e+03 1.119911785137020166e+00 6.668629105520936309e-03
3.786092345000039586e+03 1.181950885376856109e+00 6.541551149262893328e-03
3.789878437345040766e+03 1.245689543037633129e+00 6.013247242902011215e-03
3.793668315782387253e+03 1.314417142920046855e+00 7.652899777932380306e-03
3.797461984098170888e+03 1.387248001746995918e+00 9.988920495509250042e-03
3.801259446082270188e+03 1.452247383848773721e+00 1.013516314531802583e-02
3.805060705528353537e+03 1.504928221449774561e+00 8.883953501570843875e-03
3.808865766233883278e+03 1.542371127203495451e+00 1.001595897189878903e-02
3.812674632000118436e+03 1.572866175791926890e+00 1.064964934024797624e-02
3.816487306632119726e+03 1.590607676960983596e+00 1.185066752000508636e-02
3.820303793938753188e+03 1.601225781954295879e+00 1.176311695811144316e-02
3.824124097732693372e+03 1.604371568167606732e+00 1.154899665877100190e-02
3.827948221830427428e+03 1.598948603496788357e+00 1.142558646567503992e-02
3.831776170052258749e+03 1.591329739554378619e+00 1.011246722128015391e-02
3.835607946222312421e+03 1.589012923125590060e+00 8.822245787457027796e-03
3.839443554168536139e+03 1.596614547366266956e+00 9.156020364193833902e-03
3.843282997722705659e+03 1.613606854237066957e+00 9.531005686210822919e-03
3.847126280720429804e+03 1.633715892374361767e+00 8.775558575152192509e-03
3.850973407001151372e+03 1.655115818134814898e+00 8.754799804315160222e-03
3.854824380408153957e+03 1.684375226497070832e+00 8.353341365605625873e-03
3.858679204788563311e+03 1.711754755552868934e+00 8.219579511778403805e-03
3.862537883993353262e+03 1.738059566712002235e+00 8.177278719872217022e-03
3.866400421877347981e+03 1.762157146691408327e+00 8.054079675451540632e-03
3.870266822299226533e+03 1.789760085859723349e+00 8.160129481968508847e-03
3.874137089121526969e+03 1.824306453275557960e+00 7.712153486959532830e-03
3.878011226210649966e+03 1.857525885167102153e+00 9.182494557674046945e-03
3.881889237436861549e+03 1.893180742836500841e+00 9.316580241766349649e-03
3.885771126674299921e+03 1.931910103168198889e+00 6.310803144309247090e-03
3.889656897800975457e+03 1.982407474785359280e+00 6.948110365820660619e-03
3.893546554698777527e+03 2.041442053179379990e+00 8.034003907108183337e-03
3.897440101253477678e+03 2.102120536753611102e+00 7.908512861899018656e-03
3.901337541354732366e+03 2.156388760789174963e+00 7.753987148169021702e-03
3.905238878896088409e+03 2.210284426586393458e+00 8.087313998317658195e-03
3.909144117774985716e+03 2.258578163470462918e+00 8.174859802984902127e-03
3.913053261892762293e+03 2.298262930160088313e+00 6.899681346920225576e-03
3.916966315154656058e+03 2.325371645366162365e+00 6.126412694502527886e-03
3.920883281469812118e+03 2.335346264815511663e+00 6.757517747987750074e-03
3.924804164751283224e+03 2.335087355646881413e+00 6.970613714313792647e-03
3.928728968916035683e+03 2.328256338937104264e+00 6.975200916725697933e-03
3.932657697884953450e+03 2.311549193642517874e+00 7.326979709645495970e-03
3.936590355582839493e+03 2.292297035654321746e+00 6.908433688866013125e-03
3.940526945938423523e+03 2.270610661620189319e+00 6.581476433133447677e-03
3.944467472884363360e+03 2.253125297640967251e+00 6.472363914639462333e-03
3.948411940357249023e+03 2.240429910538440428e+00 6.883899561073840781e-03
3.952360352297607733e+03 2.223416331093813536e+00 6.629632750223516877e-03
3.956312712649906643e+03 2.209044558165391692e+00 6.640203930352034031e-03
3.960269025362557841e+03 2.197158561906124685e+00 6.789409025366732742e-03
3.964229294387921527e+03 2.188854494991186339e+00 5.633040337690437861e-03
3.968193523682310570e+03 2.180438950131959430e+00 4.850065403076518102e-03
3.972161717205994591e+03 2.169095041818528191e+00 4.762140466671301205e-03
3.976133878923201792e+03 2.153381709874393479e+00 3.802787552350112010e-03
3.980110012802126221e+03 2.139737717357836022e+00 4.063480753925890858e-03
3.984090122814929600e+03 2.121818090356797804e+00 4.296590305884192412e-03
3.988074212937745870e+03 2.102277056797649646e+00 4.697880131311178709e-03
3.992062287150684824e+03 2.082328102314067397e+00 5.184001965700435997e-03
3.996054349437837118e+03 2.062338435541937631e+00 4.816087649812718537e-03
4.000050403787276082e+03 2.044842862333352773e+00 4.730746373726430094e-03
4.004050454191064546e+03 2.030295927705701775e+00 4.991662986546486006e-03
4.008054504645257111e+03 2.012829208365601641e+00 5.136477251082197971e-03
4.012062559149903791e+03 1.996404946357903221e+00 6.609661011905752608e-03
4.016074621709055009e+03 1.973445678426264616e+00 6.909567446590359450e-03
4.020090696330765240e+03 1.949205214617423021e+00 6.687144188224623288e-03
4.024110787027097558e+03 1.919557278579111292e+00 4.741372990851581981e-03
4.028134897814125907e+03 1.879361151910707850e+00 5.231817070581297469e-03
4.032163032711941469e+03 1.834004400595770745e+00 6.124136324090345349e-03
4.036195195744654484e+03 1.784280865797145621e+00 7.386726098274135933e-03
4.040231390940400615e+03 1.733161680308023200e+00 6.953479025492954359e-03
4.044271622331342314e+03 1.685328523096986775e+00 5.660448549083147221e-03
4.048315893953675186e+03 1.641395026719645323e+00 3.689827919469711431e-03
4.052364209847629809e+03 1.609027634527018247e+00 3.036399959584411452e-03
4.056416574057479011e+03 1.587869193302084980e+00 3.315074128199820003e-03
4.060472990631537868e+03 1.578710810160459221e+00 3.295599746395491171e-03
4.064533463622170530e+03 1.582867241916286360e+00 4.982877322276236219e-03
4.068597997085794304e+03 1.594621966443626970e+00 5.546505512781380910e-03
4.072666595082881486e+03 1.613124431354948873e+00 6.003564673763932096e-03
4.076739261677965715e+03 1.632585099388291994e+00 5.552690320132966893e-03
4.080816000939644709e+03 1.653008913163448890e+00 4.913888398842594304e-03
4.084896816940585722e+03 1.670463996651259997e+00 4.768387188289752512e-03
4.088981713757527814e+03 1.686031990633690469e+00 4.358799534464969684e-03
4.093070695471286854e+03 1.695062897480803743e+00 4.441478281670265676e-03
4.097163766166759160e+03 1.701161022083688357e+00 4.501071889336048099e-03
4.101260929932927866e+03 1.701783923791944098e+00 4.495467623105695032e-03
4.105362190862862008e+03 1.696770147274256013e+00 4.017179979637798028e-03
4.109467553053726078e+03 1.686883680795315366e+00 3.833977340629422369e-03
4.113577020606780934e+03 1.672261681403068634e+00 3.643455057924558250e-03
4.117690597627389252e+03 1.655463741119712617e+00 3.557869657988477902e-03
4.121808288225018259e+03 1.636358207656690045e+00 3.312895351300368732e-03
4.125930096513244280e+03 1.613800945433386369e+00 3.367765321327872725e-03
4.130056026609759101e+03 1.589009777595360662e+00 3.398004828468051582e-03
4.134186082636369974e+03 1.561387685892547061e+00 2.823085523450198902e-03
4.138320268719007800e+03 1.533485462081389361e+00 3.045690666592762528e-03
4.142458588987728035e+03 1.505255411015205214e+00 2.930558888898640666e-03
4.146601047576717065e+03 1.475647282404423777e+00 3.581795025116735979e-03
4.150747648624294925e+03 1.450559162218108877e+00 3.479369244938092763e-03
4.154898396272920763e+03 1.426407517890674548e+00 3.412542965147451722e-03
4.159053294669195566e+03 1.405531152100366832e+00 3.523870403965606319e-03
4.163212347963865795e+03 1.388233806175446006e+00 3.707813587912708007e-03
4.167375560311830668e+03 1.375611519373554303e+00 3.807266636344880557e-03
4.171542935872143971e+03 1.368939105684731317e+00 3.369218705771924189e-03
4.175714478808017702e+03 1.368952577005951632e+00 3.606541859946533687e-03
4.179890193286827525e+03 1.374352874477494213e+00 3.901917053150347810e-03
4.184070083480115500e+03 1.385438935657407278e+00 3.657385028088097796e-03
4.188254153563597356e+03 1.399253314695792172e+00 3.417712602165078484e-03
4.192442407717161586e+03 1.415115160537291805e+00 3.266888969783342516e-03
4.196634850124880359e+03 1.429345051709994818e+00 2.955840167295183726e-03
4.200831484975006788e+03 1.441086968310201222e+00 2.967022739774524773e-03
4.205032316459983122e+03 1.448630607722060093e+00 3.395967991513713750e-03
4.209237348776444378e+03 1.453763881164533922e+00 3.701397612398856386e-03
4.213446586125221984e+03 1.458663305318365522e+00 3.813156328375864965e-03
4.217660032711349231e+03 1.461101368793612965e+00 4.102914131131831996e-03
4.221877692744061278e+03 1.462242218307754804e+00 3.584268888521767275e-03
4.226099570436806971e+03 1.462478205520111540e+00 2.594065281951456539e-03
4.230325670007245208e+03 1.465453575430356370e+00 3.270796243146460724e-03
4.234555995677254032e+03 1.466856965563661630e+00 3.131865670830986416e-03
4.238790551672932452e+03 1.466961641439814112e+00 3.382596833287552108e-03
4.243029342224606808e+03 1.466870912969629348e+00 3.758344359649110674e-03
4.247272371566832589e+03 1.467507465829814395e+00 3.707953903004873944e-03
4.251519643938400804e+03 1.469187642940283922e+00 3.688636437920203483e-03
4.255771163582340705e+03 1.471518443141022425e+00 3.764196969528947612e-03
4.260026934745924336e+03 1.471918208886217716e+00 3.999408398934887164e-03
4.264286961680671993e+03 1.470401110939128397e+00 4.716684827957737594e-03
4.268551248642354039e+03 1.465805158746813941e+00 5.287566410175103572e-03
4.272819799890998183e+03 1.458304937663869705e+00 5.301893775143459199e-03
4.277092619690890388e+03 1.444491846770055155e+00 4.518212243817953423e-03
4.281369712310583054e+03 1.424609019095969042e+00 4.193046173549579841e-03
4.285651082022895025e+03 1.397168152742226166e+00 6.207733255324491585e-03
4.289936733104918858e+03 1.368937480787288496e+00 6.411015715023352102e-03
4.294226669838025373e+03 1.338599321059041447e+00 6.571093604134034538e-03
4.298520896507864563e+03 1.309445665294370231e+00 5.059685241460714668e-03
4.302819417404373780e+03 1.284751408503168602e+00 4.005908309105470251e-03
4.307122236821779552e+03 1.269809166803028244e+00 3.049404617641499927e-03
4.311429359058603040e+03 1.267324812523016320e+00 6.194952440915361611e-03
4.315740788417662770e+03 1.268765591906092727e+00 6.950461295632493104e-03
4.320056529206081905e+03 1.273851647131236664e+00 6.984353527678698048e-03
4.324376585735290064e+03 1.280900819551852754e+00 6.307289876855624346e-03
4.328700962321026054e+03 1.287579971500611098e+00 5.550051858943957916e-03
4.333029663283348782e+03 1.292863472142038672e+00 5.767168968934566729e-03
4.337362692946633615e+03 1.297446181059835668e+00 5.860948882146070973e-03
4.341700055639581478e+03 1.299889529631963692e+00 5.710418636651421777e-03
4.346041755695222491e+03 1.301516379346894903e+00 5.378697377269149940e-03
4.350387797450919606e+03 1.302516016789944109e+00 5.213733978072713875e-03
4.354738185248371337e+03 1.304189007321459481e+00 5.773455085454610655e-03
4.359092923433621763e+03 1.303145594203102720e+00 6.010894995849289449e-03
4.363452016357056891e+03 1.298796466573965747e+00 5.998169778636392585e-03
4.367815468373414660e+03 1.291080795227606659e+00 5.891042322362087524e-03
4.372183283841789489e+03 1.282685038955506229e+00 5.584970605149503289e-03
4.376555467125633186e+03 1.271132377093393551e+00 6.568528533947403346e-03
4.380932022592760404e+03 1.259273903214910728e+00 6.924846102743399852e-03
4.385312954615354101e+03 1.245450351340675166e+00 5.222107953034287910e-03
4.389698267569970994e+03 1.239313865838820528e+00 4.415762167573477823e-03
4.394087965837542470e+03 1.241258351750760935e+00 6.562062192054948784e-03
4.398482053803381859e+03 1.242579150186237547e+00 6.561139194100984104e-03
4.402880535857186260e+03 1.247830721033646562e+00 6.469280083199122067e-03
4.407283416393044718e+03 1.258325939145426009e+00 6.282272751413909596e-03
4.411690699809440048e+03 1.271462701913227411e+00 6.590824840671686245e-03
4.416102390509250654e+03 1.289839287144972646e+00 6.560065555082717111e-03
4.420518492899761441e+03 1.310851900272886672e+00 6.583816974995661611e-03
4.424939011392662906e+03 1.334765380945694746e+00 6.608601134566404432e-03
4.429363950404056595e+03 1.359868848965578358e+00 6.973606703871340802e-03
4.433793314354462382e+03 1.384405960882882036e+00 7.175055698172987800e-03
4.438227107668818462e+03 1.409848105366453996e+00 7.456404768702054077e-03
4.442665334776488635e+03 1.432826211356986956e+00 7.273691885519926147e-03
4.447108000111265937e+03 1.450485554588267112e+00 6.214481478163778536e-03
4.451555108111379013e+03 1.461865033118556978e+00 5.568012909073116919e-03
4.456006663219492111e+03 1.465474953520610413e+00 5.870133341295810658e-03
4.460462669882713271e+03 1.461594328913279117e+00 6.509853005943008579e-03
4.464923132552597053e+03 1.453244493871209908e+00 5.904916088798952203e-03
4.469388055685150903e+03 1.441896827033442241e+00 2.923801705067949081e-03
4.473857443740837880e+03 1.436094922194204981e+00 2.745565840363338103e-03
4.478331301184580298e+03 1.433801482960080476e+00 2.665947823610360576e-03
