# starting wavelength: 3429.590
# ending wavelength: 7265.240
# wav flux eflux
3.432824566338588284e+03 1.216196293120416660e+00 2.053402600149399626e-02
3.436257390904928343e+03 1.234495174242235427e+00 1.580715074151923041e-02
3.439693648295834464e+03 1.245149415782798696e+00 1.517588185755585663e-02
3.443133341944131189e+03 1.256291931450086663e+00 1.361361980703344569e-02
3.446576475286076402e+03 1.268566013806943449e+00 1.187404552386889245e-02
3.450023051761363604e+03 1.281837346230007668e+00 9.704926665571102576e-03
3.453473074813126004e+03 1.294143110525206808e+00 8.351440311516430612e-03
3.456926547887940615e+03 1.306065777100116954e+00 7.455592605652970085e-03
3.460383474435829612e+03 1.316348613498034892e+00 6.616491241423889079e-03
3.463843857910266706e+03 1.323534965311494949e+00 6.099435943613101992e-03
3.467307701768178049e+03 1.328322423903047333e+00 5.784729413093397769e-03
3.470775009469947236e+03 1.332752552412887370e+00 5.397764767728247502e-03
3.474245784479418489e+03 1.336048166181497354e+00 5.099994614008149935e-03
3.477720030263898934e+03 1.337503763335170071e+00 4.869010432556786401e-03
3.481197750294164052e+03 1.339494470661946490e+00 4.895546042840712500e-03
3.484678948044459503e+03 1.338241049453737785e+00 4.835995290149632669e-03
3.488163626992504760e+03 1.336272345884812696e+00 4.833176773108308934e-03
3.491651790619498570e+03 1.331692009802867949e+00 4.960034515684331492e-03
3.495143442410119405e+03 1.326775306638244611e+00 4.999511450084231923e-03
3.498638585852530468e+03 1.320759736014485819e+00 5.125492577619454593e-03
3.502137224438384237e+03 1.314399738413446261e+00 5.207798804773088909e-03
3.505639361662823831e+03 1.305653213716946093e+00 5.469157789319378619e-03
3.509145001024487556e+03 1.296791817366163224e+00 5.087717724065858767e-03
3.512654146025513455e+03 1.288224799606741522e+00 4.480318458797786715e-03
3.516166800171540217e+03 1.280663723984591940e+00 4.113984201420090893e-03
3.519682966971712631e+03 1.274714026455545657e+00 4.230964229821056535e-03
3.523202649938685681e+03 1.269124496379160805e+00 4.367870853183511079e-03
3.526725852588625457e+03 1.266062039252647375e+00 4.841773309096736658e-03
3.530252578441215064e+03 1.262071552609095537e+00 4.628585992237243922e-03
3.533782831019657806e+03 1.259286241094385916e+00 4.599560137244441439e-03
3.537316613850678550e+03 1.255000901141557934e+00 4.484834821045408787e-03
3.540853930464530094e+03 1.250516874317553428e+00 4.361111406574916076e-03
3.544394784394995895e+03 1.247090007195537309e+00 4.214987992712138955e-03
3.547939179179392340e+03 1.242214502500546658e+00 4.230871308759672107e-03
3.551487118358572843e+03 1.235098708727894179e+00 4.373317975888982301e-03
3.555038605476932389e+03 1.228327311956869838e+00 4.271023908542343449e-03
3.558593644082410719e+03 1.221439065647572431e+00 4.268866063663865479e-03
3.562152237726494150e+03 1.214468022546477233e+00 4.153675494556916155e-03
3.565714389964221937e+03 1.206749184315486723e+00 4.183565812038530368e-03
3.569280104354187188e+03 1.199438368609292427e+00 4.318605927977764609e-03
3.572849384458542772e+03 1.190878724170506331e+00 4.370300154607415118e-03
3.576422233843002232e+03 1.182114875339900451e+00 4.515667175387520597e-03
3.579998656076846601e+03 1.172771285265843177e+00 4.296184566310240656e-03
3.583578654732924406e+03 1.161452707781135407e+00 3.424760092672216906e-03
3.587162233387658489e+03 1.154218575461652518e+00 3.655864443440559001e-03
3.590749395621047370e+03 1.147629760752661321e+00 3.914542076442813039e-03
3.594340145016669794e+03 1.140995236346461272e+00 3.852201189677328941e-03
3.597934485161687462e+03 1.135780020861363981e+00 3.063607330030915666e-03
3.601532419646850485e+03 1.128645370860996477e+00 3.141988425125598859e-03
3.605133952066498296e+03 1.121361722164896157e+00 3.248395556213213350e-03
3.608739086018566013e+03 1.116328775462539280e+00 3.245226871557919945e-03
3.612347825104585809e+03 1.109598991680669444e+00 3.649728778522798398e-03
3.615960172929691907e+03 1.103797250129775920e+00 3.705585522330264933e-03
3.619576133102622407e+03 1.096368257184327177e+00 3.408742345603444062e-03
3.623195709235726554e+03 1.091806694766511265e+00 3.251604046213825254e-03
3.626818904944963379e+03 1.088220016865368400e+00 3.200219219267952560e-03
3.630445723849909427e+03 1.086466216114560845e+00 3.468194456033627058e-03
3.634076169573760581e+03 1.085298980440486671e+00 3.883519984760915381e-03
3.637710245743335690e+03 1.084986513157571997e+00 3.932104468345525190e-03
3.641347955989080219e+03 1.082231993421806093e+00 3.945611467791202386e-03
3.644989303945070333e+03 1.077375484368131797e+00 4.106632534028588528e-03
3.648634293249016537e+03 1.072007919808820597e+00 4.078854156189616609e-03
3.652282927542266862e+03 1.065759878964540386e+00 3.929487169497462677e-03
3.655935210469810499e+03 1.058540999508338576e+00 3.615232065047289944e-03
3.659591145680281443e+03 1.049616103843171500e+00 3.178672997482204481e-03
3.663250736825963031e+03 1.038364458372684318e+00 3.078875628731773256e-03
3.666913987562790226e+03 1.022104630252889113e+00 3.427256064997863047e-03
3.670580901550354156e+03 1.004376135012321924e+00 3.418616018051167521e-03
3.674251482451905758e+03 9.844751986512343400e-01 3.150706198450802745e-03
3.677925733934358959e+03 9.611829057729464054e-01 2.551048701249700873e-03
3.681603659668294313e+03 9.388869614055499468e-01 3.054325998226108639e-03
3.685285263327964003e+03 9.133392245332188075e-01 3.177187123749914115e-03
3.688970548591293209e+03 8.880277451064202410e-01 3.202421739678964780e-03
3.692659519139885560e+03 8.613639354126324532e-01 3.026152019039035808e-03
3.696352178659026777e+03 8.331273531330701809e-01 3.147104585302726819e-03
3.700048530837686940e+03 8.035538278545590885e-01 3.231944012693319969e-03
3.703748579368525952e+03 7.738909898158765621e-01 3.226963146657406498e-03
3.707452327947895355e+03 7.422962860225891246e-01 3.327315735926460356e-03
3.711159780275844696e+03 7.105235141341462723e-01 3.714007477749766035e-03
3.714870940056121526e+03 6.795118393431783810e-01 3.352400885132292719e-03
3.718585810996179134e+03 6.506847167516045527e-01 3.110830991525322109e-03
3.722304396807176545e+03 6.228377709210785040e-01 2.945679958408521041e-03
3.726026701203984885e+03 5.986658638485909956e-01 3.108129754391209497e-03
3.729752727905190113e+03 5.767686659438799879e-01 3.117584384450705279e-03
3.733482480633096657e+03 5.574799902558529308e-01 3.282090981745226441e-03
3.737215963113731050e+03 5.396683346659371106e-01 3.347551648793005690e-03
3.740953179076846027e+03 5.234242708704515135e-01 3.279318924618525224e-03
3.744694132255923705e+03 5.084826360892887864e-01 3.109176535670045601e-03
3.748438826388181042e+03 4.953045149869391151e-01 3.027304179423636298e-03
3.752187265214570289e+03 4.830727188934194061e-01 2.767064077704389866e-03
3.755939452479786269e+03 4.691421557562145961e-01 2.603500634524497093e-03
3.759695391932267285e+03 4.573065026868342042e-01 2.602794140883884708e-03
3.763455087324201031e+03 4.465948008078466369e-01 2.702784563987952002e-03
3.767218542411526414e+03 4.355295771231836310e-01 2.634403256985945550e-03
3.770985760953939007e+03 4.298112203585027213e-01 2.553809023677482918e-03
3.774756746714894234e+03 4.253121567106730727e-01 2.704138044993762216e-03
3.778531503461610555e+03 4.209384190386172842e-01 2.561393782029139279e-03
3.782310034965073100e+03 4.203768847294206967e-01 2.494913221078135044e-03
3.786092345000039586e+03 4.220268588554458855e-01 2.294719940708211166e-03
3.789878437345040766e+03 4.248600700855548751e-01 2.399512711582339405e-03
3.793668315782387253e+03 4.301076459749121894e-01 2.147267752897831332e-03
3.797461984098170888e+03 4.398985134504870276e-01 2.594541184892855488e-03
3.801259446082270188e+03 4.507869053741695997e-01 2.718784535546411602e-03
3.805060705528353537e+03 4.649967326539640178e-01 3.186238276834033652e-03
3.808865766233883278e+03 4.791159447372025926e-01 3.181002760996225719e-03
3.812674632000118436e+03 4.943411254430277180e-01 3.305607153390891905e-03
3.816487306632119726e+03 5.121919198152464769e-01 3.286382146332281814e-03
3.820303793938753188e+03 5.308990439759889712e-01 3.752576857389792932e-03
3.824124097732693372e+03 5.527443683467058166e-01 3.957912510670789571e-03
3.827948221830427428e+03 5.794528328198409461e-01 4.322381715507238667e-03
3.831776170052258749e+03 6.123972099259095137e-01 4.386532219102418778e-03
3.835607946222312421e+03 6.496352668824265653e-01 4.914065820928140149e-03
3.839443554168536139e+03 6.891805071755034984e-01 4.895841726733191589e-03
3.843282997722705659e+03 7.311357474739518247e-01 4.772434696285084155e-03
3.847126280720429804e+03 7.801896553248750532e-01 4.613247300550292126e-03
3.850973407001151372e+03 8.319765503861683564e-01 4.225923056055540770e-03
3.854824380408153957e+03 8.836035090987048868e-01 4.146642900823433071e-03
3.858679204788563311e+03 9.367440568793410360e-01 4.110142611474813280e-03
3.862537883993353262e+03 9.894664096128178432e-01 4.068614470919919290e-03
3.866400421877347981e+03 1.041863608722351620e+00 3.723031047398591038e-03
3.870266822299226533e+03 1.094664398996290977e+00 3.458507022012036278e-03
3.874137089121526969e+03 1.148469796677298760e+00 3.484391697808246393e-03
3.878011226210649966e+03 1.202328807920395759e+00 3.392565716077101858e-03
3.881889237436861549e+03 1.254378411445254526e+00 3.435827218656630801e-03
3.885771126674299921e+03 1.305347091619878830e+00 3.459225314097874246e-03
3.889656897800975457e+03 1.356249937623506430e+00 3.221131403183844725e-03
3.893546554698777527e+03 1.403340593668070291e+00 3.250579070907638236e-03
3.897440101253477678e+03 1.447810789048051161e+00 4.363878597509578995e-03
3.901337541354732366e+03 1.485838768794963682e+00 4.617242998881811167e-03
3.905238878896088409e+03 1.521478030802964732e+00 4.257312553730135604e-03
3.909144117774985716e+03 1.548943489076926916e+00 4.021947816236815659e-03
3.913053261892762293e+03 1.568881432703943313e+00 5.114299302167476906e-03
3.916966315154656058e+03 1.585235119851716279e+00 5.537001201170030015e-03
3.920883281469812118e+03 1.600733519071554367e+00 5.827185341160645224e-03
3.924804164751283224e+03 1.615217576850822123e+00 5.726377117733683422e-03
3.928728968916035683e+03 1.629464318999038985e+00 4.881066976206847007e-03
3.932657697884953450e+03 1.645953848718151313e+00 4.702096941651347402e-03
3.936590355582839493e+03 1.663676342854841783e+00 4.689306671554895750e-03
3.940526945938423523e+03 1.683525753662022062e+00 4.700209192601975498e-03
3.944467472884363360e+03 1.706503803496879801e+00 4.623408052993379508e-03
3.948411940357249023e+03 1.730172842632347496e+00 4.113999597573474339e-03
3.952360352297607733e+03 1.751292084485638778e+00 3.266008089723873228e-03
3.956312712649906643e+03 1.768838234204657134e+00 3.151653071300384353e-03
3.960269025362557841e+03 1.781991909864444334e+00 3.167276507484215794e-03
3.964229294387921527e+03 1.790977443062056196e+00 2.871233121462865752e-03
3.968193523682310570e+03 1.796902572696720934e+00 3.193648241377822130e-03
3.972161717205994591e+03 1.798941295735581258e+00 3.090546762278685057e-03
3.976133878923201792e+03 1.795554592047746922e+00 3.113237840922605023e-03
3.980110012802126221e+03 1.788868047238866499e+00 3.165243178300320131e-03
3.984090122814929600e+03 1.776580833004577364e+00 3.279031770193541716e-03
3.988074212937745870e+03 1.761670587120335751e+00 3.108954086408079621e-03
3.992062287150684824e+03 1.743404507697884132e+00 3.019637657504784054e-03
3.996054349437837118e+03 1.722195157402526489e+00 3.140766419332519360e-03
4.000050403787276082e+03 1.697764208379978212e+00 3.320302818828862589e-03
4.004050454191064546e+03 1.670844048983458396e+00 3.356547618994760486e-03
4.008054504645257111e+03 1.640811655461168472e+00 2.910341465674648031e-03
4.012062559149903791e+03 1.606060729766781936e+00 3.176304609275737954e-03
4.016074621709055009e+03 1.569675657637537247e+00 3.186879825183503660e-03
4.020090696330765240e+03 1.533145615861819078e+00 3.115907776913010279e-03
4.024110787027097558e+03 1.495085444124405916e+00 3.234793727264121451e-03
4.028134897814125907e+03 1.455445285252805032e+00 3.299856190799193602e-03
4.032163032711941469e+03 1.417656359377451381e+00 3.111967044408974967e-03
4.036195195744654484e+03 1.382819226833337245e+00 2.323045758928982737e-03
4.040231390940400615e+03 1.353998222625139913e+00 2.152406025872097371e-03
4.044271622331342314e+03 1.331592128992134638e+00 2.132247230214139727e-03
4.048315893953675186e+03 1.312826429715356236e+00 2.176526034433453726e-03
4.052364209847629809e+03 1.297841929274749617e+00 2.274565665313579930e-03
4.056416574057479011e+03 1.284506057455572448e+00 2.259928961537109073e-03
4.060472990631537868e+03 1.274621891842470989e+00 2.606785183325515277e-03
4.064533463622170530e+03 1.266530419209900282e+00 2.848502854635149260e-03
4.068597997085794304e+03 1.257193561784044622e+00 2.727874135173890234e-03
4.072666595082881486e+03 1.247260388111552709e+00 2.392373187746087929e-03
4.076739261677965715e+03 1.235806759121767628e+00 2.596199171635699566e-03
4.080816000939644709e+03 1.223313596220020338e+00 3.220196087068131607e-03
4.084896816940585722e+03 1.210488872797321536e+00 3.099093261107432364e-03
4.088981713757527814e+03 1.197891217318272972e+00 2.257511497655275302e-03
4.093070695471286854e+03 1.188072734787570806e+00 2.030508307765787127e-03
4.097163766166759160e+03 1.181208247593956484e+00 2.126504501968707033e-03
4.101260929932927866e+03 1.175570970833812234e+00 2.124183839097626859e-03
4.105362190862862008e+03 1.172211424183589035e+00 2.105052785259284732e-03
4.109467553053726078e+03 1.171515199809670005e+00 2.094910591742216166e-03
4.113577020606780934e+03 1.172917844035650692e+00 2.097226225043468447e-03
4.117690597627389252e+03 1.178269105584619947e+00 2.202799468488354524e-03
4.121808288225018259e+03 1.183982487020369012e+00 2.078734804545266397e-03
4.125930096513244280e+03 1.190009953316145674e+00 2.157845863360474074e-03
4.130056026609759101e+03 1.196714672714441763e+00 2.137979730081973964e-03
4.134186082636369974e+03 1.203153482032171873e+00 1.730397500438534851e-03
4.138320268719007800e+03 1.211345823926565313e+00 2.193820574428311312e-03
4.142458588987728035e+03 1.219668464057910739e+00 2.738211196566911563e-03
4.146601047576717065e+03 1.225286275666395586e+00 2.719337265180730295e-03
4.150747648624294925e+03 1.227279715847054753e+00 2.307202717397201924e-03
4.154898396272920763e+03 1.225254396241712174e+00 2.485497701083987879e-03
4.159053294669195566e+03 1.219731148013679212e+00 3.036158227607253964e-03
4.163212347963865795e+03 1.213246540051584166e+00 3.169584503796044408e-03
4.167375560311830668e+03 1.205722254535304128e+00 3.104855048107707603e-03
4.171542935872143971e+03 1.198426561617069508e+00 3.037466161513523426e-03
4.175714478808017702e+03 1.192340086354752415e+00 3.011823760493741176e-03
4.179890193286827525e+03 1.187812856239818693e+00 2.566041698194355004e-03
4.184070083480115500e+03 1.186505603081986493e+00 2.264102650172353931e-03
4.188254153563597356e+03 1.189423002152240727e+00 2.124057423446833529e-03
4.192442407717161586e+03 1.196454562475516070e+00 2.344043069080714754e-03
4.196634850124880359e+03 1.208658936088852665e+00 2.698053647655952909e-03
4.200831484975006788e+03 1.220688490611491650e+00 2.837207488626168183e-03
4.205032316459983122e+03 1.231818258517065390e+00 3.052672573571661718e-03
4.209237348776444378e+03 1.240068588265336613e+00 2.909130811991191522e-03
4.213446586125221984e+03 1.244521244753510336e+00 2.791663721077566798e-03
4.217660032711349231e+03 1.245716078124155413e+00 2.718893077321433982e-03
4.221877692744061278e+03 1.243985062630158511e+00 2.712364633427914815e-03
4.226099570436806971e+03 1.238765533764245141e+00 2.981104652634560589e-03
4.230325670007245208e+03 1.230048637083452023e+00 3.321330426053522699e-03
4.234555995677254032e+03 1.219575080666485345e+00 3.124415410456530488e-03
4.238790551672932452e+03 1.209495915448129955e+00 2.001132749889791406e-03
4.243029342224606808e+03 1.202010221033995352e+00 1.527571241517132819e-03
4.247272371566832589e+03 1.197120351143824202e+00 1.702991885567770427e-03
4.251519643938400804e+03 1.195004182200097631e+00 1.942232645008199095e-03
4.255771163582340705e+03 1.194427415734520048e+00 1.688542698118911112e-03
4.260026934745924336e+03 1.195789955448659736e+00 1.515947908856839525e-03
4.264286961680671993e+03 1.198197114824438136e+00 1.711945436759403907e-03
4.268551248642354039e+03 1.202109443767036323e+00 1.671907385844174140e-03
4.272819799890998183e+03 1.207823614999302908e+00 1.986869838152004446e-03
4.277092619690890388e+03 1.214674339816998794e+00 2.758215074741533334e-03
4.281369712310583054e+03 1.219636265997678937e+00 3.075637267514854875e-03
4.285651082022895025e+03 1.222523105907897589e+00 2.877683608582712240e-03
4.289936733104918858e+03 1.221690447547879810e+00 2.780323324174950247e-03
4.294226669838025373e+03 1.217730719786417337e+00 2.763634825436306602e-03
4.298520896507864563e+03 1.210737103335507436e+00 2.719506800902340982e-03
4.302819417404373780e+03 1.200122174321411439e+00 2.714873884961518588e-03
4.307122236821779552e+03 1.185696195273135745e+00 2.794118665936953533e-03
4.311429359058603040e+03 1.166782353175970455e+00 2.946007057565015741e-03
4.315740788417662770e+03 1.145903842693176689e+00 2.399867640544110347e-03
4.320056529206081905e+03 1.124519804648817400e+00 2.482740487493589974e-03
4.324376585735290064e+03 1.101762227243186398e+00 2.588127137086238590e-03
4.328700962321026054e+03 1.078183006945916400e+00 2.471131854833072926e-03
4.333029663283348782e+03 1.054650775969219856e+00 2.041812814753555475e-03
4.337362692946633615e+03 1.028836698309680830e+00 2.324161141263308278e-03
4.341700055639581478e+03 1.003003262184396949e+00 2.469088482347347752e-03
4.346041755695222491e+03 9.767979943869758985e-01 2.346964658139957024e-03
4.350387797450919606e+03 9.517281241885758858e-01 1.907033562768749822e-03
4.354738185248371337e+03 9.296583113404379706e-01 2.011985744255064684e-03
4.359092923433621763e+03 9.096908176514575395e-01 2.033779234692596402e-03
4.363452016357056891e+03 8.913121523388816136e-01 2.005382831249360575e-03
4.367815468373414660e+03 8.753125330381237301e-01 2.043430564831965647e-03
4.372183283841789489e+03 8.609846996091298221e-01 2.110339273757668149e-03
4.376555467125633186e+03 8.491166611354594718e-01 2.140729182475686106e-03
4.380932022592760404e+03 8.386906926921565697e-01 1.868016855830036734e-03
4.385312954615354101e+03 8.295779000027676542e-01 1.943172741409436837e-03
4.389698267569970994e+03 8.216023677876288511e-01 2.278192931784115641e-03
4.394087965837542470e+03 8.152926629747482279e-01 1.696186301238011016e-03
4.398482053803381859e+03 8.132145244105366544e-01 2.144679418321654690e-03
4.402880535857186260e+03 8.138210038304882765e-01 2.360200379170170320e-03
4.407283416393044718e+03 8.149843754543864005e-01 2.408691258855739491e-03
4.411690699809440048e+03 8.187850957842653932e-01 2.455805184762449838e-03
4.416102390509250654e+03 8.259937702376580759e-01 2.368989100736264113e-03
4.420518492899761441e+03 8.344551011825891429e-01 2.421555352506446056e-03
4.424939011392662906e+03 8.467022321796966455e-01 2.425812175333552211e-03
4.429363950404056595e+03 8.609998357899690813e-01 2.414691521802733460e-03
4.433793314354462382e+03 8.779175131047010083e-01 2.532862406199036520e-03
4.438227107668818462e+03 8.964915777110337158e-01 2.476118663246554708e-03
4.442665334776488635e+03 9.163730561011235176e-01 2.467179302883319453e-03
4.447108000111265937e+03 9.375925589792326598e-01 2.421456008121878386e-03
4.451555108111379013e+03 9.613318887129209678e-01 2.403930998083814684e-03
4.456006663219492111e+03 9.867617324242016208e-01 2.374045298132059379e-03
4.460462669882713271e+03 1.013992244286992417e+00 2.268783404770256286e-03
4.464923132552597053e+03 1.041284363103069932e+00 2.250343054861842201e-03
4.469388055685150903e+03 1.068624913293505951e+00 2.205931102554813984e-03
