# starting wavelength: 3412.490
# ending wavelength: 7265.240
# wav flux eflux
3.415711815966390986e+03 6.155135369271033108e-01 4.154143334436158352e-02
3.419127527782358356e+03 5.661609184916878146e-01 3.169456430172122585e-02
3.422546655310141887e+03 5.398058640631213656e-01 2.654561387370284881e-02
3.425969201965453522e+03 5.246188547931575075e-01 1.996758082946154672e-02
3.429395171167419903e+03 5.179152861986228151e-01 1.535328593988467827e-02
3.432824566338588284e+03 5.232431227678014940e-01 1.394395092237616339e-02
3.436257390904928343e+03 5.337391058212744843e-01 1.465588844052850490e-02
3.439693648295834464e+03 5.434364477610879041e-01 1.242235945609929462e-02
3.443133341944131189e+03 5.547123169011600741e-01 1.015735695080631669e-02
3.446576475286076402e+03 5.689050396183050751e-01 8.625617758662953993e-03
3.450023051761363604e+03 5.858779699867882051e-01 7.556526343041248227e-03
3.453473074813126004e+03 6.047096790098560604e-01 6.739411330697196029e-03
3.456926547887940615e+03 6.244611244074427248e-01 6.112073846030602331e-03
3.460383474435829612e+03 6.459069529378866914e-01 5.872270650368380425e-03
3.463843857910266706e+03 6.684268722406819796e-01 6.125076904913629404e-03
3.467307701768178049e+03 6.874057491361713623e-01 5.835445118113976801e-03
3.470775009469947236e+03 7.025249646474213128e-01 5.618398050846551937e-03
3.474245784479418489e+03 7.167472990180832060e-01 5.454522263742021988e-03
3.477720030263898934e+03 7.280675500445888959e-01 5.459039773235870897e-03
3.481197750294164052e+03 7.344986347013044981e-01 5.436471979014516169e-03
3.484678948044459503e+03 7.377322693455491409e-01 5.582985006643064081e-03
3.488163626992504760e+03 7.371660788300106182e-01 5.561767793456905661e-03
3.491651790619498570e+03 7.326649415707492397e-01 5.541672207038238207e-03
3.495143442410119405e+03 7.234783942651146216e-01 5.525600147800559421e-03
3.498638585852530468e+03 7.101232358214797369e-01 5.765672583665146927e-03
3.502137224438384237e+03 6.923597297076782286e-01 5.916625387716182953e-03
3.505639361662823831e+03 6.713861860234600076e-01 5.979295617171334794e-03
3.509145001024487556e+03 6.475626643835551421e-01 5.977519627111896848e-03
3.512654146025513455e+03 6.196886270915605843e-01 6.162908573161117454e-03
3.516166800171540217e+03 5.876394768341368646e-01 6.575422598077437439e-03
3.519682966971712631e+03 5.535423054320619540e-01 6.036967272129937362e-03
3.523202649938685681e+03 5.179359180541460717e-01 5.687946415162733332e-03
3.526725852588625457e+03 4.807395105034339977e-01 4.995532375889561241e-03
3.530252578441215064e+03 4.438058418621352308e-01 4.556809702320301948e-03
3.533782831019657806e+03 4.076770160071968574e-01 4.574795417459839690e-03
3.537316613850678550e+03 3.728401788175458864e-01 5.079356415244049364e-03
3.540853930464530094e+03 3.386300208301309955e-01 5.727096593601532608e-03
3.544394784394995895e+03 3.084843724579671154e-01 6.169053284717188924e-03
3.547939179179392340e+03 2.843348137470104176e-01 6.279663602581494683e-03
3.551487118358572843e+03 2.625516582331990922e-01 6.875611686219937867e-03
3.555038605476932389e+03 2.429434474210239170e-01 6.699680987683909010e-03
3.558593644082410719e+03 2.307927214554363338e-01 5.665194000063561268e-03
3.562152237726494150e+03 2.241653707556091890e-01 5.567640937646175549e-03
3.565714389964221937e+03 2.255357502237013978e-01 6.252505439990793147e-03
3.569280104354187188e+03 2.317703315041129419e-01 7.233878883517523041e-03
3.572849384458542772e+03 2.438094760225028579e-01 9.432925119311427048e-03
3.576422233843002232e+03 2.626010534066469670e-01 1.072525541124745747e-02
3.579998656076846601e+03 2.805328692407850766e-01 1.032720425208603909e-02
3.583578654732924406e+03 2.953814657465820281e-01 1.008690039289992374e-02
3.587162233387658489e+03 3.096658880268148284e-01 9.999105645624504698e-03
3.590749395621047370e+03 3.263361027971513062e-01 9.413164476208739015e-03
3.594340145016669794e+03 3.417664765532046900e-01 9.297889469307181812e-03
3.597934485161687462e+03 3.568027297014492727e-01 9.247034860895902639e-03
3.601532419646850485e+03 3.715123096137654124e-01 9.440215564187507541e-03
3.605133952066498296e+03 3.820932265168628383e-01 9.524803359049139467e-03
3.608739086018566013e+03 3.887336953719301436e-01 9.500236687246489328e-03
3.612347825104585809e+03 3.915573901197555440e-01 9.320080914679814213e-03
3.615960172929691907e+03 3.961701644721924986e-01 9.423792737592221955e-03
3.619576133102622407e+03 3.972932073652312712e-01 9.340351390378530058e-03
3.623195709235726554e+03 3.951754032435134123e-01 8.995005428851822471e-03
3.626818904944963379e+03 3.930112731187447861e-01 9.019353304415521355e-03
3.630445723849909427e+03 3.914925365292174497e-01 8.805110089616834460e-03
3.634076169573760581e+03 3.872316753466601980e-01 9.217262700998683084e-03
3.637710245743335690e+03 3.874740214180955045e-01 9.327069032548603034e-03
3.641347955989080219e+03 3.850143927097904317e-01 9.894307825233714451e-03
3.644989303945070333e+03 3.840524718050355446e-01 1.024558413538684265e-02
3.648634293249016537e+03 3.843773145666085633e-01 1.043055103121717439e-02
3.652282927542266862e+03 3.848367309682430570e-01 1.069605904011054938e-02
3.655935210469810499e+03 3.855386651538271203e-01 9.103370599585510967e-03
3.659591145680281443e+03 3.889049909946579175e-01 7.392618359663724256e-03
3.663250736825963031e+03 4.002497718550090955e-01 8.340613133323663067e-03
3.666913987562790226e+03 4.146146762542520792e-01 9.261577074253029077e-03
3.670580901550354156e+03 4.318425169359015880e-01 9.563216314619028130e-03
3.674251482451905758e+03 4.544885141221425284e-01 8.353974555037082389e-03
3.677925733934358959e+03 4.754956279044839085e-01 6.590660038199407100e-03
3.681603659668294313e+03 4.937420536900150037e-01 5.701747549873330094e-03
3.685285263327964003e+03 5.090622589192230762e-01 5.586820650520510877e-03
3.688970548591293209e+03 5.213777238747450138e-01 6.082041920142292057e-03
3.692659519139885560e+03 5.325177573697184030e-01 6.235426963065253056e-03
3.696352178659026777e+03 5.396447990205853751e-01 6.244794774519401431e-03
3.700048530837686940e+03 5.389193710989466091e-01 6.043526438809288838e-03
3.703748579368525952e+03 5.351139594463977245e-01 5.521295298342471236e-03
3.707452327947895355e+03 5.318147848686459733e-01 5.438076711575317787e-03
3.711159780275844696e+03 5.267460692436782832e-01 5.517870314270571612e-03
3.714870940056121526e+03 5.194646075580869882e-01 5.626050086281914400e-03
3.718585810996179134e+03 5.149640981581776744e-01 5.904686947581912378e-03
3.722304396807176545e+03 5.104524917064376943e-01 6.511258503399508513e-03
3.726026701203984885e+03 5.071880592866071513e-01 6.600720644684187136e-03
3.729752727905190113e+03 5.017229210000271333e-01 6.136661290394996096e-03
3.733482480633096657e+03 5.046305332425414791e-01 6.264599388819171340e-03
3.737215963113731050e+03 5.094743370096486146e-01 6.361519016613637056e-03
3.740953179076846027e+03 5.163427421300540443e-01 6.542178430464236361e-03
3.744694132255923705e+03 5.258314121873863822e-01 7.205975859801447801e-03
3.748438826388181042e+03 5.358424076495933441e-01 7.583452534388769421e-03
3.752187265214570289e+03 5.481684383877214461e-01 6.616946513818939939e-03
3.755939452479786269e+03 5.565556380560858774e-01 6.199724914441505363e-03
3.759695391932267285e+03 5.630767202651290049e-01 5.545845870033406198e-03
3.763455087324201031e+03 5.639355041764277932e-01 4.721138908865925819e-03
3.767218542411526414e+03 5.547902991409867646e-01 5.145314199957339539e-03
3.770985760953939007e+03 5.417999054454982755e-01 4.706756574088766416e-03
3.774756746714894234e+03 5.279561701222351688e-01 4.942159269118175449e-03
3.778531503461610555e+03 5.108180233889662025e-01 4.672294347034695698e-03
3.782310034965073100e+03 4.902266821357028626e-01 3.242017371758349181e-03
3.786092345000039586e+03 4.720589605482318207e-01 2.937911052864256023e-03
3.789878437345040766e+03 4.570731955733901009e-01 2.720378138606041434e-03
3.793668315782387253e+03 4.429371171751567693e-01 2.883903701497769322e-03
3.797461984098170888e+03 4.315381164037841999e-01 2.882122693543450950e-03
3.801259446082270188e+03 4.214188189913806171e-01 2.817377778014436111e-03
3.805060705528353537e+03 4.173144169524861669e-01 2.962689753087944123e-03
3.808865766233883278e+03 4.139400092741474246e-01 3.184740102898792058e-03
3.812674632000118436e+03 4.136113287792688165e-01 2.736334769167356098e-03
3.816487306632119726e+03 4.147401584793641294e-01 2.732200441575982543e-03
3.820303793938753188e+03 4.170856358020416654e-01 2.741744993350574491e-03
3.824124097732693372e+03 4.211414162883769796e-01 3.486052680198602639e-03
3.827948221830427428e+03 4.305637076803696117e-01 4.766126918068768446e-03
3.831776170052258749e+03 4.415197755960073023e-01 5.603188109836706836e-03
3.835607946222312421e+03 4.527193239620180831e-01 5.418044358003168241e-03
3.839443554168536139e+03 4.596104030470998247e-01 5.626469108883522252e-03
3.843282997722705659e+03 4.682564537144403571e-01 5.617384611909074198e-03
3.847126280720429804e+03 4.762076097296037980e-01 6.903581865216126823e-03
3.850973407001151372e+03 4.861297860626321299e-01 7.932842235171403897e-03
3.854824380408153957e+03 5.031375129105530863e-01 7.996957107797998676e-03
3.858679204788563311e+03 5.251987258477655018e-01 7.433496276017849576e-03
3.862537883993353262e+03 5.568216758380394316e-01 7.501454157932392272e-03
3.866400421877347981e+03 5.941718308900413303e-01 7.963255698284706779e-03
3.870266822299226533e+03 6.373761692619017705e-01 9.093607504705600308e-03
3.874137089121526969e+03 6.821572071062534937e-01 9.246153186994222201e-03
3.878011226210649966e+03 7.305768850585058205e-01 8.145631657902774325e-03
3.881889237436861549e+03 7.776683517792934985e-01 6.732925394114535993e-03
3.885771126674299921e+03 8.208421094783791006e-01 6.175716324599125721e-03
3.889656897800975457e+03 8.581207567741737652e-01 6.119736381138511129e-03
3.893546554698777527e+03 8.857120505824680468e-01 7.424872404106979545e-03
3.897440101253477678e+03 9.091388751456167538e-01 4.923977728162829900e-03
3.901337541354732366e+03 9.366251437344511599e-01 5.788310626179921786e-03
3.905238878896088409e+03 9.604030248248555113e-01 6.402833671323114421e-03
3.909144117774985716e+03 9.799461080847484684e-01 6.400919338127083330e-03
3.913053261892762293e+03 9.971720962477741423e-01 6.566825845318989378e-03
3.916966315154656058e+03 1.016646635780761310e+00 6.165954437236277966e-03
3.920883281469812118e+03 1.032387720901269290e+00 6.565847119933183700e-03
3.924804164751283224e+03 1.049355209769907260e+00 6.429037637565956052e-03
3.928728968916035683e+03 1.066488677799168228e+00 6.317083742378341339e-03
3.932657697884953450e+03 1.084267375019401181e+00 6.062712732570288768e-03
3.936590355582839493e+03 1.104428585557329479e+00 6.172592983854235243e-03
3.940526945938423523e+03 1.124019098425643737e+00 6.148661722248404890e-03
3.944467472884363360e+03 1.144862127789338269e+00 6.061905889566592508e-03
3.948411940357249023e+03 1.164495387907471979e+00 6.085686600351846234e-03
3.952360352297607733e+03 1.187427350994672670e+00 6.978559497291259885e-03
3.956312712649906643e+03 1.208546817433763021e+00 7.682451767822784383e-03
3.960269025362557841e+03 1.224092341953976204e+00 6.679163604921891338e-03
3.964229294387921527e+03 1.229542439207846893e+00 7.441185592098153827e-03
3.968193523682310570e+03 1.228928698051617197e+00 6.815836534076131874e-03
3.972161717205994591e+03 1.225983807743774356e+00 7.048933060698315579e-03
3.976133878923201792e+03 1.224488588263066946e+00 7.109596825766821386e-03
3.980110012802126221e+03 1.222267783381123296e+00 7.149506888363813852e-03
3.984090122814929600e+03 1.214927894643547335e+00 6.909500049524979447e-03
3.988074212937745870e+03 1.206627287070213939e+00 7.236873180509684027e-03
3.992062287150684824e+03 1.194867076514699589e+00 7.247768133296620188e-03
3.996054349437837118e+03 1.179624818556870958e+00 7.234419738249469982e-03
4.000050403787276082e+03 1.163451929712600696e+00 7.030163059136153303e-03
4.004050454191064546e+03 1.143949900621662241e+00 7.012086021764555276e-03
4.008054504645257111e+03 1.125084233699539249e+00 6.510370260148006134e-03
4.012062559149903791e+03 1.101547589188435206e+00 6.536357805563584172e-03
4.016074621709055009e+03 1.072706192354438759e+00 7.004167015561138694e-03
4.020090696330765240e+03 1.042993235059168411e+00 5.839753702938976603e-03
4.024110787027097558e+03 1.012461170954954692e+00 4.358464369823888789e-03
4.028134897814125907e+03 9.891465992778132321e-01 6.041456791208555874e-03
4.032163032711941469e+03 9.647766318892674331e-01 5.078839346011038321e-03
4.036195195744654484e+03 9.385554133610882754e-01 5.044399983747996884e-03
4.040231390940400615e+03 9.121557801871646998e-01 5.354951529987044857e-03
4.044271622331342314e+03 8.876388692863943497e-01 6.263772201234513344e-03
4.048315893953675186e+03 8.627171530356888551e-01 6.846761624961008111e-03
4.052364209847629809e+03 8.460388851766322826e-01 6.504253988616268481e-03
4.056416574057479011e+03 8.362830527037518058e-01 8.927836287453661326e-03
4.060472990631537868e+03 8.265494923588663223e-01 1.028040438726624158e-02
4.064533463622170530e+03 8.168744826917707647e-01 9.881022910039585078e-03
4.068597997085794304e+03 8.029579455849452652e-01 1.025760319335625170e-02
4.072666595082881486e+03 7.904229765689153586e-01 1.091815259513247843e-02
4.076739261677965715e+03 7.808240759871192260e-01 1.103362151961308039e-02
4.080816000939644709e+03 7.731563082987286117e-01 1.097323222618137167e-02
4.084896816940585722e+03 7.677235907769204282e-01 1.104953945077220834e-02
4.088981713757527814e+03 7.627653807315460943e-01 1.060044360546260993e-02
4.093070695471286854e+03 7.590612300884393981e-01 9.477066997892292372e-03
4.097163766166759160e+03 7.623291709070935118e-01 9.684374961790778030e-03
4.101260929932927866e+03 7.683300060629246753e-01 9.783695086814647723e-03
4.105362190862862008e+03 7.827452756630214337e-01 9.292880329992729213e-03
4.109467553053726078e+03 7.935994832670622001e-01 8.520029587121046369e-03
4.113577020606780934e+03 8.025906733502365942e-01 7.831022041362444702e-03
4.117690597627389252e+03 8.079287921202407130e-01 7.924083304727450039e-03
4.121808288225018259e+03 8.064393660284598919e-01 7.665169277832457884e-03
4.125930096513244280e+03 8.012477089795496665e-01 6.024489517412468832e-03
4.130056026609759101e+03 7.963927702269515407e-01 7.201888670734779389e-03
4.134186082636369974e+03 7.897636726460596224e-01 7.065342994651097226e-03
4.138320268719007800e+03 7.767851342363386591e-01 5.970911545064396149e-03
4.142458588987728035e+03 7.575880619643269309e-01 6.465930737686778791e-03
4.146601047576717065e+03 7.315163146434330299e-01 7.981153844389752075e-03
4.150747648624294925e+03 7.062761442273446377e-01 8.629650854524169301e-03
4.154898396272920763e+03 6.863835419979609220e-01 8.787207160129335143e-03
4.159053294669195566e+03 6.731292928843877199e-01 8.379509638661191903e-03
4.163212347963865795e+03 6.646768681055879036e-01 7.644252143889275312e-03
4.167375560311830668e+03 6.648950087710351342e-01 8.817840891061542660e-03
4.171542935872143971e+03 6.702713962135401493e-01 1.040863206699319150e-02
4.175714478808017702e+03 6.789756663059215436e-01 1.028594368812770117e-02
4.179890193286827525e+03 6.883667935162799401e-01 9.627410151713257716e-03
4.184070083480115500e+03 7.006249686825635203e-01 6.719867748011955355e-03
4.188254153563597356e+03 7.068648705924435172e-01 6.511694218597219481e-03
4.192442407717161586e+03 7.084040738442340945e-01 7.568181810269865306e-03
4.196634850124880359e+03 7.048971812466323650e-01 7.833967481470032954e-03
4.200831484975006788e+03 7.018767286828386798e-01 5.221667560057764203e-03
4.205032316459983122e+03 7.028052265353078587e-01 4.458576665269872730e-03
4.209237348776444378e+03 7.064473276348313124e-01 4.951771394322846721e-03
4.213446586125221984e+03 7.132193015064931529e-01 5.711120624214678296e-03
4.217660032711349231e+03 7.194428575378156721e-01 5.428103004467220959e-03
4.221877692744061278e+03 7.250658466931680923e-01 4.377659202649091842e-03
4.226099570436806971e+03 7.278127609628722849e-01 4.424508455296183307e-03
4.230325670007245208e+03 7.288603582231280020e-01 4.726144185076852113e-03
4.234555995677254032e+03 7.275032517460628956e-01 4.934122511957786048e-03
4.238790551672932452e+03 7.270634358639417316e-01 5.175497609574063358e-03
4.243029342224606808e+03 7.238985742875425622e-01 5.549590810199845660e-03
4.247272371566832589e+03 7.198574879351841149e-01 5.598566573791406882e-03
4.251519643938400804e+03 7.144257516763077298e-01 5.455173700965215353e-03
4.255771163582340705e+03 7.057057131427043606e-01 6.024160554814077251e-03
4.260026934745924336e+03 6.990143188735279400e-01 6.492574700574461379e-03
4.264286961680671993e+03 6.962026175013339424e-01 6.632222428262384006e-03
4.268551248642354039e+03 6.950800296253806243e-01 6.775101045543727163e-03
4.272819799890998183e+03 6.963552411495942396e-01 6.681621156333408459e-03
4.277092619690890388e+03 7.010887797847674685e-01 5.393472338506176064e-03
4.281369712310583054e+03 7.158334787996587512e-01 5.676024760541505641e-03
4.285651082022895025e+03 7.362642271969969121e-01 6.728320209740732902e-03
4.289936733104918858e+03 7.622898176077419485e-01 7.913156937836361704e-03
4.294226669838025373e+03 7.893186345486215005e-01 6.774113086160312401e-03
4.298520896507864563e+03 8.153021767012890164e-01 5.470849177896253135e-03
4.302819417404373780e+03 8.382232683815025176e-01 4.852024782668809023e-03
4.307122236821779552e+03 8.567617894006664958e-01 4.800685642074172324e-03
4.311429359058603040e+03 8.683413371183527074e-01 4.782746654057476628e-03
4.315740788417662770e+03 8.735787245139552404e-01 4.015353169633133212e-03
4.320056529206081905e+03 8.782154246222333427e-01 3.990717970041665445e-03
4.324376585735290064e+03 8.781012620087094156e-01 4.048229338415508700e-03
4.328700962321026054e+03 8.739114360988604613e-01 4.155525139748993818e-03
4.333029663283348782e+03 8.690161786047501113e-01 4.180217898592544085e-03
4.337362692946633615e+03 8.607246396119854204e-01 4.663583069417658045e-03
4.341700055639581478e+03 8.504763624944864375e-01 5.540430216679615924e-03
4.346041755695222491e+03 8.355047063680376418e-01 4.875153562268141026e-03
4.350387797450919606e+03 8.144233931266595672e-01 4.355667321792035425e-03
4.354738185248371337e+03 7.854237574581989234e-01 5.619686841523177136e-03
4.359092923433621763e+03 7.532490960225506349e-01 5.883000179299770552e-03
4.363452016357056891e+03 7.235041618959522358e-01 5.945160456433894701e-03
4.367815468373414660e+03 6.940537139562380498e-01 5.992244511721615471e-03
4.372183283841789489e+03 6.677406862043531177e-01 6.080931844521486086e-03
4.376555467125633186e+03 6.446133597563875606e-01 5.578204451675435570e-03
4.380932022592760404e+03 6.260686788620384302e-01 5.964550545875686553e-03
4.385312954615354101e+03 6.117489344871429591e-01 6.376517282208246304e-03
4.389698267569970994e+03 6.030516902212521568e-01 6.029775009842523736e-03
4.394087965837542470e+03 5.954332157761956790e-01 5.764884725549527210e-03
4.398482053803381859e+03 5.914608813957064060e-01 5.680302926218783015e-03
4.402880535857186260e+03 5.918497939911921968e-01 5.410523776383561155e-03
4.407283416393044718e+03 5.920857711180463889e-01 5.453788678560168336e-03
4.411690699809440048e+03 5.940652419073430002e-01 4.447719029430266535e-03
4.416102390509250654e+03 5.991974707638985098e-01 3.882927128623391445e-03
4.420518492899761441e+03 6.099820942370881571e-01 5.101471799529610704e-03
4.424939011392662906e+03 6.245442871796493822e-01 6.108884186205473105e-03
4.429363950404056595e+03 6.378077009260073593e-01 5.524215460325707962e-03
4.433793314354462382e+03 6.500420185066880796e-01 5.190757033618743910e-03
4.438227107668818462e+03 6.599943597080983881e-01 6.537822091299944592e-03
4.442665334776488635e+03 6.723042597780183316e-01 7.465065282563954768e-03
4.447108000111265937e+03 6.880828996352225113e-01 7.626532290100222593e-03
