# starting wavelength: 3426.170
# ending wavelength: 7250.730
# wav flux eflux
3.429395171167419903e+03 1.128448381218976615e-01 2.872080046697836342e-02
3.432824566338588284e+03 1.066158524404433733e-01 2.581810459852910619e-02
3.436257390904928343e+03 1.078009494750951508e-01 2.423196328816475467e-02
3.439693648295834464e+03 1.075341884749378835e-01 2.036477243783213834e-02
3.443133341944131189e+03 1.056959878554153270e-01 1.698619390738065338e-02
3.446576475286076402e+03 1.012035511791782166e-01 1.379291893856625199e-02
3.450023051761363604e+03 9.702906445230133348e-02 1.127294579112444843e-02
3.453473074813126004e+03 9.299829289035636826e-02 9.566502908916604472e-03
3.456926547887940615e+03 8.914168614818400449e-02 8.292320357637229453e-03
3.460383474435829612e+03 8.468766697281950029e-02 7.433146363825092300e-03
3.463843857910266706e+03 7.921891161959744576e-02 7.008008417828089434e-03
3.467307701768178049e+03 7.482815129589809322e-02 6.503568475446900969e-03
3.470775009469947236e+03 7.273027462863312920e-02 6.091134293028999287e-03
3.474245784479418489e+03 6.959495938356097255e-02 5.863748663470011793e-03
3.477720030263898934e+03 6.777281528352339934e-02 5.671820699472918982e-03
3.481197750294164052e+03 6.901145569860439588e-02 5.483307264423698847e-03
3.484678948044459503e+03 7.109259138860235527e-02 5.354364945193823729e-03
3.488163626992504760e+03 7.305555267092732341e-02 5.305957529789346108e-03
3.491651790619498570e+03 7.774224961422898650e-02 5.379942743483878166e-03
3.495143442410119405e+03 8.332661037897086398e-02 5.479701677815564109e-03
3.498638585852530468e+03 9.035312778406490164e-02 5.670560312996325743e-03
3.502137224438384237e+03 9.783416718766721476e-02 5.531860158602078942e-03
3.505639361662823831e+03 1.059933275065192970e-01 5.904766320221193840e-03
3.509145001024487556e+03 1.155540634797287136e-01 6.136465246145379922e-03
3.512654146025513455e+03 1.266007767338285517e-01 6.457003117752455577e-03
3.516166800171540217e+03 1.389727273727682788e-01 6.887899646909914804e-03
3.519682966971712631e+03 1.552245916847614371e-01 6.881964103951435097e-03
3.523202649938685681e+03 1.719906450986680435e-01 6.676897386709725220e-03
3.526725852588625457e+03 1.883126455786553743e-01 6.500904689238128434e-03
3.530252578441215064e+03 2.058479255014274145e-01 6.126505873207499335e-03
3.533782831019657806e+03 2.276383649730856218e-01 7.422708032414628357e-03
3.537316613850678550e+03 2.497936569838977439e-01 8.750205792962558946e-03
3.540853930464530094e+03 2.699323206764246419e-01 8.953871204776619672e-03
3.544394784394995895e+03 2.875338217619685111e-01 9.105409655556073040e-03
3.547939179179392340e+03 3.058615719431986291e-01 8.788839238753731742e-03
3.551487118358572843e+03 3.226543445205886096e-01 8.014540290155724653e-03
3.555038605476932389e+03 3.308610243278288787e-01 8.297333796831110261e-03
3.558593644082410719e+03 3.380950655426123719e-01 8.283473172536108195e-03
3.562152237726494150e+03 3.445584922116892712e-01 8.269018135604372724e-03
3.565714389964221937e+03 3.466312530153619065e-01 8.444152680625427454e-03
3.569280104354187188e+03 3.473882201633970990e-01 8.189678288093025713e-03
3.572849384458542772e+03 3.412452996200384114e-01 8.167211257072721359e-03
3.576422233843002232e+03 3.307926801333008759e-01 8.315153922848924489e-03
3.579998656076846601e+03 3.131726901458125045e-01 8.610727711609625704e-03
3.583578654732924406e+03 2.953679822544406641e-01 8.503242039110877129e-03
3.587162233387658489e+03 2.745966766947544047e-01 8.381416915568172532e-03
3.590749395621047370e+03 2.492145402147629141e-01 7.797983907452706379e-03
3.594340145016669794e+03 2.261653351487833419e-01 7.290737561247204353e-03
3.597934485161687462e+03 2.044644635561317647e-01 7.711486248542958818e-03
3.601532419646850485e+03 1.888817735228135453e-01 7.596320336783731267e-03
3.605133952066498296e+03 1.773862829598620849e-01 7.879017526074836783e-03
3.608739086018566013e+03 1.686150382288413851e-01 8.018794667970509729e-03
3.612347825104585809e+03 1.654010436356665170e-01 7.983550080855619790e-03
3.615960172929691907e+03 1.640444163416750478e-01 7.866881840880033186e-03
3.619576133102622407e+03 1.669993422051949949e-01 8.167837185170690253e-03
3.623195709235726554e+03 1.750468756784742674e-01 8.602428926551976274e-03
3.626818904944963379e+03 1.847602252890049035e-01 8.731560935511598065e-03
3.630445723849909427e+03 2.009390385055732087e-01 9.647045660193554265e-03
3.634076169573760581e+03 2.173229224751901945e-01 9.713642063710484567e-03
3.637710245743335690e+03 2.365494843181249751e-01 9.625408231629552572e-03
3.641347955989080219e+03 2.568636420688055755e-01 7.607570012409391354e-03
3.644989303945070333e+03 2.760433238831668801e-01 6.543800944673066125e-03
3.648634293249016537e+03 2.911167229489768360e-01 6.341039493534389275e-03
3.652282927542266862e+03 3.042287808547958217e-01 6.362234746659133425e-03
3.655935210469810499e+03 3.142739431090648683e-01 6.138185119476675944e-03
3.659591145680281443e+03 3.140699972756065272e-01 5.383908585472337027e-03
3.663250736825963031e+03 3.127102782034455464e-01 6.376483335640184547e-03
3.666913987562790226e+03 3.124566459725292011e-01 6.602439946594779868e-03
3.670580901550354156e+03 3.093652231951405929e-01 7.189212477616310597e-03
3.674251482451905758e+03 3.053980718275052797e-01 6.334556485746566969e-03
3.677925733934358959e+03 3.040651290622897740e-01 5.824810631493123128e-03
3.681603659668294313e+03 3.055496132293203382e-01 5.443560492970373789e-03
3.685285263327964003e+03 3.112380125600592851e-01 5.689932716001540151e-03
3.688970548591293209e+03 3.191050169991922481e-01 5.687156701043953426e-03
3.692659519139885560e+03 3.273828776337669444e-01 5.432134829880968553e-03
3.696352178659026777e+03 3.397408525338443952e-01 5.904171388163709233e-03
3.700048530837686940e+03 3.584165610834844640e-01 6.751486091356068663e-03
3.703748579368525952e+03 3.741479033401185483e-01 8.178269879583456581e-03
3.707452327947895355e+03 3.883764071159117592e-01 8.308173501525439528e-03
3.711159780275844696e+03 3.958742398445194710e-01 7.890118336687335782e-03
3.714870940056121526e+03 4.005864908078289321e-01 6.573330793910934014e-03
3.718585810996179134e+03 3.982978571137080204e-01 5.815032274246932815e-03
3.722304396807176545e+03 3.880220713671468369e-01 5.982290171358940409e-03
3.726026701203984885e+03 3.707417790006001246e-01 5.882040845898101403e-03
3.729752727905190113e+03 3.435108099919927938e-01 5.920857576150257567e-03
3.733482480633096657e+03 3.082113703723287634e-01 4.996736508737816516e-03
3.737215963113731050e+03 2.698249908688408194e-01 4.922300431791142017e-03
3.740953179076846027e+03 2.294536288130559765e-01 5.583130588819330484e-03
3.744694132255923705e+03 1.872176607876469279e-01 5.883981489559059891e-03
3.748438826388181042e+03 1.442458652717060752e-01 6.291411023037132323e-03
3.752187265214570289e+03 1.069067431032220822e-01 5.494108197400864035e-03
3.755939452479786269e+03 7.973122415637555471e-02 5.548841920414641742e-03
3.759695391932267285e+03 5.645221648386083979e-02 5.435818525910461260e-03
3.763455087324201031e+03 4.321038098654945980e-02 5.669412418904800147e-03
3.767218542411526414e+03 3.437264330338350715e-02 6.436769888679306530e-03
3.770985760953939007e+03 3.753426570280624097e-02 7.324412807312503937e-03
3.774756746714894234e+03 4.503361911149668384e-02 7.907737021997780086e-03
3.778531503461610555e+03 5.798763321240563845e-02 8.345053477918655885e-03
3.782310034965073100e+03 7.795321043232880664e-02 9.059843680784303646e-03
3.786092345000039586e+03 9.614861943364344521e-02 8.288814723615801211e-03
3.789878437345040766e+03 1.072262754165507204e-01 7.135860723222561645e-03
3.793668315782387253e+03 1.087653834804891695e-01 6.920197880730053451e-03
3.797461984098170888e+03 1.021258855793383130e-01 7.102983673201389812e-03
3.801259446082270188e+03 9.020569036047454414e-02 7.542555606430049672e-03
3.805060705528353537e+03 6.668248395355008684e-02 8.989420598305139509e-03
3.808865766233883278e+03 4.119391826521699718e-02 1.078535999550264517e-02
3.812674632000118436e+03 2.073737214926017758e-02 1.067777527367215658e-02
3.816487306632119726e+03 3.464528175850342673e-03 9.963124234009492625e-03
3.820303793938753188e+03 -5.802416106852323341e-03 8.738129086054377895e-03
3.824124097732693372e+03 -2.237242588089521922e-03 9.466679751505771220e-03
3.827948221830427428e+03 8.063496803577180350e-03 9.812325003187917158e-03
3.831776170052258749e+03 2.973394774111809413e-02 9.735834514704793177e-03
3.835607946222312421e+03 6.043763713549470118e-02 7.650784872677335660e-03
3.839443554168536139e+03 9.576713880070800156e-02 6.322217515577160593e-03
3.843282997722705659e+03 1.279490137950043960e-01 6.251805981632524434e-03
3.847126280720429804e+03 1.659661199595625913e-01 5.378270729378099684e-03
3.850973407001151372e+03 1.981658222238598666e-01 5.379626388910339028e-03
3.854824380408153957e+03 2.257065957442197512e-01 5.270988112444943870e-03
3.858679204788563311e+03 2.510836831637261457e-01 5.252639604038365252e-03
3.862537883993353262e+03 2.714992731180921881e-01 5.338300997461724144e-03
3.866400421877347981e+03 2.854128193613860720e-01 5.650125149184925463e-03
3.870266822299226533e+03 2.965144110387057941e-01 6.413067021793725404e-03
3.874137089121526969e+03 3.061118854653911980e-01 6.953755444903682303e-03
3.878011226210649966e+03 3.134049977067661086e-01 7.021732408717864388e-03
3.881889237436861549e+03 3.209007302682659879e-01 6.016958333102233498e-03
3.885771126674299921e+03 3.341123323693953595e-01 5.816331264912115787e-03
3.889656897800975457e+03 3.485662030039673454e-01 4.895846706917896321e-03
3.893546554698777527e+03 3.683650622498170213e-01 4.684230018333897932e-03
3.897440101253477678e+03 3.986654946747576478e-01 4.124651532903225032e-03
3.901337541354732366e+03 4.296507898927154345e-01 3.887217191055492276e-03
3.905238878896088409e+03 4.653574769715637105e-01 3.627582983927536524e-03
3.909144117774985716e+03 5.033458754711840344e-01 3.877734738844967714e-03
3.913053261892762293e+03 5.430555485246217895e-01 3.800286242070194994e-03
3.916966315154656058e+03 5.792182145303995666e-01 4.181577540736780563e-03
3.920883281469812118e+03 6.168187260526851734e-01 4.400233601638372724e-03
3.924804164751283224e+03 6.541016002882709124e-01 4.093879819403674174e-03
3.928728968916035683e+03 6.922055412686579645e-01 4.129438645471373431e-03
3.932657697884953450e+03 7.297217556968058627e-01 4.471164133540200293e-03
3.936590355582839493e+03 7.652166342322622716e-01 4.228329182458277942e-03
3.940526945938423523e+03 7.935047524373930461e-01 4.226109437303785660e-03
3.944467472884363360e+03 8.169394170438178948e-01 4.656069978390795991e-03
3.948411940357249023e+03 8.335664454245352850e-01 4.795169913890095711e-03
3.952360352297607733e+03 8.403762894527830873e-01 4.647513597731882905e-03
3.956312712649906643e+03 8.397532891230108376e-01 4.485133168100661517e-03
3.960269025362557841e+03 8.319367004072282246e-01 4.468098628865563998e-03
3.964229294387921527e+03 8.157373633877046393e-01 5.548609637867192579e-03
3.968193523682310570e+03 7.943492642338513265e-01 6.458299710902387115e-03
3.972161717205994591e+03 7.757429390720004259e-01 6.120597764077019727e-03
3.976133878923201792e+03 7.521939366556104067e-01 5.622413545860221323e-03
3.980110012802126221e+03 7.387364502326195792e-01 4.804443946007970132e-03
3.984090122814929600e+03 7.356504981553336764e-01 6.296516476746307628e-03
3.988074212937745870e+03 7.384743750639706228e-01 6.974329363923037137e-03
3.992062287150684824e+03 7.432784326981933809e-01 6.960923366589055056e-03
3.996054349437837118e+03 7.542583653611011352e-01 6.714822356216704202e-03
4.000050403787276082e+03 7.697599738304398143e-01 6.602127608971808913e-03
4.004050454191064546e+03 7.903734077119805024e-01 6.820237940980464382e-03
4.008054504645257111e+03 8.164439704432938649e-01 7.084884320097724862e-03
4.012062559149903791e+03 8.465614689246820923e-01 7.172073717454856973e-03
4.016074621709055009e+03 8.814120663055282634e-01 6.413146968638202411e-03
4.020090696330765240e+03 9.246751302895948044e-01 6.481102222651516018e-03
4.024110787027097558e+03 9.719776760522601533e-01 6.956139073090265683e-03
4.028134897814125907e+03 1.021253077390104291e+00 7.934788311299454874e-03
4.032163032711941469e+03 1.071317576050407006e+00 8.304948549789629986e-03
4.036195195744654484e+03 1.115196308384720725e+00 7.318052252173432547e-03
4.040231390940400615e+03 1.151340898630215159e+00 6.406828921255798906e-03
4.044271622331342314e+03 1.176925387764036213e+00 5.761960398511658567e-03
4.048315893953675186e+03 1.189747967875019130e+00 4.111951841723913634e-03
4.052364209847629809e+03 1.179364404992335968e+00 4.580173924209513490e-03
4.056416574057479011e+03 1.161383157923121079e+00 4.301508918608034152e-03
4.060472990631537868e+03 1.134592642292250542e+00 4.516667837991334561e-03
4.064533463622170530e+03 1.094244914836207450e+00 4.900375853679970681e-03
4.068597997085794304e+03 1.044199107743696286e+00 5.869953708883419649e-03
4.072666595082881486e+03 9.922054426948289096e-01 6.042724288601478838e-03
4.076739261677965715e+03 9.389240566774701424e-01 5.746141264181813327e-03
4.080816000939644709e+03 8.879388927578734103e-01 5.575461218002335240e-03
4.084896816940585722e+03 8.399522667902412643e-01 5.578855903142136349e-03
4.088981713757527814e+03 7.964402315189893500e-01 5.380012178502454993e-03
4.093070695471286854e+03 7.608270073537699574e-01 4.994407764215755101e-03
4.097163766166759160e+03 7.358490991712908214e-01 6.008665231702696799e-03
4.101260929932927866e+03 7.168580056839599646e-01 7.001509438162214355e-03
4.105362190862862008e+03 7.022767000944406535e-01 6.787533114945479458e-03
4.109467553053726078e+03 6.911692072318048607e-01 6.423484495377332175e-03
4.113577020606780934e+03 6.785789551239668205e-01 6.253653775121950642e-03
4.117690597627389252e+03 6.675461374985848240e-01 5.825580962215217568e-03
4.121808288225018259e+03 6.536942329129439289e-01 5.202556568571340724e-03
4.125930096513244280e+03 6.360726333205789507e-01 5.881281084134419405e-03
4.130056026609759101e+03 6.136464995533742472e-01 6.352148707677477552e-03
4.134186082636369974e+03 5.972278388449323572e-01 7.223482617970134086e-03
4.138320268719007800e+03 5.886900143700716237e-01 7.112885319923719675e-03
4.142458588987728035e+03 5.829402341430736101e-01 6.042236424760541284e-03
4.146601047576717065e+03 5.833358195002960045e-01 5.684589294603053199e-03
4.150747648624294925e+03 5.912766187662467088e-01 6.366200473857781816e-03
4.154898396272920763e+03 6.046658362375036955e-01 6.437885676827493318e-03
4.159053294669195566e+03 6.202463685140752192e-01 5.368429505808017949e-03
4.163212347963865795e+03 6.358667758764873223e-01 4.950545558408388745e-03
4.167375560311830668e+03 6.505550329821352395e-01 4.932975458017329826e-03
4.171542935872143971e+03 6.648709415716322901e-01 4.934213372649149179e-03
4.175714478808017702e+03 6.773963712013345573e-01 4.852449580043455106e-03
4.179890193286827525e+03 6.843602456553474767e-01 4.832424962512590558e-03
4.184070083480115500e+03 6.852365166381048089e-01 4.549560539518588027e-03
4.188254153563597356e+03 6.821581858315131086e-01 4.546699561521634278e-03
4.192442407717161586e+03 6.745752672604652389e-01 4.587051416743492989e-03
4.196634850124880359e+03 6.647442230672064856e-01 3.774011998893950486e-03
4.200831484975006788e+03 6.482540323323751075e-01 4.268263096844755744e-03
4.205032316459983122e+03 6.286459027832711488e-01 4.819165992223978581e-03
4.209237348776444378e+03 6.036707990585348238e-01 5.103725687853425189e-03
4.213446586125221984e+03 5.792193800304757945e-01 3.797924468492653357e-03
4.217660032711349231e+03 5.584883967774914026e-01 3.431095463793303133e-03
4.221877692744061278e+03 5.402065713603195762e-01 3.809296783133552140e-03
4.226099570436806971e+03 5.256252687700817550e-01 4.454038317851662966e-03
4.230325670007245208e+03 5.121964170667925309e-01 4.165507863810496807e-03
4.234555995677254032e+03 5.022821921230665732e-01 3.800091173515595788e-03
4.238790551672932452e+03 4.942788648922230021e-01 3.910166217248882588e-03
4.243029342224606808e+03 4.890603677000605054e-01 3.951627217386409312e-03
4.247272371566832589e+03 4.876015746029066511e-01 3.939453468132249857e-03
4.251519643938400804e+03 4.890098266895516743e-01 3.938050019907466531e-03
4.255771163582340705e+03 4.918291165839943080e-01 3.937858087349812956e-03
4.260026934745924336e+03 4.966283001507049155e-01 3.752578751372893061e-03
4.264286961680671993e+03 5.050193691096341864e-01 4.075122382539675750e-03
4.268551248642354039e+03 5.151182390056456839e-01 4.465083366496301956e-03
4.272819799890998183e+03 5.258353613787544178e-01 4.203377640852568389e-03
4.277092619690890388e+03 5.349902835834170478e-01 3.302988864846798100e-03
4.281369712310583054e+03 5.400196147932408985e-01 3.335619505333359529e-03
4.285651082022895025e+03 5.424463278390044829e-01 3.407694391691515768e-03
4.289936733104918858e+03 5.404567564006731439e-01 2.946629548754541462e-03
4.294226669838025373e+03 5.358747863933729372e-01 2.700565846022234730e-03
4.298520896507864563e+03 5.301078225564898050e-01 2.845063987922374221e-03
4.302819417404373780e+03 5.230551697136054390e-01 2.929271718497586299e-03
4.307122236821779552e+03 5.127260014106629349e-01 2.601435714262695029e-03
4.311429359058603040e+03 4.972524801024196806e-01 3.483898519144425394e-03
4.315740788417662770e+03 4.821255955507429691e-01 3.862099133762366548e-03
4.320056529206081905e+03 4.681091987161466461e-01 3.931963408420678478e-03
4.324376585735290064e+03 4.569291707124285562e-01 3.738350771741146342e-03
4.328700962321026054e+03 4.504969293623818927e-01 3.900427541654630150e-03
4.333029663283348782e+03 4.456405671197666840e-01 3.954591433296389576e-03
4.337362692946633615e+03 4.422095867853744755e-01 3.896871829196243888e-03
4.341700055639581478e+03 4.421816855108804956e-01 4.460998851089328227e-03
4.346041755695222491e+03 4.449642935997965010e-01 4.379193202887070833e-03
4.350387797450919606e+03 4.481320106980045126e-01 3.784806769964882151e-03
4.354738185248371337e+03 4.519360289013846232e-01 3.408058253689032722e-03
4.359092923433621763e+03 4.555314672526815101e-01 3.609434732709932564e-03
4.363452016357056891e+03 4.582792649400009299e-01 4.216726221726966282e-03
4.367815468373414660e+03 4.631595912654112857e-01 3.850392654445383093e-03
4.372183283841789489e+03 4.702812572293570414e-01 3.494938763489710640e-03
4.376555467125633186e+03 4.779648457718785881e-01 2.890811321514996993e-03
4.380932022592760404e+03 4.898870499773960163e-01 3.105575212520915972e-03
4.385312954615354101e+03 5.043935097784371102e-01 2.689980058701990119e-03
4.389698267569970994e+03 5.196698530397317883e-01 2.346481843683615679e-03
4.394087965837542470e+03 5.346225808022360138e-01 2.322385979182269716e-03
4.398482053803381859e+03 5.499502107706474296e-01 2.260642285872238848e-03
4.402880535857186260e+03 5.637390218585562884e-01 2.283603441268020322e-03
4.407283416393044718e+03 5.758611761699967690e-01 2.327125611831255998e-03
4.411690699809440048e+03 5.858209158890888002e-01 2.260712306106367909e-03
4.416102390509250654e+03 5.923857629754097909e-01 2.298614924612005055e-03
4.420518492899761441e+03 5.960890427522731461e-01 2.563225541166697964e-03
4.424939011392662906e+03 5.971576302660577262e-01 2.238574307813999669e-03
4.429363950404056595e+03 5.940125802143986222e-01 1.844924331947495706e-03
4.433793314354462382e+03 5.864327309450103609e-01 1.879091600158569377e-03
4.438227107668818462e+03 5.749190206431453731e-01 2.869244153199535484e-03
4.442665334776488635e+03 5.613897909681010434e-01 3.471591702291638906e-03
4.447108000111265937e+03 5.473965703660881310e-01 2.552434169265385255e-03
4.451555108111379013e+03 5.363795607389644227e-01 2.241200328987894268e-03
4.456006663219492111e+03 5.292468935916336825e-01 2.593194244637588020e-03
4.460462669882713271e+03 5.233214332435415228e-01 2.443050311567097638e-03
4.464923132552597053e+03 5.227631972005142291e-01 2.427574990020554303e-03
