# starting wavelength: 3429.590
# ending wavelength: 7301.640
# wav flux eflux
3.432824566338588284e+03 1.202844993049832834e+00 1.607989564735601284e-02
3.436257390904928343e+03 1.204260518888357501e+00 1.467308072062354155e-02
3.439693648295834464e+03 1.204680858126590204e+00 1.099258863117119275e-02
3.443133341944131189e+03 1.204555665356743299e+00 8.395473807399231325e-03
3.446576475286076402e+03 1.203649249683209854e+00 6.614741318241445719e-03
3.450023051761363604e+03 1.202488835490189922e+00 5.572004218273923434e-03
3.453473074813126004e+03 1.202037785770785350e+00 4.932137669514488620e-03
3.456926547887940615e+03 1.202844405278026274e+00 4.024120280524905342e-03
3.460383474435829612e+03 1.203708089171328766e+00 3.405637555798156618e-03
3.463843857910266706e+03 1.204383236707313509e+00 2.959631250480907177e-03
3.467307701768178049e+03 1.204389229656541938e+00 2.746167613895641232e-03
3.470775009469947236e+03 1.204284809175267812e+00 2.511283334487742630e-03
3.474245784479418489e+03 1.204110786580305348e+00 2.325365666752022328e-03
3.477720030263898934e+03 1.203062870555584807e+00 2.394103644056957796e-03
3.481197750294164052e+03 1.202488229847207712e+00 2.344398819197510749e-03
3.484678948044459503e+03 1.202204459703134942e+00 2.313790033629450384e-03
3.488163626992504760e+03 1.203371335911107787e+00 2.241547538700331722e-03
3.491651790619498570e+03 1.204649120189029254e+00 2.203590237625247233e-03
3.495143442410119405e+03 1.206475344081776147e+00 2.202435296363772482e-03
3.498638585852530468e+03 1.207976290529658048e+00 2.234610926156513615e-03
3.502137224438384237e+03 1.210215303713131574e+00 2.245426945506483456e-03
3.505639361662823831e+03 1.212862653944110081e+00 2.286791686794329131e-03
3.509145001024487556e+03 1.215916906519756591e+00 2.344308351338020551e-03
3.512654146025513455e+03 1.219926041614318057e+00 2.328015251920342778e-03
3.516166800171540217e+03 1.222844630715063552e+00 2.299833042593114191e-03
3.519682966971712631e+03 1.225500195095170275e+00 2.366080862812347183e-03
3.523202649938685681e+03 1.228372057401001083e+00 2.392301345610142824e-03
3.526725852588625457e+03 1.230972065639218904e+00 2.417373708872286829e-03
3.530252578441215064e+03 1.233711643479061593e+00 2.355893649968964464e-03
3.533782831019657806e+03 1.236853921277461188e+00 2.337898046441065549e-03
3.537316613850678550e+03 1.240101401347939447e+00 2.413320221509470537e-03
3.540853930464530094e+03 1.243995709473443512e+00 2.429452897569614033e-03
3.544394784394995895e+03 1.247837950680193764e+00 2.422296132171179815e-03
3.547939179179392340e+03 1.251017584231643998e+00 2.380302415325956725e-03
3.551487118358572843e+03 1.253550085580549478e+00 2.389685362040795680e-03
3.555038605476932389e+03 1.254442359475723689e+00 2.293974900822104684e-03
3.558593644082410719e+03 1.255211902518083678e+00 2.350575662583902822e-03
3.562152237726494150e+03 1.255735298173507486e+00 2.548006638834666819e-03
3.565714389964221937e+03 1.255140577493367049e+00 2.677418712126834483e-03
3.569280104354187188e+03 1.254126254374046567e+00 2.740579107972720540e-03
3.572849384458542772e+03 1.251727948545625191e+00 2.474264984076310781e-03
3.576422233843002232e+03 1.248868572456413029e+00 2.199048065562166261e-03
3.579998656076846601e+03 1.244191866908775701e+00 2.160257862212178019e-03
3.583578654732924406e+03 1.238507990768466183e+00 2.213291137265593466e-03
3.587162233387658489e+03 1.231424033363013093e+00 2.541815809868795944e-03
3.590749395621047370e+03 1.222918728878523265e+00 3.187031711588959957e-03
3.594340145016669794e+03 1.213831381781656837e+00 2.990516261260097244e-03
3.597934485161687462e+03 1.205512407921383478e+00 2.708797424595910282e-03
3.601532419646850485e+03 1.197625113214256576e+00 2.281967558537273053e-03
3.605133952066498296e+03 1.191798473923924684e+00 2.255399450983295358e-03
3.608739086018566013e+03 1.186423071624663761e+00 2.117532943524702907e-03
3.612347825104585809e+03 1.182574494652081754e+00 2.154911999562930495e-03
3.615960172929691907e+03 1.179574878442691155e+00 2.225708465084671583e-03
3.619576133102622407e+03 1.178622172611643482e+00 2.202690456968679680e-03
3.623195709235726554e+03 1.179281681196289400e+00 2.161293202483498179e-03
3.626818904944963379e+03 1.181170128915897122e+00 2.321260402862879678e-03
3.630445723849909427e+03 1.183849828762115308e+00 2.630610171896515491e-03
3.634076169573760581e+03 1.189211863488496057e+00 2.691797005749956180e-03
3.637710245743335690e+03 1.196264639290317788e+00 2.667845374779174127e-03
3.641347955989080219e+03 1.205144035507832001e+00 2.659227921446869446e-03
3.644989303945070333e+03 1.216142243374164877e+00 2.795167326846943918e-03
3.648634293249016537e+03 1.228873007919282445e+00 3.338004156902409352e-03
3.652282927542266862e+03 1.241098003273272132e+00 3.651151554371467184e-03
3.655935210469810499e+03 1.251028673098497856e+00 3.799856147594444806e-03
3.659591145680281443e+03 1.261217819710148236e+00 4.123146696775548993e-03
3.663250736825963031e+03 1.270104033914726038e+00 4.466237550024131781e-03
3.666913987562790226e+03 1.278900554767860243e+00 4.173177996106075364e-03
3.670580901550354156e+03 1.282850909977147014e+00 3.709961761627899104e-03
3.674251482451905758e+03 1.283004437139048104e+00 3.113810581277273552e-03
3.677925733934358959e+03 1.278017662254192777e+00 3.065067994609731259e-03
3.681603659668294313e+03 1.269078442274657936e+00 2.971468537896614949e-03
3.685285263327964003e+03 1.255112930887702483e+00 3.033591358697503536e-03
3.688970548591293209e+03 1.235654386197404975e+00 2.959345351706718381e-03
3.692659519139885560e+03 1.211204989845964919e+00 2.598764469687612523e-03
3.696352178659026777e+03 1.182926253734351230e+00 2.321256827305026409e-03
3.700048530837686940e+03 1.150448859618256048e+00 2.036376545026365517e-03
3.703748579368525952e+03 1.115096712458123251e+00 1.907113115344014499e-03
3.707452327947895355e+03 1.079254380071734243e+00 1.916776879508290876e-03
3.711159780275844696e+03 1.042555828496274595e+00 1.952232141514215853e-03
3.714870940056121526e+03 1.004768706198795769e+00 2.222374094662646262e-03
3.718585810996179134e+03 9.671543215502383939e-01 2.504151789148042085e-03
3.722304396807176545e+03 9.305876441190578108e-01 2.539904032094889193e-03
3.726026701203984885e+03 8.954850274265321319e-01 2.299590780569695913e-03
3.729752727905190113e+03 8.631834090645609248e-01 2.292965889707609343e-03
3.733482480633096657e+03 8.321797316484996765e-01 2.216922038711916128e-03
3.737215963113731050e+03 8.046458170508554719e-01 2.476883009050914568e-03
3.740953179076846027e+03 7.803991770751962376e-01 2.569839644352438137e-03
3.744694132255923705e+03 7.596930303305976517e-01 2.458732276374559454e-03
3.748438826388181042e+03 7.413416653206960083e-01 2.328789873318486917e-03
3.752187265214570289e+03 7.266206182488986753e-01 2.040264266508512708e-03
3.755939452479786269e+03 7.143045000264890421e-01 1.969543032773333341e-03
3.759695391932267285e+03 7.044157806420527912e-01 1.972138517447212698e-03
3.763455087324201031e+03 6.966922825023629251e-01 1.916526044006633183e-03
3.767218542411526414e+03 6.907355048418865051e-01 1.734807754759158703e-03
3.770985760953939007e+03 6.877783440449818375e-01 1.772278246074297185e-03
3.774756746714894234e+03 6.875148563675206326e-01 1.734214897481952886e-03
3.778531503461610555e+03 6.903981346314387313e-01 1.759500678117987974e-03
3.782310034965073100e+03 6.958210576462418029e-01 1.767245134704502731e-03
3.786092345000039586e+03 7.027954170604995277e-01 1.828683384662520370e-03
3.789878437345040766e+03 7.137068655098725012e-01 1.785655032364286523e-03
3.793668315782387253e+03 7.260214709835226543e-01 1.867271985424295540e-03
3.797461984098170888e+03 7.382624103514612290e-01 1.915774528374136407e-03
3.801259446082270188e+03 7.504495256519435609e-01 1.907150407973859591e-03
3.805060705528353537e+03 7.624730950512308425e-01 2.079207349284673684e-03
3.808865766233883278e+03 7.754563124597330104e-01 2.246677023313008951e-03
3.812674632000118436e+03 7.908246228343064343e-01 2.381222559570702821e-03
3.816487306632119726e+03 8.076783525918810325e-01 2.321616358818287887e-03
3.820303793938753188e+03 8.245418403660073059e-01 2.415553769849511367e-03
3.824124097732693372e+03 8.423283528332377035e-01 2.427371301309895219e-03
3.827948221830427428e+03 8.630121592046618995e-01 2.188127492867932445e-03
3.831776170052258749e+03 8.861554841369219115e-01 2.361280160099900674e-03
3.835607946222312421e+03 9.111635656251533266e-01 2.784041919575338305e-03
3.839443554168536139e+03 9.375585227370076824e-01 2.790037111026647063e-03
3.843282997722705659e+03 9.642805998476760010e-01 2.487496275855935815e-03
3.847126280720429804e+03 9.907214771259313935e-01 2.350423265681738250e-03
3.850973407001151372e+03 1.017067917507122887e+00 2.364291742200705978e-03
3.854824380408153957e+03 1.043213661498143097e+00 2.449246171421240459e-03
3.858679204788563311e+03 1.068383299261278285e+00 2.402344979374350549e-03
3.862537883993353262e+03 1.093030302470820780e+00 1.587953270495105935e-03
3.866400421877347981e+03 1.119534740461077371e+00 1.531829300246073406e-03
3.870266822299226533e+03 1.146256245413721064e+00 1.604830355008372757e-03
3.874137089121526969e+03 1.174475185673462763e+00 1.606744946333050561e-03
3.878011226210649966e+03 1.203574299234615896e+00 1.696389952446413591e-03
3.881889237436861549e+03 1.232554343935888808e+00 1.929921719681714203e-03
3.885771126674299921e+03 1.261717755243309647e+00 2.303674464138893898e-03
3.889656897800975457e+03 1.289510834749139079e+00 1.711531997866784288e-03
3.893546554698777527e+03 1.313540080492482831e+00 1.623965266167195056e-03
3.897440101253477678e+03 1.334346674028548119e+00 1.676951129535230942e-03
3.901337541354732366e+03 1.353310517082595199e+00 1.967252025923523807e-03
3.905238878896088409e+03 1.370479078838046316e+00 2.117770818571331967e-03
3.909144117774985716e+03 1.386575754319297360e+00 2.260271281671339793e-03
3.913053261892762293e+03 1.401449803202029720e+00 2.309492179624841272e-03
3.916966315154656058e+03 1.416254652200648945e+00 1.997641814268523355e-03
3.920883281469812118e+03 1.431558562758688202e+00 1.862780575050246865e-03
3.924804164751283224e+03 1.446502913416996439e+00 1.729035402091671451e-03
3.928728968916035683e+03 1.462163641600848996e+00 1.730507206529155809e-03
3.932657697884953450e+03 1.478446158935815324e+00 1.893184268018096444e-03
3.936590355582839493e+03 1.494317281700426436e+00 1.718124792826688759e-03
3.940526945938423523e+03 1.508231127956562112e+00 1.282668284220756351e-03
3.944467472884363360e+03 1.517961134193670292e+00 1.295078421066572739e-03
3.948411940357249023e+03 1.524370346408608246e+00 1.258541510641931907e-03
3.952360352297607733e+03 1.525823444227641490e+00 1.322727992484485542e-03
3.956312712649906643e+03 1.523697405144837758e+00 1.339883375365534274e-03
3.960269025362557841e+03 1.517965264341636811e+00 1.267623735290217225e-03
3.964229294387921527e+03 1.507515540076556748e+00 1.257093011661470977e-03
3.968193523682310570e+03 1.492286595269880722e+00 1.311984885720782939e-03
3.972161717205994591e+03 1.473018969355393004e+00 2.019579332681161344e-03
3.976133878923201792e+03 1.450866456765013801e+00 2.898177211517530098e-03
3.980110012802126221e+03 1.428687878429776292e+00 3.133989839392031362e-03
3.984090122814929600e+03 1.407598959819101658e+00 2.807177443609015950e-03
3.988074212937745870e+03 1.388614559179434327e+00 2.486986993430324172e-03
3.992062287150684824e+03 1.372068290704791416e+00 2.537043751433032228e-03
3.996054349437837118e+03 1.358636368310437881e+00 2.984547998481685942e-03
4.000050403787276082e+03 1.345814041800434513e+00 3.206782671402070260e-03
4.004050454191064546e+03 1.334311396222744639e+00 3.402385587124581983e-03
4.008054504645257111e+03 1.324282553684734909e+00 3.473502523470541059e-03
4.012062559149903791e+03 1.312773518085609714e+00 2.835826841530614782e-03
4.016074621709055009e+03 1.299072016710002275e+00 2.968265697151356488e-03
4.020090696330765240e+03 1.284073086079183801e+00 3.956078074540059913e-03
4.024110787027097558e+03 1.269133096844782482e+00 4.549807397905526567e-03
4.028134897814125907e+03 1.254686909480305035e+00 4.079158725124747836e-03
4.032163032711941469e+03 1.245056733713423958e+00 3.141034092556354955e-03
4.036195195744654484e+03 1.240296344552431318e+00 3.276089668355105025e-03
4.040231390940400615e+03 1.240133311024951057e+00 4.260756358546891054e-03
4.044271622331342314e+03 1.242271162387899919e+00 4.370219781775270228e-03
4.048315893953675186e+03 1.245304967829834464e+00 4.100975731869922931e-03
4.052364209847629809e+03 1.248644558314475850e+00 3.838115813934219519e-03
4.056416574057479011e+03 1.252045702821593887e+00 3.533792832608425357e-03
4.060472990631537868e+03 1.254567234305303591e+00 3.405621310903174468e-03
4.064533463622170530e+03 1.255578376480928515e+00 3.577573478492976269e-03
4.068597997085794304e+03 1.254365371677017782e+00 3.554907513103550045e-03
4.072666595082881486e+03 1.253011751613198888e+00 3.240343342153872638e-03
4.076739261677965715e+03 1.250577606399210895e+00 2.645027472291795832e-03
4.080816000939644709e+03 1.248479187982966643e+00 2.695444336301503103e-03
4.084896816940585722e+03 1.247898874307110662e+00 2.597294267925129557e-03
4.088981713757527814e+03 1.246225822019388696e+00 2.097852526603452127e-03
4.093070695471286854e+03 1.242819761798094058e+00 2.187224711184080576e-03
4.097163766166759160e+03 1.238593812440758057e+00 2.595526678306868916e-03
4.101260929932927866e+03 1.233671865163700865e+00 2.740792379082888051e-03
4.105362190862862008e+03 1.227779097624592142e+00 2.056104725338615130e-03
4.109467553053726078e+03 1.224260347607406318e+00 2.152676453859151719e-03
4.113577020606780934e+03 1.221603929169144287e+00 2.755608596812450257e-03
4.117690597627389252e+03 1.219421401919624115e+00 3.143950011370144799e-03
4.121808288225018259e+03 1.215678415422545067e+00 3.168687998318534937e-03
4.125930096513244280e+03 1.210067783280601050e+00 2.969095834381777800e-03
4.130056026609759101e+03 1.203320289234625085e+00 2.903093989632294335e-03
4.134186082636369974e+03 1.195576814126077414e+00 3.253811177856497441e-03
4.138320268719007800e+03 1.186791900727352411e+00 4.030160767664528812e-03
4.142458588987728035e+03 1.178904465422583092e+00 3.790381249745513551e-03
4.146601047576717065e+03 1.172136188832292536e+00 3.092278318843529224e-03
4.150747648624294925e+03 1.167786122910786872e+00 2.712084950257220156e-03
4.154898396272920763e+03 1.166400755527096988e+00 2.805189954571764982e-03
4.159053294669195566e+03 1.167630831373107192e+00 2.982516618692828032e-03
4.163212347963865795e+03 1.172139385322891192e+00 2.910652560162307716e-03
4.167375560311830668e+03 1.177484231320254260e+00 2.341758707338244174e-03
4.171542935872143971e+03 1.182245739728075007e+00 1.842328288945327148e-03
4.175714478808017702e+03 1.185829817052680202e+00 2.187258243635987771e-03
4.179890193286827525e+03 1.188836235946570730e+00 2.267001250624445501e-03
4.184070083480115500e+03 1.190810028067477599e+00 1.791973714922114221e-03
4.188254153563597356e+03 1.192854135412967365e+00 1.775062376777583302e-03
4.192442407717161586e+03 1.193935410356827376e+00 1.765578143421375323e-03
4.196634850124880359e+03 1.194815716598272237e+00 1.872745584190103722e-03
4.200831484975006788e+03 1.195034751045972898e+00 1.942420534624041042e-03
4.205032316459983122e+03 1.192869693741106518e+00 1.850408075436522914e-03
4.209237348776444378e+03 1.189270621266174555e+00 2.013790119908374573e-03
4.213446586125221984e+03 1.184359264088330255e+00 2.228312686127417123e-03
4.217660032711349231e+03 1.178051248841474052e+00 2.148074513931668740e-03
4.221877692744061278e+03 1.172859020279710673e+00 2.102492058549653049e-03
4.226099570436806971e+03 1.167311599581515313e+00 1.979757621265164705e-03
4.230325670007245208e+03 1.162101109780845576e+00 1.799051183379196239e-03
4.234555995677254032e+03 1.158222489699479718e+00 2.137301435628000991e-03
4.238790551672932452e+03 1.154574391177255022e+00 2.318768205582241032e-03
4.243029342224606808e+03 1.151647209592219001e+00 1.934013520416082675e-03
4.247272371566832589e+03 1.148377824534831504e+00 1.818957995852491134e-03
4.251519643938400804e+03 1.144666261576270161e+00 2.223854816593889665e-03
4.255771163582340705e+03 1.140671944199812771e+00 2.314733091569693910e-03
4.260026934745924336e+03 1.138407311927337684e+00 2.187753219044272484e-03
4.264286961680671993e+03 1.136986029713356494e+00 2.216762527946529535e-03
4.268551248642354039e+03 1.135557415392563829e+00 2.296704145417364888e-03
4.272819799890998183e+03 1.134040099977268179e+00 2.446981835505503741e-03
4.277092619690890388e+03 1.132988910935171400e+00 2.671845817640558941e-03
4.281369712310583054e+03 1.131140743701679829e+00 2.154554838389095492e-03
4.285651082022895025e+03 1.125933006613642817e+00 2.057778930238331368e-03
4.289936733104918858e+03 1.118567790917632587e+00 2.228450152679284455e-03
4.294226669838025373e+03 1.109424408953355368e+00 2.291940907704330226e-03
4.298520896507864563e+03 1.098049946018030631e+00 2.218704528949906607e-03
4.302819417404373780e+03 1.084811495987245689e+00 2.137408701449924116e-03
4.307122236821779552e+03 1.069675214120303419e+00 1.755665588197068095e-03
4.311429359058603040e+03 1.053744723383248427e+00 1.605644216178422207e-03
4.315740788417662770e+03 1.038125742876579327e+00 1.569982713410231863e-03
4.320056529206081905e+03 1.022551216856611767e+00 1.422964302031412120e-03
4.324376585735290064e+03 1.006971163982038231e+00 1.272269705745704849e-03
4.328700962321026054e+03 9.909675803295721064e-01 1.393730257122889745e-03
4.333029663283348782e+03 9.753347817706295997e-01 1.434467162891871032e-03
4.337362692946633615e+03 9.603584152123042506e-01 1.352385636810937534e-03
4.341700055639581478e+03 9.476547999475090078e-01 1.316290250754857541e-03
4.346041755695222491e+03 9.370564233415812350e-01 1.177268768569140166e-03
4.350387797450919606e+03 9.288736814766639371e-01 1.043618276034749591e-03
4.354738185248371337e+03 9.233281282445685578e-01 1.060215760502179663e-03
4.359092923433621763e+03 9.213192685986093533e-01 1.123062656192876920e-03
4.363452016357056891e+03 9.210235040519318961e-01 1.022700086669435168e-03
4.367815468373414660e+03 9.208185136501881862e-01 1.034535102089929664e-03
4.372183283841789489e+03 9.215365352955032785e-01 1.115972771174454170e-03
4.376555467125633186e+03 9.228691013884746663e-01 1.018893684966364543e-03
4.380932022592760404e+03 9.237182694937373650e-01 8.065612854967353206e-04
4.385312954615354101e+03 9.241008824598014870e-01 8.947304265119885355e-04
4.389698267569970994e+03 9.244537431197699107e-01 1.127366888593357404e-03
4.394087965837542470e+03 9.246538875083913922e-01 1.419793453479758225e-03
4.398482053803381859e+03 9.259240478188101031e-01 1.331379931594796687e-03
4.402880535857186260e+03 9.294745209877293135e-01 1.159276785520335293e-03
4.407283416393044718e+03 9.347773033230953876e-01 1.082822433643328055e-03
4.411690699809440048e+03 9.420357759859466773e-01 1.015779257849311204e-03
4.416102390509250654e+03 9.522265086189729555e-01 1.024601436054918937e-03
4.420518492899761441e+03 9.645801612051814189e-01 1.034698290720379105e-03
4.424939011392662906e+03 9.794139743647434226e-01 1.158431473245824820e-03
4.429363950404056595e+03 9.971555845609032520e-01 1.152681559786237564e-03
4.433793314354462382e+03 1.017121108488130865e+00 1.234884678909840784e-03
4.438227107668818462e+03 1.037971706444293485e+00 1.215620634165182979e-03
4.442665334776488635e+03 1.061125126601204949e+00 1.633044975441300161e-03
4.447108000111265937e+03 1.084459389859029566e+00 2.064475331464568110e-03
4.451555108111379013e+03 1.106503782368612576e+00 2.178809601506403147e-03
4.456006663219492111e+03 1.127566710879590595e+00 2.012776119546678087e-03
4.460462669882713271e+03 1.146549923860357589e+00 1.738298124213645546e-03
4.464923132552597053e+03 1.163011702257105817e+00 1.847541548758434163e-03
4.469388055685150903e+03 1.177668778735492916e+00 1.924064706672916000e-03
