# starting wavelength: 3464.040
# ending wavelength: 7352.910
# wav flux eflux
3.467307701768178049e+03 7.811966599416247936e-01 1.183943688118488206e-02
3.470775009469947236e+03 7.694232674782574000e-01 8.607508505000728560e-03
3.474245784479418489e+03 7.605286335883928439e-01 6.419759487304827275e-03
3.477720030263898934e+03 7.539342244715885322e-01 4.906558987858600576e-03
3.481197750294164052e+03 7.486975869270879880e-01 3.786529259369463690e-03
3.484678948044459503e+03 7.442902965193139986e-01 2.963131154216293306e-03
3.488163626992504760e+03 7.405042945048310177e-01 2.396046232349253752e-03
3.491651790619498570e+03 7.376125763934692214e-01 2.023141859083774172e-03
3.495143442410119405e+03 7.347524554415200138e-01 1.654340764409681841e-03
3.498638585852530468e+03 7.321450794507200488e-01 1.446618080011161751e-03
3.502137224438384237e+03 7.290745089624809383e-01 1.525547959486091201e-03
3.505639361662823831e+03 7.253728002706385514e-01 1.702967384453655652e-03
3.509145001024487556e+03 7.212021564941715202e-01 1.874100787528717007e-03
3.512654146025513455e+03 7.167315653177923629e-01 2.074759497137081739e-03
3.516166800171540217e+03 7.119997609830809315e-01 2.432493670851050040e-03
3.519682966971712631e+03 7.078828042040886670e-01 2.657364498433986526e-03
3.523202649938685681e+03 7.047845702450854510e-01 2.810071549013182495e-03
3.526725852588625457e+03 7.031088388392273680e-01 2.899843039561229331e-03
3.530252578441215064e+03 7.027398019550492592e-01 2.892664829459741863e-03
3.533782831019657806e+03 7.044371612640383251e-01 2.816935767329983419e-03
3.537316613850678550e+03 7.073491544053627234e-01 2.588292387495630485e-03
3.540853930464530094e+03 7.119294468560785072e-01 2.363605759992755753e-03
3.544394784394995895e+03 7.184539089898134279e-01 2.393353765078667927e-03
3.547939179179392340e+03 7.265295694480120581e-01 2.626480269221205272e-03
3.551487118358572843e+03 7.363868299607497780e-01 3.141922042052193009e-03
3.555038605476932389e+03 7.476043432108973041e-01 3.355908330193097151e-03
3.558593644082410719e+03 7.598588229998072263e-01 3.444305983022539173e-03
3.562152237726494150e+03 7.722850392526029450e-01 3.379972911617542489e-03
3.565714389964221937e+03 7.846770541101533158e-01 3.236121259178985788e-03
3.569280104354187188e+03 7.970948223508665942e-01 3.023892841656367243e-03
3.572849384458542772e+03 8.092030475912059817e-01 2.769064023788138894e-03
3.576422233843002232e+03 8.201137053246815301e-01 2.517636862634966676e-03
3.579998656076846601e+03 8.301035543776903447e-01 2.263007709434112190e-03
3.583578654732924406e+03 8.382993544807690878e-01 2.066059404180052139e-03
3.587162233387658489e+03 8.448023825433460532e-01 1.924499688997906993e-03
3.590749395621047370e+03 8.496663232546487476e-01 1.844859128074885892e-03
3.594340145016669794e+03 8.513661680683503041e-01 1.842719474738149224e-03
3.597934485161687462e+03 8.505375923094644630e-01 1.767725916229348623e-03
3.601532419646850485e+03 8.475648394822307141e-01 1.668546753288300145e-03
3.605133952066498296e+03 8.423996449845726486e-01 1.588304034731209680e-03
3.608739086018566013e+03 8.354266876886193849e-01 1.642456790665320797e-03
3.612347825104585809e+03 8.271276404027140261e-01 1.871508169454423392e-03
3.615960172929691907e+03 8.189178513417175731e-01 1.923586629572396735e-03
3.619576133102622407e+03 8.095194751634928743e-01 2.541352904470561141e-03
3.623195709235726554e+03 7.994273315093971544e-01 3.240938241038950583e-03
3.626818904944963379e+03 7.903412722639001631e-01 3.831196019964208492e-03
3.630445723849909427e+03 7.811911155658016748e-01 4.396432853590399349e-03
3.634076169573760581e+03 7.743087247446325261e-01 4.501639642736981681e-03
3.637710245743335690e+03 7.704357523967866328e-01 4.224644489776292061e-03
3.641347955989080219e+03 7.696675425535476345e-01 3.644993322290709329e-03
3.644989303945070333e+03 7.725829801838630662e-01 2.987615539873928437e-03
3.648634293249016537e+03 7.796806565349025941e-01 2.865803360944421153e-03
3.652282927542266862e+03 7.890162307288092203e-01 2.849935189699479270e-03
3.655935210469810499e+03 8.031014843292060279e-01 3.387293754232632067e-03
3.659591145680281443e+03 8.207090097394591499e-01 4.064620988485797247e-03
3.663250736825963031e+03 8.405058362845148068e-01 4.519383088544721115e-03
3.666913987562790226e+03 8.634882333467523985e-01 4.240109120054190266e-03
3.670580901550354156e+03 8.845817655736296636e-01 3.869006035925720653e-03
3.674251482451905758e+03 9.038839847419823936e-01 3.470511467317343151e-03
3.677925733934358959e+03 9.202096979389660092e-01 2.888292313244693842e-03
3.681603659668294313e+03 9.331659966927522420e-01 2.217357676916042845e-03
3.685285263327964003e+03 9.409871053138576524e-01 1.418704208985510119e-03
3.688970548591293209e+03 9.428775288596007442e-01 9.301757036685432377e-04
3.692659519139885560e+03 9.386080240765036775e-01 8.519174790352989452e-04
3.696352178659026777e+03 9.279199826185897670e-01 8.769875822863490997e-04
3.700048530837686940e+03 9.106674954421625223e-01 9.596216471239075400e-04
3.703748579368525952e+03 8.865388243350291742e-01 9.928183929789747945e-04
3.707452327947895355e+03 8.574206691027422833e-01 1.263459210850675007e-03
3.711159780275844696e+03 8.231829071056265823e-01 1.629023410877930480e-03
3.714870940056121526e+03 7.849013773221203971e-01 2.027883588292169175e-03
3.718585810996179134e+03 7.434026060642088263e-01 2.484225623692812301e-03
3.722304396807176545e+03 6.996364014322477010e-01 2.670725420490540920e-03
3.726026701203984885e+03 6.551755034379773690e-01 2.665527549244888286e-03
3.729752727905190113e+03 6.112079039793278934e-01 2.464988072281981170e-03
3.733482480633096657e+03 5.683600934834334151e-01 2.014504284938476754e-03
3.737215963113731050e+03 5.272900543325527156e-01 1.485242673253267922e-03
3.740953179076846027e+03 4.894644421126635447e-01 1.212351193880036992e-03
3.744694132255923705e+03 4.551721238087612642e-01 1.124914526859553243e-03
3.748438826388181042e+03 4.257921745029453753e-01 1.150634921764479186e-03
3.752187265214570289e+03 4.005602042275631103e-01 1.200983947018030703e-03
3.755939452479786269e+03 3.802676129509898750e-01 1.117322850864628341e-03
3.759695391932267285e+03 3.641869440360571142e-01 9.928403028767480293e-04
3.763455087324201031e+03 3.523392983369498799e-01 9.693967393381008055e-04
3.767218542411526414e+03 3.441929151656296093e-01 8.209781256157169240e-04
3.770985760953939007e+03 3.392960899523539964e-01 7.478196411739774542e-04
3.774756746714894234e+03 3.377746866418638860e-01 8.296225097576252370e-04
3.778531503461610555e+03 3.395856476605712548e-01 7.763074951975398267e-04
3.782310034965073100e+03 3.437925250485072692e-01 9.459798771076633047e-04
3.786092345000039586e+03 3.502574246467574648e-01 9.471942020425856224e-04
3.789878437345040766e+03 3.586101158140715395e-01 8.792646437273290809e-04
3.793668315782387253e+03 3.690872453598899594e-01 8.361061602298876065e-04
3.797461984098170888e+03 3.815308043698577567e-01 7.971246341417655406e-04
3.801259446082270188e+03 3.958719647925906804e-01 7.915449336326252404e-04
3.805060705528353537e+03 4.115311930160278631e-01 9.915597368619318615e-04
3.808865766233883278e+03 4.292751681933481556e-01 8.763818818401501341e-04
3.812674632000118436e+03 4.492991230942465775e-01 7.264202234744843341e-04
3.816487306632119726e+03 4.716624041760422159e-01 6.722095488781085464e-04
3.820303793938753188e+03 4.970375076531430292e-01 7.726119615045056593e-04
3.824124097732693372e+03 5.260265709341362950e-01 7.533013750207655842e-04
3.827948221830427428e+03 5.583365523170343847e-01 8.214605219624584835e-04
3.831776170052258749e+03 5.945884600519135699e-01 7.863612518018020265e-04
3.835607946222312421e+03 6.344841823483515775e-01 7.925673880694600196e-04
3.839443554168536139e+03 6.777912497908462619e-01 8.041697266691084358e-04
3.843282997722705659e+03 7.245795662355746236e-01 8.007909377627769453e-04
3.847126280720429804e+03 7.745871428196466901e-01 8.116335102363322158e-04
3.850973407001151372e+03 8.273546620312867139e-01 8.271881732098956136e-04
3.854824380408153957e+03 8.827937271090517957e-01 8.304524390458203941e-04
3.858679204788563311e+03 9.406953056686180314e-01 9.483681895685944349e-04
3.862537883993353262e+03 1.000332182529594327e+00 1.386532582526394091e-03
3.866400421877347981e+03 1.059590990822330436e+00 1.480034387132289847e-03
3.870266822299226533e+03 1.117285712425962974e+00 1.464889183796152378e-03
3.874137089121526969e+03 1.173874531607855598e+00 1.412535818941642717e-03
3.878011226210649966e+03 1.228768382109301616e+00 1.380776421748975379e-03
3.881889237436861549e+03 1.281121262683636131e+00 1.306808935451120876e-03
3.885771126674299921e+03 1.329913910179198577e+00 1.330229334662168901e-03
3.889656897800975457e+03 1.375935696161079358e+00 1.338233058060365414e-03
3.893546554698777527e+03 1.417924154210653764e+00 1.316531469939182311e-03
3.897440101253477678e+03 1.456646736561404198e+00 1.209899612458985611e-03
3.901337541354732366e+03 1.492064803421937258e+00 1.215922906619396233e-03
3.905238878896088409e+03 1.523608512891761357e+00 1.187602036750864997e-03
3.909144117774985716e+03 1.552449810074083558e+00 1.221548102914539122e-03
3.913053261892762293e+03 1.577153671334266871e+00 1.085194723658608994e-03
3.916966315154656058e+03 1.597992857170542402e+00 1.051073914290169640e-03
3.920883281469812118e+03 1.615141690076975056e+00 1.134501304900643577e-03
3.924804164751283224e+03 1.628461090492346219e+00 1.227417938059595891e-03
3.928728968916035683e+03 1.639089176075716026e+00 9.422105824819067494e-04
3.932657697884953450e+03 1.648031717470294755e+00 9.242875676889473731e-04
3.936590355582839493e+03 1.655741335159662153e+00 9.791518445600602780e-04
3.940526945938423523e+03 1.660912654843603065e+00 1.148569970881896688e-03
3.944467472884363360e+03 1.664653167071223905e+00 1.292804685471405594e-03
3.948411940357249023e+03 1.668297442609506076e+00 1.474175213089659077e-03
3.952360352297607733e+03 1.673015570388713735e+00 1.523601957469292514e-03
3.956312712649906643e+03 1.678494968919006958e+00 1.474697485278259924e-03
3.960269025362557841e+03 1.684758070076635805e+00 1.429842899165525852e-03
3.964229294387921527e+03 1.691828404713696665e+00 1.475064958658936195e-03
3.968193523682310570e+03 1.699080755224872119e+00 1.559210444858370303e-03
3.972161717205994591e+03 1.706629825036435122e+00 1.755933589125574816e-03
3.976133878923201792e+03 1.713388285567043923e+00 1.878658393130760431e-03
3.980110012802126221e+03 1.718302885052948259e+00 1.861289413162858222e-03
3.984090122814929600e+03 1.720786853121136106e+00 1.361140123574575969e-03
3.988074212937745870e+03 1.719047217627458268e+00 1.082913741286102832e-03
3.992062287150684824e+03 1.712753798161671170e+00 8.067316855809314197e-04
3.996054349437837118e+03 1.700923845891369801e+00 9.034559859416857724e-04
4.000050403787276082e+03 1.684078973781107047e+00 7.235858579828441731e-04
4.004050454191064546e+03 1.663119363538387185e+00 6.650252507775892023e-04
4.008054504645257111e+03 1.638225277814992831e+00 6.692645256774104904e-04
4.012062559149903791e+03 1.609970349568582426e+00 7.322808371763228153e-04
4.016074621709055009e+03 1.578354529194679889e+00 7.418823336050350045e-04
4.020090696330765240e+03 1.544447202797238905e+00 1.188876230040199081e-03
4.024110787027097558e+03 1.509699312724190889e+00 1.386255736790856273e-03
4.028134897814125907e+03 1.475851531127504002e+00 1.523232483941513830e-03
4.032163032711941469e+03 1.444094587729563672e+00 1.464335153181396156e-03
4.036195195744654484e+03 1.415027013486287233e+00 1.324209055103075117e-03
4.040231390940400615e+03 1.390021471211368320e+00 1.099559971469791066e-03
4.044271622331342314e+03 1.369001707137819546e+00 1.079934450161589704e-03
4.048315893953675186e+03 1.352289894333108533e+00 1.560607328708534447e-03
4.052364209847629809e+03 1.338993054576119279e+00 1.954356843451139202e-03
4.056416574057479011e+03 1.328172791462092883e+00 2.100086375886378153e-03
4.060472990631537868e+03 1.318557644808674434e+00 1.884175529127889593e-03
4.064533463622170530e+03 1.308903758006184193e+00 1.338408143312448629e-03
4.068597997085794304e+03 1.297933413720066431e+00 7.673033002512276305e-04
4.072666595082881486e+03 1.284889457497483622e+00 6.373226585822128068e-04
4.076739261677965715e+03 1.269596714082384059e+00 8.123886285457572595e-04
4.080816000939644709e+03 1.252200298220202956e+00 1.209715722416850178e-03
4.084896816940585722e+03 1.233420292305966504e+00 1.122021044621147228e-03
4.088981713757527814e+03 1.213719823661649988e+00 9.583583682356318486e-04
4.093070695471286854e+03 1.194063063006570724e+00 9.992660027193715593e-04
4.097163766166759160e+03 1.174410347893331430e+00 9.325796834003297108e-04
4.101260929932927866e+03 1.156397482903379625e+00 8.138768724112705561e-04
4.105362190862862008e+03 1.140481789602599827e+00 7.008473742985604554e-04
4.109467553053726078e+03 1.126922233391603356e+00 7.205401915362421444e-04
4.113577020606780934e+03 1.115174485038344043e+00 7.514898945402530023e-04
4.117690597627389252e+03 1.105759140514342320e+00 9.671084554260481626e-04
4.121808288225018259e+03 1.097865144014734229e+00 1.232803623621018521e-03
4.125930096513244280e+03 1.091218475403550769e+00 1.436358035911597690e-03
4.130056026609759101e+03 1.084597249282617026e+00 1.362613271062753989e-03
4.134186082636369974e+03 1.077637529034044750e+00 1.134767161476267104e-03
4.138320268719007800e+03 1.069716921610969207e+00 8.882534471407324073e-04
4.142458588987728035e+03 1.060590874679865792e+00 1.000765672532357310e-03
4.146601047576717065e+03 1.050626471288549801e+00 1.506375620587898896e-03
4.150747648624294925e+03 1.040925858492079747e+00 1.827732884184170639e-03
4.154898396272920763e+03 1.031686526027586481e+00 1.850630603089275595e-03
4.159053294669195566e+03 1.024357509915380771e+00 1.391773280395777572e-03
4.163212347963865795e+03 1.020467179552780213e+00 1.088626360104353544e-03
4.167375560311830668e+03 1.019850276190594762e+00 8.527293103180089064e-04
4.171542935872143971e+03 1.023022478600023710e+00 7.333032532992076000e-04
4.175714478808017702e+03 1.029941234718526610e+00 9.331990649855801843e-04
4.179890193286827525e+03 1.040209684318627925e+00 1.148054512039539373e-03
4.184070083480115500e+03 1.053100040751115074e+00 1.376659172504399566e-03
4.188254153563597356e+03 1.067052771486454610e+00 1.250287718990798639e-03
4.192442407717161586e+03 1.080819084138794572e+00 1.291820585468715340e-03
4.196634850124880359e+03 1.093076345829451457e+00 1.118888298702479375e-03
4.200831484975006788e+03 1.102927101280600564e+00 9.563037362345559950e-04
4.205032316459983122e+03 1.109756285262221365e+00 7.467399101165027309e-04
4.209237348776444378e+03 1.112593553800337975e+00 6.873588160577743080e-04
4.213446586125221984e+03 1.111791514269214520e+00 7.698350398550263610e-04
4.217660032711349231e+03 1.107370071142007362e+00 1.105097258474377082e-03
4.221877692744061278e+03 1.099707379699365495e+00 1.418946666034323970e-03
4.226099570436806971e+03 1.089802296306064511e+00 1.533817916613145448e-03
4.230325670007245208e+03 1.079314084907430082e+00 1.370899522354367735e-03
4.234555995677254032e+03 1.068791762157096370e+00 9.875626874969378396e-04
4.238790551672932452e+03 1.059573971038990203e+00 7.194244522718369270e-04
4.243029342224606808e+03 1.052287880622740923e+00 7.608257377372016446e-04
4.247272371566832589e+03 1.046667215092782710e+00 8.750851603939643333e-04
4.251519643938400804e+03 1.042969256007934664e+00 9.175166069030516337e-04
4.255771163582340705e+03 1.041369142601455744e+00 7.988854960802849701e-04
4.260026934745924336e+03 1.041417533895671266e+00 7.696084705400368063e-04
4.264286961680671993e+03 1.043493885436072022e+00 7.171901118014514884e-04
4.268551248642354039e+03 1.046896521543562164e+00 7.737111695412077390e-04
4.272819799890998183e+03 1.051984543863617061e+00 7.667846327352606257e-04
4.277092619690890388e+03 1.058064623087142442e+00 7.427247827436757018e-04
4.281369712310583054e+03 1.065104145289235138e+00 1.063774016466689743e-03
4.285651082022895025e+03 1.072347097600969024e+00 1.319943026670284758e-03
4.289936733104918858e+03 1.078819250619405423e+00 1.404068965649082684e-03
4.294226669838025373e+03 1.083888423024559566e+00 1.188635827699386196e-03
4.298520896507864563e+03 1.086842234439677535e+00 8.977840642895326771e-04
4.302819417404373780e+03 1.086874693237397826e+00 8.049145964783091262e-04
4.307122236821779552e+03 1.083776392331578409e+00 8.803858339022290836e-04
4.311429359058603040e+03 1.077708377142670759e+00 8.980957264232431857e-04
4.315740788417662770e+03 1.068281287470974394e+00 7.537138995342940965e-04
4.320056529206081905e+03 1.056075778310411328e+00 6.159772733166164922e-04
4.324376585735290064e+03 1.041425687811729395e+00 6.988109201693161899e-04
4.328700962321026054e+03 1.024286922586626902e+00 7.052345180533078298e-04
4.333029663283348782e+03 1.004794774262372847e+00 7.600908748446082641e-04
4.337362692946633615e+03 9.836379246118900355e-01 9.560969576726768664e-04
4.341700055639581478e+03 9.612541177264748438e-01 1.273821633138599125e-03
4.346041755695222491e+03 9.386530315322398899e-01 1.412667782997936716e-03
4.350387797450919606e+03 9.162629555794251646e-01 1.283059692127500083e-03
4.354738185248371337e+03 8.950858958293408385e-01 1.017199615514072534e-03
4.359092923433621763e+03 8.756776365877531054e-01 9.085417004167423063e-04
4.363452016357056891e+03 8.585624562615223887e-01 1.139982662811549891e-03
4.367815468373414660e+03 8.435156335964464347e-01 1.257173671093694605e-03
4.372183283841789489e+03 8.306122074621633544e-01 1.218599757162881769e-03
4.376555467125633186e+03 8.193929600281244507e-01 9.927883177231475783e-04
4.380932022592760404e+03 8.099005295674265303e-01 7.036969707065987263e-04
4.385312954615354101e+03 8.017455739319930830e-01 8.531438214965846251e-04
4.389698267569970994e+03 7.956213374693831275e-01 9.021866744009132862e-04
4.394087965837542470e+03 7.915786989088837711e-01 8.591974781301736034e-04
4.398482053803381859e+03 7.899824306357787762e-01 5.936872721722497677e-04
4.402880535857186260e+03 7.915631038069320669e-01 3.710421156977710549e-04
4.407283416393044718e+03 7.966480581587522813e-01 3.330470844163032642e-04
4.411690699809440048e+03 8.053969118882056133e-01 3.310045817848922657e-04
4.416102390509250654e+03 8.177334578941198862e-01 3.355379156614303146e-04
4.420518492899761441e+03 8.337444552706282375e-01 3.687179277931223456e-04
4.424939011392662906e+03 8.527769075476374638e-01 3.589747111381271405e-04
4.429363950404056595e+03 8.749674654442561872e-01 3.698619447451453705e-04
4.433793314354462382e+03 8.997413026898303245e-01 3.863833142805879538e-04
4.438227107668818462e+03 9.267999535378173004e-01 3.833347209321400352e-04
4.442665334776488635e+03 9.560327327043424139e-01 3.855737271377749622e-04
4.447108000111265937e+03 9.871381579589234567e-01 4.203040270621036766e-04
4.451555108111379013e+03 1.019305946657274919e+00 4.093401930098984360e-04
4.456006663219492111e+03 1.052614293938358037e+00 3.913176378299123345e-04
4.460462669882713271e+03 1.086168452266697892e+00 4.154431498054215804e-04
4.464923132552597053e+03 1.119610008276509250e+00 4.784211506627374729e-04
4.469388055685150903e+03 1.152347491409208669e+00 5.319696434523498623e-04
4.473857443740837880e+03 1.184512922924445988e+00 5.386703324623969046e-04
4.478331301184580298e+03 1.215225474802942296e+00 4.582198694948910701e-04
4.482809632485766087e+03 1.244429230156839372e+00 4.010491652924499223e-04
4.487292442118253348e+03 1.271932780941678054e+00 5.269976479600176414e-04
4.491779734560373072e+03 1.297721915899023859e+00 7.456726916505388835e-04
4.496271514294934605e+03 1.322402785222876131e+00 7.502098508429415119e-04
4.500767785809231100e+03 1.346309571563846008e+00 6.361823245978955477e-04
4.505268553595042249e+03 1.369449141676168491e+00 6.180894111279213636e-04
4.509773822148638828e+03 1.392168612878910361e+00 4.566478304315613190e-04
4.514283595970789065e+03 1.414933840843334290e+00 4.354252535535196780e-04
