# starting wavelength: 6081.080
# ending wavelength: 9516.040
# wav flux eflux
6.086645457006521610e+03 1.067174472442597777e+00 7.582469466690435964e-03
6.092732102463530282e+03 1.072549048233593760e+00 1.016843162930903578e-02
6.098824834565995843e+03 1.072471108402691664e+00 9.713229776237158192e-03
6.104923659400564247e+03 1.070965477633050833e+00 8.604299882457715556e-03
6.111028583059966877e+03 1.071864329167775853e+00 6.580561937093688633e-03
6.117139611643028729e+03 1.072571339528069823e+00 5.648872094824068830e-03
6.123256751254673873e+03 1.075487765408901675e+00 4.637697010276054833e-03
6.129380008005929994e+03 1.080138723889291219e+00 3.770813146633617170e-03
6.135509388013938405e+03 1.085841757386431183e+00 3.141662163435172440e-03
6.141644897401954040e+03 1.092235154108684325e+00 2.623908393515327845e-03
6.147786542299358189e+03 1.098956211261570726e+00 2.342225641595325775e-03
6.153934328841659408e+03 1.105619659228135987e+00 2.293396765044476617e-03
6.160088263170503524e+03 1.112571110059165536e+00 2.269503814527302349e-03
6.166248351433675452e+03 1.120170558659081550e+00 2.212214981250371429e-03
6.172414599785111022e+03 1.128534747332440746e+00 2.147290380997471035e-03
6.178587014384898794e+03 1.138132686332252730e+00 2.107971957287691541e-03
6.184765601399285515e+03 1.148154889603283824e+00 2.045451624331913205e-03
6.190950367000687038e+03 1.159168089462491613e+00 2.024440437399592421e-03
6.197141317367689226e+03 1.170537083052702432e+00 2.145665573646325913e-03
6.203338458685059777e+03 1.181780250183095182e+00 2.293385291779233802e-03
6.209541797143746408e+03 1.192635286148870044e+00 2.535086374128517426e-03
6.215751338940892310e+03 1.201600869314580322e+00 2.621837403118017391e-03
6.221967090279835247e+03 1.210545803997580716e+00 2.962388378006570750e-03
6.228189057370116643e+03 1.218572004018616983e+00 3.421864662834402972e-03
6.234417246427488863e+03 1.224868686777029536e+00 3.650585992270011411e-03
6.240651663673918847e+03 1.229171126467637709e+00 3.662789559663709536e-03
6.246892315337594482e+03 1.230607962411581102e+00 3.498036706542589133e-03
6.253139207652934601e+03 1.230065774689581337e+00 3.177697968275911434e-03
6.259392346860589896e+03 1.226372612029162257e+00 2.664150093610044307e-03
6.265651739207452010e+03 1.220269961930982250e+00 2.177519219101219962e-03
6.271917390946661726e+03 1.208431992522057685e+00 2.659262274777811092e-03
6.278189308337610782e+03 1.192827484889052547e+00 3.163152138900519796e-03
6.284467497645950061e+03 1.175153635991741385e+00 3.026152689929912949e-03
6.290751965143597772e+03 1.154063372220937023e+00 2.973063103004854393e-03
6.297042717108744000e+03 1.129938828619152957e+00 2.116665989398392855e-03
6.303339759825854344e+03 1.107728615104726311e+00 1.509591002713146562e-03
6.309643099585682648e+03 1.086294444615317101e+00 1.026732541693525357e-03
6.315952742685270096e+03 1.066150702348867441e+00 7.311003229283740811e-04
6.322268695427957937e+03 1.047883364698602104e+00 6.344354025065131793e-04
6.328590964123387494e+03 1.032194692287175863e+00 7.087715463205155947e-04
6.334919555087512890e+03 1.018363572146278706e+00 7.477394535672670555e-04
6.341254474642602872e+03 1.007070300993542222e+00 8.114438955637673671e-04
6.347595729117247174e+03 9.977728222218483767e-01 7.610054679169096824e-04
6.353943324846366522e+03 9.905604862160817259e-01 7.792396034442297366e-04
6.360297268171215364e+03 9.854318163442729039e-01 8.373380245325198670e-04
6.366657565439388236e+03 9.821395671664824301e-01 1.095595624204095519e-03
6.373024223004829764e+03 9.804007213283314481e-01 1.128850187652801103e-03
6.379397247227837397e+03 9.801184504490050298e-01 1.069219436552478787e-03
6.385776644475066860e+03 9.812452630159705924e-01 9.597892604716669763e-04
6.392162421119543978e+03 9.833336926860968275e-01 8.293511962127319160e-04
6.398554583540665590e+03 9.864484533137802824e-01 1.388029545239958910e-03
6.404953138124208635e+03 9.905006628226574739e-01 2.276854938688761733e-03
6.411358091262334710e+03 9.930006702667251162e-01 3.006739749318779360e-03
6.417769449353599157e+03 9.923955262330732552e-01 3.426334094493239685e-03
6.424187218802954703e+03 9.857166167654143329e-01 3.160097269786512741e-03
6.430611406021760558e+03 9.743648183872665181e-01 2.800233768945007123e-03
6.437042017427784231e+03 9.563049263815432965e-01 2.245855722503799137e-03
6.443479059445214261e+03 9.309304673608521652e-01 2.158365937891142984e-03
6.449922538504661134e+03 8.995890371557409004e-01 2.628834926984408970e-03
6.456372461043168187e+03 8.629741879619832190e-01 3.417568396930826050e-03
6.462828833504213435e+03 8.237345421274886448e-01 3.861150199436890872e-03
6.469291662337719572e+03 7.858612849438670889e-01 3.779381456752967106e-03
6.475760954000059428e+03 7.525323877080642987e-01 3.004198534295424768e-03
6.482236714954061426e+03 7.274200017856636835e-01 2.298791597355621680e-03
6.488718951669017770e+03 7.119607154602272114e-01 1.517033419228960888e-03
6.495207670620688987e+03 7.083232869619477956e-01 9.778492604535934073e-04
6.501702878291312118e+03 7.185081063239669996e-01 8.596632763221232626e-04
6.508204581169605262e+03 7.422073759793663683e-01 9.249240780088696916e-04
6.514712785750777584e+03 7.777088842289103798e-01 1.055705028073652659e-03
6.521227498536530220e+03 8.240757951243998791e-01 1.642917956423407735e-03
6.527748726035069012e+03 8.797969564778801432e-01 2.572416128703802936e-03
6.534276474761106329e+03 9.418296539540500500e-01 3.407034533849598399e-03
6.540810751235869247e+03 1.006683711358781874e+00 4.027228555834969081e-03
6.547351561987107743e+03 1.070686346970495473e+00 4.076291509273628592e-03
6.553898913549096505e+03 1.129519967888503507e+00 3.713267661684371054e-03
6.560452812462647671e+03 1.180542632614603349e+00 2.704518513875832884e-03
6.567013265275112644e+03 1.221369007431079234e+00 2.512521608422082445e-03
6.573580278540390282e+03 1.251952693150712559e+00 2.974942607237333718e-03
6.580153858818932349e+03 1.271699222455597633e+00 3.452858704486691695e-03
6.586734012677753526e+03 1.281325054890825932e+00 3.319171047657525596e-03
6.593320746690433225e+03 1.282876875451817389e+00 2.666574521745916984e-03
6.599914067437126505e+03 1.277790235257514118e+00 2.115377980542741503e-03
6.606513981504565891e+03 1.268123389143585245e+00 1.816275139284618135e-03
6.613120495486072286e+03 1.254819594922421677e+00 1.781749892797630103e-03
6.619733615981560433e+03 1.240104774153579781e+00 1.869153449718847582e-03
6.626353349597544366e+03 1.226458823079639382e+00 2.048130421942976655e-03
6.632979702947143778e+03 1.213611212681572571e+00 2.137549147741302138e-03
6.639612682650093120e+03 1.202072792852809435e+00 2.022853174433766714e-03
6.646252295332745234e+03 1.192441925831851490e+00 2.128533645766425737e-03
6.652898547628080451e+03 1.184587131659847081e+00 2.797271085148693697e-03
6.659551446175711135e+03 1.177887518311056869e+00 3.789966054029873972e-03
6.666210997621888964e+03 1.171399824518272625e+00 4.275912409298634684e-03
6.672877208619513112e+03 1.163608083854486663e+00 3.690952353817647004e-03
6.679550085828134797e+03 1.152835231488830159e+00 2.691726807775545426e-03
6.686229635913964557e+03 1.138157657657382194e+00 3.301013785083189208e-03
6.692915865549881346e+03 1.120796676587074048e+00 4.187698317313650297e-03
6.699608781415433441e+03 1.101986589887247625e+00 4.300951609473076948e-03
6.706308390196851178e+03 1.083392619836080373e+00 3.706770835140912011e-03
6.713014698587049679e+03 1.065940045186504204e+00 3.059858607451522612e-03
6.719727713285638856e+03 1.051254527645734571e+00 2.920669374352611713e-03
6.726447440998927050e+03 1.039401127752559439e+00 2.913614152813302077e-03
6.733173888439928305e+03 1.031547349436363836e+00 2.910808654964965048e-03
6.739907062328370557e+03 1.026946613939529351e+00 2.880110640095741564e-03
6.746646969390701088e+03 1.025636109303727839e+00 2.780999225981505788e-03
6.753393616360093802e+03 1.026750516761332888e+00 2.728779644879471191e-03
6.760147009976456502e+03 1.029101563536279240e+00 2.731623221356452996e-03
6.766907156986434529e+03 1.032348681960979286e+00 2.749350009047725040e-03
6.773674064143423493e+03 1.035492048258491948e+00 3.065259410931156590e-03
6.780447738207569273e+03 1.038212524628260747e+00 4.077876780776674460e-03
6.787228185945778932e+03 1.038823853588006330e+00 4.429455584847395884e-03
6.794015414131727084e+03 1.035636665564242831e+00 3.692130910932106720e-03
6.800809429545861349e+03 1.026316845303302472e+00 2.288753417972539100e-03
6.807610238975408720e+03 1.009072116817417264e+00 2.307588216077330247e-03
6.814417849214386479e+03 9.845326891721408735e-01 2.866414925919485903e-03
6.821232267063603103e+03 9.542303960471986146e-01 2.957054186853517227e-03
6.828053499330669183e+03 9.203381070752604254e-01 2.550521924373475371e-03
6.834881552830001965e+03 8.847717551172059602e-01 2.378047798113073780e-03
6.841716434382834450e+03 8.492729611308037496e-01 1.971492183193945726e-03
6.848558150817219939e+03 8.161568119212166961e-01 1.625090261825733445e-03
6.855406708968039311e+03 7.873910291818102536e-01 1.243747452884926084e-03
6.862262115677009206e+03 7.642185397752521148e-01 1.225890827150903639e-03
6.869124377792688392e+03 7.477421239276078602e-01 1.499119964498361966e-03
6.875993502170483225e+03 7.390056516604662784e-01 1.762513275498859677e-03
6.882869495672656740e+03 7.381593114723852267e-01 1.873763497249212586e-03
6.889752365168331380e+03 7.457991652732566257e-01 1.648669885084325885e-03
6.896642117533501732e+03 7.618353785151925628e-01 1.638156778895027022e-03
6.903538759651037253e+03 7.855193789702284990e-01 2.047939133736649715e-03
6.910442298410691365e+03 8.165339601470339437e-01 2.725166402867208997e-03
6.917352740709104182e+03 8.520486430991510707e-01 3.284870872239897561e-03
6.924270093449815249e+03 8.895071282951043656e-01 3.189232034482165131e-03
6.931194363543267173e+03 9.257254157591066068e-01 2.672373341932295001e-03
6.938125557906812901e+03 9.580551138578753401e-01 2.235058305995994438e-03
6.945063683464722089e+03 9.859411021017674415e-01 1.697148342111843514e-03
6.952008747148189286e+03 1.007730695715446378e+00 1.748183836996982298e-03
6.958960755895339389e+03 1.023479663675140205e+00 2.250094148345719181e-03
6.965919716651237650e+03 1.032749027884827475e+00 2.600949564617289957e-03
6.972885636367890584e+03 1.037366952133093045e+00 2.407927470233412349e-03
6.979858522004260521e+03 1.039166849668762271e+00 1.614814226713808757e-03
6.986838380526267429e+03 1.039911640897184242e+00 1.343842888156495437e-03
6.993825218906796181e+03 1.039023134151165761e+00 1.158689769715221972e-03
7.000819044125705659e+03 1.037588896264864502e+00 1.071957073987934604e-03
7.007819863169833297e+03 1.036618513226828409e+00 1.085219039059335524e-03
7.014827683033005087e+03 1.036386345787784657e+00 1.101090663001863578e-03
7.021842510716041033e+03 1.037058752518964511e+00 9.920069922664121864e-04
7.028864353226758794e+03 1.038148809301945086e+00 1.005948137741907505e-03
7.035893217579988232e+03 1.039726269386828772e+00 9.793154175570108026e-04
7.042929110797570502e+03 1.042218998171855038e+00 1.009516834773434854e-03
7.049972039908370789e+03 1.045761401367282017e+00 1.278726253188275028e-03
7.057022011948281033e+03 1.049602775952952260e+00 1.528441366803812325e-03
7.064079033960231754e+03 1.052975752163866741e+00 1.495784105977287061e-03
7.071143112994193871e+03 1.056222453367425818e+00 1.446905505148911265e-03
7.078214256107190522e+03 1.059309054575230835e+00 1.147134826612852777e-03
7.085292470363300708e+03 1.061123744988500928e+00 1.106776712751949329e-03
7.092377762833665656e+03 1.061978792184457232e+00 1.249229960879990079e-03
7.099470140596501551e+03 1.061278553906140898e+00 1.774935995651226017e-03
7.106569610737100447e+03 1.060878265115492214e+00 1.655372654993822424e-03
7.113676180347840273e+03 1.062504901595529461e+00 1.489958527062029865e-03
7.120789856528190285e+03 1.065973479728615114e+00 1.903284764155507847e-03
7.127910646384721076e+03 1.069408486638671274e+00 2.113823430446244971e-03
7.135038557031108212e+03 1.072758826853859038e+00 2.114819516243156717e-03
7.142173595588141325e+03 1.076857332765629005e+00 2.099533797360763569e-03
7.149315769183732300e+03 1.082240014136981454e+00 2.029855788494020190e-03
7.156465084952918005e+03 1.087502384812018663e+00 2.173655613849545445e-03
7.163621550037873021e+03 1.090971882959722361e+00 2.129757898996117484e-03
7.170785171587913283e+03 1.092869020725974583e+00 2.401046664426867688e-03
7.177955956759504261e+03 1.094365465738886378e+00 2.426743943162076086e-03
7.185133912716265513e+03 1.096159803198024640e+00 2.438341008489983575e-03
7.192319046628984324e+03 1.097346836361452693e+00 2.465374817202517672e-03
7.199511365675615707e+03 1.096951757208903810e+00 2.451984392209546025e-03
7.206710877041294225e+03 1.097295711043824840e+00 2.498068528028141600e-03
7.213917587918337631e+03 1.099034990181389837e+00 2.538915993817991972e-03
7.221131505506257781e+03 1.101073262552145993e+00 2.547620536658678873e-03
7.228352637011767001e+03 1.102388315451263034e+00 2.579339125136332657e-03
7.235580989648780815e+03 1.102471729154424152e+00 2.641483870359750876e-03
7.242816570638432495e+03 1.103830561227001184e+00 2.492545497264838771e-03
7.250059387209073066e+03 1.107094515919956779e+00 2.743767091103139610e-03
7.257309446596284033e+03 1.110598420972991773e+00 2.587065536992472561e-03
7.264566756042882844e+03 1.112649259070452201e+00 2.771301213508013239e-03
7.271831322798928340e+03 1.113625405696302195e+00 2.715733844909795029e-03
7.279103154121729858e+03 1.115573440785081694e+00 2.944585196742373692e-03
7.286382257275853590e+03 1.118136276832795373e+00 3.649078598210662907e-03
7.293668639533132591e+03 1.118692444465617664e+00 3.372874535776242914e-03
7.300962308172667690e+03 1.114741363868177793e+00 3.400567361705220202e-03
7.308263270480842948e+03 1.107676159934193993e+00 3.516113397761943139e-03
7.315571533751325660e+03 1.099967123032284722e+00 3.538017229405643858e-03
7.322887105285079997e+03 1.090614946133161123e+00 3.474806916717029532e-03
7.330209992390367006e+03 1.078759065402978168e+00 3.760026710823327796e-03
7.337540202382760071e+03 1.064784062450218727e+00 3.886938876548614013e-03
7.344877742585144915e+03 1.052569222984818031e+00 3.585260167235838728e-03
7.352222620327733239e+03 1.043809134030231123e+00 3.745237571167714472e-03
7.359574842948062724e+03 1.036462694553339281e+00 3.773834360624406855e-03
7.366934417791013402e+03 1.030550620453616117e+00 3.792148588356349277e-03
7.374301352208806748e+03 1.028388988162949991e+00 3.682069664112690242e-03
7.381675653561018407e+03 1.032381466325829056e+00 3.964734797822801887e-03
7.389057329214581841e+03 1.040434158903124517e+00 3.556671654513294655e-03
7.396446386543798326e+03 1.049221230779164182e+00 4.219210746827808077e-03
7.403842832930345139e+03 1.059678742751984704e+00 4.507147952436780895e-03
7.411246675763277381e+03 1.074369543082522194e+00 4.239956262042853148e-03
7.418657922439043432e+03 1.094033943117158625e+00 5.148567054723223943e-03
7.426076580361484957e+03 1.115935198845088738e+00 5.876817345468519568e-03
7.433502656941848727e+03 1.135762026187305818e+00 6.092902634285565777e-03
7.440936159598792983e+03 1.151795252713656792e+00 6.417786855435343198e-03
7.448377095758394717e+03 1.166500113254216986e+00 6.767218252721379605e-03
7.455825472854155123e+03 1.181669663901616207e+00 6.616157737796174963e-03
7.463281298327012337e+03 1.192363880700873846e+00 6.653768540040566962e-03
7.470744579625341430e+03 1.197096077408170034e+00 6.628642519284608063e-03
7.478215324204968965e+03 1.196233039691598998e+00 6.258126983779178053e-03
7.485693539529176633e+03 1.192693573021253117e+00 6.230008696851606353e-03
7.493179233068708527e+03 1.187606613366985808e+00 6.242475350107835885e-03
7.500672412301779332e+03 1.180155150098363137e+00 5.711328213970481849e-03
7.508173084714083416e+03 1.171810935718886171e+00 5.273299109445992588e-03
7.515681257798800289e+03 1.163658397826429880e+00 5.446269258178079720e-03
7.523196939056601877e+03 1.154450045600894814e+00 4.481001012716611699e-03
7.530720135995660712e+03 1.139401245389942474e+00 3.986514781682757615e-03
7.538250856131659020e+03 1.117035797241090034e+00 3.749762968269597114e-03
7.545789106987793275e+03 1.091496900450400487e+00 3.539677723606656119e-03
7.553334896094783289e+03 1.063710454639325453e+00 4.081241685482454862e-03
7.560888230990880402e+03 1.031329126935240481e+00 3.962036086748927863e-03
7.568449119221873843e+03 9.926545038929457387e-01 3.112822650014403312e-03
7.576017568341098013e+03 9.461078082840701509e-01 3.330077105541253118e-03
7.583593585909441572e+03 8.932429677044838590e-01 4.332294357941627282e-03
7.591177179495353812e+03 8.386863681648594193e-01 4.268721212841926002e-03
7.598768356674851930e+03 7.859528687311955197e-01 4.091475599063383768e-03
7.606367125031529213e+03 7.359445033063900521e-01 3.941840668561147690e-03
7.613973492156563225e+03 6.912934729324237138e-01 3.942539638772937435e-03
7.621587465648722173e+03 6.515795013622083243e-01 4.299819648219033869e-03
7.629209053114373091e+03 6.194715260697187809e-01 4.973856441146055039e-03
7.636838262167490029e+03 5.987718661499379369e-01 5.249048979967289690e-03
7.644475100429660415e+03 5.937519562391719852e-01 4.877532666766225093e-03
7.652119575530092334e+03 6.052367269267678873e-01 4.736032563936135899e-03
7.659771695105625440e+03 6.337086205881297118e-01 5.114659005861187969e-03
7.667431466800733688e+03 6.757103433231586020e-01 5.571801998761499210e-03
7.675098898267536242e+03 7.277186753440155753e-01 6.375660792238215142e-03
7.682773997165806577e+03 7.873141213339082123e-01 7.512820581977379397e-03
7.690456771162975201e+03 8.522618784300785011e-01 7.875726508589453098e-03
7.698147227934140574e+03 9.189564011716057079e-01 6.928717912454971858e-03
7.705845375162077289e+03 9.826797394850039780e-01 5.040070317485600970e-03
7.713551220537241534e+03 1.039068322142694178e+00 4.291028278163010537e-03
7.721264771757782000e+03 1.086205328578473628e+00 4.733571819266839051e-03
7.728986036529541707e+03 1.122759335757024246e+00 4.254726364444493154e-03
7.736715022566074367e+03 1.151590629809176702e+00 3.284308389114364533e-03
7.744451737588642573e+03 1.172857195250939011e+00 3.197960174112186166e-03
7.752196189326234162e+03 1.186835902799179276e+00 3.595425727936332923e-03
7.759948385515562222e+03 1.194111240570644661e+00 3.041248676993015335e-03
7.767708333901080550e+03 1.191814439028917372e+00 4.226495729964569077e-03
7.775476042234984561e+03 1.183149800875315183e+00 6.459152071200594154e-03
7.783251518277222203e+03 1.172235030446524329e+00 7.331250831565547417e-03
7.791034769795502143e+03 1.162940310141597156e+00 7.159937731758833114e-03
7.798825804565300132e+03 1.155482166874455707e+00 6.406830268973506305e-03
7.806624630369868100e+03 1.152167128219778514e+00 6.323169119886877347e-03
7.814431255000240526e+03 1.151706182148024560e+00 6.646000612414668454e-03
7.822245686255242617e+03 1.154839852735273231e+00 7.176197984702894356e-03
7.830067931941501229e+03 1.161219581330499073e+00 7.134939058873762500e-03
7.837897999873444860e+03 1.168257428765322681e+00 6.318464898526063647e-03
7.845735897873320937e+03 1.175077579374942616e+00 5.088868187004482076e-03
7.853581633771196721e+03 1.178552207189316192e+00 4.407294616238220143e-03
7.861435215404970222e+03 1.175710536426449071e+00 4.483498531604513705e-03
7.869296650620378387e+03 1.167818248768241363e+00 4.369730824308104035e-03
7.877165947271001642e+03 1.153794213244147659e+00 3.866934070518335351e-03
7.885043113218274812e+03 1.135852222041496606e+00 4.092377357401413493e-03
7.892928156331495302e+03 1.113983952393935883e+00 4.292095055104578998e-03
7.900821084487829467e+03 1.088531938266308119e+00 3.652583457955999556e-03
7.908721905572319884e+03 1.059559911286469980e+00 2.629186979096414991e-03
7.916630627477895359e+03 1.024840464366137294e+00 3.812316556432960961e-03
7.924547258105375477e+03 9.869276603420464866e-01 4.875786871626764697e-03
