# starting wavelength: 3439.890
# ending wavelength: 7272.510
# wav flux eflux
3.443133341944131189e+03 2.144998473631668734e+00 1.905681251199454335e-02
3.446576475286076402e+03 2.190237184883675692e+00 1.789188754675891113e-02
3.450023051761363604e+03 2.227944304647487161e+00 1.556130165857456601e-02
3.453473074813126004e+03 2.258338967479021075e+00 1.332464873998015324e-02
3.456926547887940615e+03 2.281899698981704638e+00 1.089764261928791514e-02
3.460383474435829612e+03 2.300751824928078282e+00 9.269546229150707126e-03
3.463843857910266706e+03 2.315918365019551395e+00 8.133411987754276054e-03
3.467307701768178049e+03 2.325927499261754239e+00 7.268486204003206039e-03
3.470775009469947236e+03 2.332165233809620819e+00 6.577458839686751123e-03
3.474245784479418489e+03 2.335505108257959428e+00 6.081264291218441143e-03
3.477720030263898934e+03 2.334797631755304970e+00 5.679017202666820571e-03
3.481197750294164052e+03 2.330635566938244807e+00 5.367468127423309122e-03
3.484678948044459503e+03 2.323907779675356444e+00 5.141666663802265357e-03
3.488163626992504760e+03 2.313315733859317103e+00 4.963879501756245961e-03
3.491651790619498570e+03 2.299690775146655319e+00 4.928613509887213272e-03
3.495143442410119405e+03 2.284331312035645212e+00 5.029572239436957623e-03
3.498638585852530468e+03 2.266345755317570987e+00 4.985231163129173054e-03
3.502137224438384237e+03 2.246954732481761141e+00 4.939324505115866813e-03
3.505639361662823831e+03 2.226444457247624520e+00 4.950940595556626612e-03
3.509145001024487556e+03 2.205363286364060205e+00 4.942834027207962562e-03
3.512654146025513455e+03 2.183402496960768158e+00 5.068161018712243407e-03
3.516166800171540217e+03 2.162726045994725954e+00 5.048360200893103368e-03
3.519682966971712631e+03 2.143221952439898548e+00 5.048264637351855544e-03
3.523202649938685681e+03 2.122284007609906098e+00 5.201174236236475942e-03
3.526725852588625457e+03 2.104674811760865794e+00 5.187837053030360315e-03
3.530252578441215064e+03 2.088144325789381917e+00 5.153130711211137416e-03
3.533782831019657806e+03 2.072035402621397626e+00 5.196264253858538275e-03
3.537316613850678550e+03 2.058393631536605817e+00 5.359149014316988251e-03
3.540853930464530094e+03 2.045008633437454204e+00 5.311891034693343693e-03
3.544394784394995895e+03 2.032431496117881320e+00 4.994935758675671592e-03
3.547939179179392340e+03 2.022641438217320342e+00 4.379075310894411412e-03
3.551487118358572843e+03 2.018064504629829781e+00 4.317903192709632645e-03
3.555038605476932389e+03 2.018646295585161177e+00 4.839858305746944089e-03
3.558593644082410719e+03 2.021619919620730510e+00 4.362383753051361779e-03
3.562152237726494150e+03 2.024590094600929202e+00 3.983971326129956587e-03
3.565714389964221937e+03 2.025553230615240619e+00 3.985998946140401414e-03
3.569280104354187188e+03 2.027091746039925368e+00 3.995554286404170465e-03
3.572849384458542772e+03 2.029487421498596067e+00 3.990588294679318915e-03
3.576422233843002232e+03 2.032573178761452048e+00 4.123888046194527403e-03
3.579998656076846601e+03 2.036573189277714135e+00 3.993368275804144024e-03
3.583578654732924406e+03 2.040140655481724075e+00 3.957723921971544913e-03
3.587162233387658489e+03 2.041901546736792028e+00 3.916029565682643647e-03
3.590749395621047370e+03 2.046033915899282629e+00 4.111168635414458143e-03
3.594340145016669794e+03 2.049297400034839178e+00 4.262091226346465846e-03
3.597934485161687462e+03 2.050701101286039663e+00 4.250805454311969850e-03
3.601532419646850485e+03 2.050705062249876587e+00 4.348617838367783116e-03
3.605133952066498296e+03 2.048224439688765663e+00 4.691800307491146571e-03
3.608739086018566013e+03 2.045556703211590666e+00 4.861919384361008435e-03
3.612347825104585809e+03 2.043771951740141812e+00 4.944887491196832581e-03
3.615960172929691907e+03 2.040698679473872179e+00 4.888207317622623831e-03
3.619576133102622407e+03 2.037341427075311628e+00 4.718946908082622890e-03
3.623195709235726554e+03 2.034867330390470741e+00 4.758973819147879411e-03
3.626818904944963379e+03 2.032602848136222384e+00 5.027445961154921455e-03
3.630445723849909427e+03 2.030363895751182035e+00 5.218692808675724076e-03
3.634076169573760581e+03 2.024751917846281835e+00 5.280382318544003806e-03
3.637710245743335690e+03 2.019709499783934437e+00 4.876523022777051741e-03
3.641347955989080219e+03 2.009468925493874014e+00 4.788717169289536876e-03
3.644989303945070333e+03 1.995077295860006261e+00 4.833651570414197220e-03
3.648634293249016537e+03 1.976332574182164237e+00 4.960216819680862178e-03
3.652282927542266862e+03 1.954828242745246580e+00 4.995784596719773929e-03
3.655935210469810499e+03 1.930483745116538641e+00 5.014599194877011890e-03
3.659591145680281443e+03 1.905729721257426679e+00 5.175485341769686838e-03
3.663250736825963031e+03 1.879102064386472648e+00 5.450604188628821282e-03
3.666913987562790226e+03 1.843670301873070017e+00 5.453786176325831070e-03
3.670580901550354156e+03 1.800638326291153390e+00 5.441814467273031579e-03
3.674251482451905758e+03 1.753951263569098806e+00 5.630289073645381587e-03
3.677925733934358959e+03 1.700529999312365925e+00 5.636242861851619226e-03
3.681603659668294313e+03 1.641459809385822144e+00 5.629771210285235833e-03
3.685285263327964003e+03 1.577099318307378484e+00 5.605683426926262765e-03
3.688970548591293209e+03 1.508557258788958855e+00 5.655209616359730199e-03
3.692659519139885560e+03 1.439858815421655835e+00 5.415881535517307575e-03
3.696352178659026777e+03 1.367573159287687190e+00 5.389460721183995766e-03
3.700048530837686940e+03 1.291831853131966801e+00 6.118097144284178647e-03
3.703748579368525952e+03 1.212869257821815649e+00 6.344064471416136983e-03
3.707452327947895355e+03 1.137178684629183811e+00 5.968846087671115901e-03
3.711159780275844696e+03 1.065209980646550481e+00 5.248217912380528233e-03
3.714870940056121526e+03 1.000391715706740348e+00 4.144545229749085555e-03
3.718585810996179134e+03 9.431313042285938142e-01 3.785523164304931912e-03
3.722304396807176545e+03 8.965898441344244407e-01 3.725742201717888256e-03
3.726026701203984885e+03 8.602538794769336583e-01 3.731717518586609699e-03
3.729752727905190113e+03 8.341269041491095049e-01 3.879595304094156111e-03
3.733482480633096657e+03 8.192947181685348301e-01 3.551454985036731331e-03
3.737215963113731050e+03 8.137519877858638839e-01 3.567490181407602032e-03
3.740953179076846027e+03 8.161419081039528178e-01 3.317425079619388921e-03
3.744694132255923705e+03 8.299436747307848972e-01 3.815853182945797093e-03
3.748438826388181042e+03 8.556583433649294079e-01 5.250750697208777899e-03
3.752187265214570289e+03 8.862052655494487841e-01 5.474833540992299699e-03
3.755939452479786269e+03 9.172430475666328853e-01 5.584812324038987245e-03
3.759695391932267285e+03 9.489150624489474106e-01 5.527266279836457255e-03
3.763455087324201031e+03 9.793106343906181621e-01 5.469719802679112904e-03
3.767218542411526414e+03 1.007949401051928540e+00 6.051885767074979827e-03
3.770985760953939007e+03 1.037668513030989503e+00 6.389347951426221743e-03
3.774756746714894234e+03 1.064926442174171761e+00 6.386839034364022102e-03
3.778531503461610555e+03 1.088722324317556112e+00 6.868439315966219823e-03
3.782310034965073100e+03 1.107521985124017005e+00 6.823574211944072321e-03
3.786092345000039586e+03 1.122086313253383816e+00 6.847527579000799516e-03
3.789878437345040766e+03 1.131456115706575227e+00 6.829476288269749340e-03
3.793668315782387253e+03 1.137360457249220413e+00 6.830351131561031297e-03
3.797461984098170888e+03 1.141008079091728078e+00 6.905240801159634283e-03
3.801259446082270188e+03 1.142122576642089049e+00 7.077544143094865667e-03
3.805060705528353537e+03 1.144361129388478782e+00 6.970036237831434001e-03
3.808865766233883278e+03 1.145776063854904825e+00 7.404751008506730257e-03
3.812674632000118436e+03 1.144212296700825693e+00 7.098705153156961364e-03
3.816487306632119726e+03 1.142870426479148938e+00 6.594982941724438115e-03
3.820303793938753188e+03 1.144187350082707777e+00 5.470694336418135441e-03
3.824124097732693372e+03 1.150726432306672598e+00 5.609536912069226604e-03
3.827948221830427428e+03 1.164117913720416952e+00 5.929852199152006731e-03
3.831776170052258749e+03 1.179319942858208403e+00 5.268282874256449352e-03
3.835607946222312421e+03 1.195996493169077635e+00 3.919023782528103725e-03
3.839443554168536139e+03 1.212388741331940967e+00 2.594018558151466470e-03
3.843282997722705659e+03 1.221379882756727708e+00 3.753471961473950347e-03
3.847126280720429804e+03 1.232318443746811987e+00 3.317130221549092605e-03
3.850973407001151372e+03 1.246885960314485065e+00 3.430670485275148437e-03
3.854824380408153957e+03 1.262622159250882614e+00 3.459811392982719853e-03
3.858679204788563311e+03 1.278232849770613022e+00 3.722503619945489312e-03
3.862537883993353262e+03 1.298100291165662723e+00 3.912326403530581170e-03
3.866400421877347981e+03 1.320571096259042010e+00 5.107288076872850725e-03
3.870266822299226533e+03 1.352196089668454837e+00 4.996677352906491072e-03
3.874137089121526969e+03 1.391176931812299289e+00 4.735347268612880196e-03
3.878011226210649966e+03 1.441382739702121052e+00 4.547952375357581893e-03
3.881889237436861549e+03 1.502367941757681402e+00 5.163986131787435749e-03
3.885771126674299921e+03 1.569963163032636944e+00 5.264203735802565863e-03
3.889656897800975457e+03 1.642640526639987941e+00 5.284679533573187829e-03
3.893546554698777527e+03 1.721489540956148812e+00 5.339700249581955972e-03
3.897440101253477678e+03 1.803836771576897924e+00 5.421026159888771290e-03
3.901337541354732366e+03 1.886183281346721641e+00 4.912047966293574784e-03
3.905238878896088409e+03 1.965229804161526150e+00 4.592697813661126074e-03
3.909144117774985716e+03 2.040417412992189039e+00 4.246665443175124365e-03
3.913053261892762293e+03 2.107571271022065318e+00 3.925923389518175093e-03
3.916966315154656058e+03 2.161204199620410549e+00 3.280816282282553002e-03
3.920883281469812118e+03 2.209253906577079096e+00 3.431763893582727779e-03
3.924804164751283224e+03 2.248102725488341669e+00 3.380238115070396607e-03
3.928728968916035683e+03 2.276758697787198749e+00 3.152029534456093733e-03
3.932657697884953450e+03 2.293718042109634592e+00 3.362285838786725420e-03
3.936590355582839493e+03 2.301448171361787143e+00 3.737597034362427455e-03
3.940526945938423523e+03 2.299152128246438220e+00 3.220603021051059601e-03
3.944467472884363360e+03 2.291572145627243984e+00 3.215402625094163514e-03
3.948411940357249023e+03 2.275950938386076317e+00 2.687516675209978678e-03
3.952360352297607733e+03 2.256430252317482843e+00 2.984541090155360017e-03
3.956312712649906643e+03 2.234791876320100901e+00 3.993618643850934367e-03
3.960269025362557841e+03 2.212472259865613466e+00 4.110733317728150309e-03
3.964229294387921527e+03 2.191208018073948161e+00 4.075289292783701098e-03
3.968193523682310570e+03 2.173867633018573553e+00 4.097854580536341822e-03
3.972161717205994591e+03 2.163499763673927934e+00 3.922480695441055328e-03
3.976133878923201792e+03 2.158431108996320180e+00 4.498333925122157025e-03
3.980110012802126221e+03 2.157345423315514932e+00 5.109911304439666152e-03
3.984090122814929600e+03 2.160502558625798653e+00 5.705174842163190235e-03
3.988074212937745870e+03 2.162872927158645098e+00 5.767339293205167410e-03
3.992062287150684824e+03 2.162269626678802403e+00 5.860684032903198080e-03
3.996054349437837118e+03 2.158844976675004634e+00 4.303112432981396826e-03
4.000050403787276082e+03 2.147497487792711546e+00 3.694701753027654443e-03
4.004050454191064546e+03 2.129203828459979242e+00 3.735902212247606789e-03
4.008054504645257111e+03 2.102409395262538006e+00 3.695540959141417961e-03
4.012062559149903791e+03 2.068812388310973471e+00 2.939182449195795830e-03
4.016074621709055009e+03 2.030206777596610390e+00 2.814010118364339199e-03
4.020090696330765240e+03 1.985943256733984530e+00 3.355704742268387532e-03
4.024110787027097558e+03 1.938740477828257092e+00 4.374893007486940245e-03
4.028134897814125907e+03 1.891076659513000857e+00 5.114505919294796629e-03
4.032163032711941469e+03 1.847202102342538454e+00 4.861891374174536970e-03
4.036195195744654484e+03 1.807898605204335540e+00 4.903423497364024601e-03
4.040231390940400615e+03 1.770196852353738137e+00 4.773586213542533284e-03
4.044271622331342314e+03 1.737619937135729264e+00 4.658287207502414227e-03
4.048315893953675186e+03 1.710721183792611955e+00 4.665426785307662076e-03
4.052364209847629809e+03 1.689255081532696767e+00 4.605830793647150596e-03
4.056416574057479011e+03 1.672331459337284887e+00 4.598230703010312316e-03
4.060472990631537868e+03 1.662066552078690584e+00 4.459693751474411161e-03
4.064533463622170530e+03 1.655807372890116369e+00 4.346991161583308068e-03
4.068597997085794304e+03 1.654138486745108994e+00 4.530060456131979225e-03
4.072666595082881486e+03 1.652094125911646616e+00 4.526337215132993086e-03
4.076739261677965715e+03 1.648003404785567172e+00 4.411540586864098369e-03
4.080816000939644709e+03 1.644916121505953122e+00 4.612910374905979105e-03
4.084896816940585722e+03 1.640348555008876774e+00 4.614512358582140844e-03
4.088981713757527814e+03 1.635872587769145348e+00 4.099881391410411559e-03
4.093070695471286854e+03 1.628882305004586861e+00 3.094026363947842070e-03
4.097163766166759160e+03 1.616123971118510694e+00 3.570176441072112853e-03
4.101260929932927866e+03 1.600591050046734853e+00 3.345194605029430755e-03
4.105362190862862008e+03 1.582523494714093593e+00 2.490332196549235270e-03
4.109467553053726078e+03 1.565553975076394932e+00 2.400423182221576857e-03
4.113577020606780934e+03 1.548741367309563355e+00 2.360722233347378740e-03
4.117690597627389252e+03 1.532144546970578780e+00 2.030745437692351146e-03
4.121808288225018259e+03 1.519583784139430183e+00 1.875932627477332106e-03
4.125930096513244280e+03 1.508062966843473518e+00 2.184550630636518647e-03
4.130056026609759101e+03 1.499921968220878643e+00 2.183976872199033716e-03
4.134186082636369974e+03 1.494456536676969316e+00 1.997493569754181259e-03
4.138320268719007800e+03 1.493449925625184749e+00 1.966559443193321988e-03
4.142458588987728035e+03 1.496225699878389159e+00 2.335841095697374029e-03
4.146601047576717065e+03 1.503185487768564865e+00 2.274905327787247241e-03
4.150747648624294925e+03 1.510263844855354476e+00 2.231212017053554528e-03
4.154898396272920763e+03 1.517896176006410025e+00 2.230923882668917665e-03
4.159053294669195566e+03 1.528318757826887531e+00 2.002783971207019488e-03
4.163212347963865795e+03 1.537658791749817677e+00 1.938833448269698103e-03
4.167375560311830668e+03 1.547186547638950804e+00 1.764411366818369317e-03
4.171542935872143971e+03 1.554193250535370163e+00 1.820069741541962497e-03
4.175714478808017702e+03 1.557973623232224103e+00 1.840004145087913373e-03
4.179890193286827525e+03 1.559388176782745994e+00 2.720311910539924272e-03
4.184070083480115500e+03 1.559738983901919784e+00 3.022596858994905378e-03
4.188254153563597356e+03 1.560834629434265874e+00 2.898950817300434760e-03
4.192442407717161586e+03 1.562127542046211959e+00 2.898127669542214114e-03
4.196634850124880359e+03 1.562875575910538384e+00 2.879278178191944579e-03
4.200831484975006788e+03 1.563791465915302270e+00 2.854317155966073702e-03
4.205032316459983122e+03 1.563443033165950347e+00 2.797450795876099770e-03
4.209237348776444378e+03 1.563921741049038694e+00 2.910987169368096233e-03
4.213446586125221984e+03 1.563216625121208070e+00 3.004382498670715284e-03
4.217660032711349231e+03 1.561826412474433434e+00 2.894250093413828443e-03
4.221877692744061278e+03 1.559369317102460295e+00 2.637976581942396825e-03
4.226099570436806971e+03 1.555101428215681203e+00 2.882747935416287138e-03
4.230325670007245208e+03 1.549454925917908454e+00 2.795563054483502820e-03
4.234555995677254032e+03 1.542881646659859163e+00 2.642607162562917063e-03
4.238790551672932452e+03 1.535199895350372712e+00 2.581186058171947798e-03
4.243029342224606808e+03 1.526607438527807670e+00 2.478698858316525592e-03
4.247272371566832589e+03 1.518991052080181925e+00 2.374940337052619185e-03
4.251519643938400804e+03 1.511435129925934095e+00 2.120919592174164061e-03
4.255771163582340705e+03 1.502796929014183602e+00 2.493093777252540586e-03
4.260026934745924336e+03 1.493432569940643662e+00 2.429016781777200255e-03
4.264286961680671993e+03 1.485881295441934924e+00 2.128614300144934975e-03
4.268551248642354039e+03 1.480240526250864663e+00 2.144328951067773614e-03
4.272819799890998183e+03 1.475566545692306386e+00 2.146400373080189702e-03
4.277092619690890388e+03 1.471208673950625379e+00 2.355572444329534325e-03
4.281369712310583054e+03 1.466373076094824590e+00 2.462783413460615644e-03
4.285651082022895025e+03 1.461036753688907286e+00 2.806471311829817229e-03
4.289936733104918858e+03 1.455264060300736517e+00 2.944631767077419016e-03
4.294226669838025373e+03 1.445800663587675450e+00 2.237849770684456879e-03
4.298520896507864563e+03 1.431377058853809725e+00 1.973972665902791728e-03
4.302819417404373780e+03 1.412271900164973504e+00 2.486020443042101513e-03
4.307122236821779552e+03 1.389200053113547328e+00 2.508433901571982452e-03
4.311429359058603040e+03 1.364870469574110290e+00 2.375066282142160225e-03
4.315740788417662770e+03 1.338526181832839335e+00 2.649811468559373339e-03
4.320056529206081905e+03 1.311017971027595985e+00 2.473124144879390324e-03
4.324376585735290064e+03 1.285583706876235022e+00 2.081764964252263810e-03
4.328700962321026054e+03 1.262912079386661279e+00 2.371826369611054058e-03
4.333029663283348782e+03 1.241340054358350597e+00 2.448982889631021349e-03
4.337362692946633615e+03 1.221186434057948356e+00 2.626358511548038382e-03
4.341700055639581478e+03 1.202486124854813765e+00 2.699062927792456913e-03
4.346041755695222491e+03 1.185192711887713246e+00 2.364344474290539563e-03
4.350387797450919606e+03 1.167375311253100900e+00 1.953286513935770935e-03
4.354738185248371337e+03 1.148437547733903941e+00 2.025729111120804383e-03
4.359092923433621763e+03 1.129934077089957078e+00 2.006216030055598103e-03
4.363452016357056891e+03 1.110826134317232539e+00 1.900162797905236402e-03
4.367815468373414660e+03 1.092679500142212046e+00 2.016017806915280843e-03
4.372183283841789489e+03 1.075169573245146060e+00 1.945083126928922896e-03
4.376555467125633186e+03 1.057186967068591610e+00 3.350070859457365650e-03
4.380932022592760404e+03 1.042317165720817895e+00 3.593551410794649549e-03
4.385312954615354101e+03 1.032670618161115828e+00 3.406341288473954589e-03
4.389698267569970994e+03 1.029468032238879838e+00 3.239657234661930899e-03
4.394087965837542470e+03 1.032696558143541887e+00 3.220615200729639964e-03
4.398482053803381859e+03 1.040575940592840309e+00 3.029850090710520857e-03
4.402880535857186260e+03 1.054742051229370814e+00 3.474248227202905021e-03
4.407283416393044718e+03 1.074526391125117941e+00 4.191521526993645039e-03
4.411690699809440048e+03 1.097715873547500776e+00 4.156598026350230221e-03
4.416102390509250654e+03 1.120779050215845896e+00 3.800096396207474150e-03
4.420518492899761441e+03 1.144788353331716912e+00 3.246894958568777908e-03
4.424939011392662906e+03 1.167829276115327941e+00 2.795014579533956160e-03
4.429363950404056595e+03 1.187987171355320504e+00 3.034636878452662452e-03
4.433793314354462382e+03 1.205667172556075029e+00 3.084954905934294590e-03
4.438227107668818462e+03 1.220909517458030003e+00 2.462130815411361570e-03
4.442665334776488635e+03 1.236792240197790438e+00 2.172791896683332492e-03
4.447108000111265937e+03 1.252369347183747816e+00 2.120210346141906347e-03
4.451555108111379013e+03 1.268061179150226758e+00 2.468515434713769875e-03
4.456006663219492111e+03 1.284464415982474295e+00 2.965798185385626513e-03
4.460462669882713271e+03 1.301681841670251805e+00 2.771683231834673466e-03
4.464923132552597053e+03 1.323176479575071784e+00 2.796822254065346909e-03
4.469388055685150903e+03 1.347156890322447120e+00 3.068249497743577147e-03
4.473857443740837880e+03 1.372559744475935650e+00 3.155480464632868208e-03
4.478331301184580298e+03 1.397955209240865360e+00 3.146290566968773950e-03
4.482809632485766087e+03 1.423539273051708243e+00 3.126546160991298430e-03
