# starting wavelength: 3502.340
# ending wavelength: 8732.210
# wav flux eflux
3.505639361662823831e+03 1.105832341306201227e+00 1.685092644971895523e-02
3.509145001024487556e+03 1.082984929611203517e+00 1.433790287617888425e-02
3.512654146025513455e+03 1.071722324626482425e+00 1.259335036655270280e-02
3.516166800171540217e+03 1.069170724221350621e+00 1.429974596813415010e-02
3.519682966971712631e+03 1.066022566052764242e+00 1.130314234847722143e-02
3.523202649938685681e+03 1.062063527010616237e+00 8.840600128708670999e-03
3.526725852588625457e+03 1.058225564747929281e+00 7.159487538101517307e-03
3.530252578441215064e+03 1.054806780548526834e+00 5.886279633477415826e-03
3.533782831019657806e+03 1.051095608972570927e+00 5.022588122949607665e-03
3.537316613850678550e+03 1.046594336804014702e+00 4.249838668695182266e-03
3.540853930464530094e+03 1.040074267638947170e+00 3.731709834464418292e-03
3.544394784394995895e+03 1.031482857198562364e+00 3.276489161440602257e-03
3.547939179179392340e+03 1.019025374162981112e+00 3.332971927854925381e-03
3.551487118358572843e+03 1.003147395001714015e+00 3.584239284474276949e-03
3.555038605476932389e+03 9.853619856749094019e-01 3.490874105146747793e-03
3.558593644082410719e+03 9.654714582105888843e-01 3.376648495768385435e-03
3.562152237726494150e+03 9.444098643142749827e-01 3.227049806375323349e-03
3.565714389964221937e+03 9.205469176082974325e-01 3.133319263505242227e-03
3.569280104354187188e+03 8.949713429176142654e-01 3.004279940695972397e-03
3.572849384458542772e+03 8.673030863703583559e-01 2.857960734514566024e-03
3.576422233843002232e+03 8.371616733392169829e-01 2.745411047805422500e-03
3.579998656076846601e+03 8.052227289584069636e-01 2.784972396614934613e-03
3.583578654732924406e+03 7.722365332502759694e-01 2.881759393842480560e-03
3.587162233387658489e+03 7.381444503290167658e-01 3.162376367679236612e-03
3.590749395621047370e+03 7.035870139022293301e-01 3.753516424867956499e-03
3.594340145016669794e+03 6.696905705165674405e-01 4.169899699034980423e-03
3.597934485161687462e+03 6.387638723624142756e-01 4.265812820666740196e-03
3.601532419646850485e+03 6.065428214526985551e-01 4.794214505341921721e-03
3.605133952066498296e+03 5.765699900112678522e-01 5.089122665542660656e-03
3.608739086018566013e+03 5.489587796600881031e-01 4.952850891271404730e-03
3.612347825104585809e+03 5.254776511524412719e-01 4.563831225749709689e-03
3.615960172929691907e+03 5.057608687766382838e-01 4.148891433576803837e-03
3.619576133102622407e+03 4.898207502434407390e-01 4.198533055439396949e-03
3.623195709235726554e+03 4.794856287785375093e-01 4.675412007640490988e-03
3.626818904944963379e+03 4.724878641590785078e-01 4.987266056283167111e-03
3.630445723849909427e+03 4.694107282836619266e-01 5.320326583049671265e-03
3.634076169573760581e+03 4.693745464067639039e-01 5.481960503818290170e-03
3.637710245743335690e+03 4.715594385986573434e-01 5.497671797027296574e-03
3.641347955989080219e+03 4.754763482562439636e-01 5.477897191339880373e-03
3.644989303945070333e+03 4.814824477793030466e-01 5.540755053934844944e-03
3.648634293249016537e+03 4.904476708596814394e-01 5.353936295853753066e-03
3.652282927542266862e+03 5.009128200382543250e-01 5.154027178071222959e-03
3.655935210469810499e+03 5.132976423513855302e-01 4.675206403377496663e-03
3.659591145680281443e+03 5.263902258417156865e-01 4.190523792940570660e-03
3.663250736825963031e+03 5.399637004346279356e-01 3.783164927410327671e-03
3.666913987562790226e+03 5.526750606451176218e-01 3.878010871540109924e-03
3.670580901550354156e+03 5.632497807593088712e-01 3.927964439975253214e-03
3.674251482451905758e+03 5.737984856487958751e-01 3.492612724178159253e-03
3.677925733934358959e+03 5.853542548259901279e-01 3.128068145933253236e-03
3.681603659668294313e+03 5.975915553358908117e-01 2.906664378529977538e-03
3.685285263327964003e+03 6.101586178181983566e-01 2.955720118391154741e-03
3.688970548591293209e+03 6.219598943358302101e-01 2.848497092165074799e-03
3.692659519139885560e+03 6.343644647560690020e-01 2.826035672865443230e-03
3.696352178659026777e+03 6.470437887171528457e-01 2.798691760663441809e-03
3.700048530837686940e+03 6.598272349251322888e-01 2.809507076190575266e-03
3.703748579368525952e+03 6.736489094859244853e-01 2.817311358031781166e-03
3.707452327947895355e+03 6.875252610086683980e-01 2.681756460719487284e-03
3.711159780275844696e+03 7.007050062917269395e-01 2.789626360070825931e-03
3.714870940056121526e+03 7.137064771876675540e-01 2.833637316859548110e-03
3.718585810996179134e+03 7.267320359088518256e-01 2.828281084334107170e-03
3.722304396807176545e+03 7.378478594922313061e-01 2.552126928790940039e-03
3.726026701203984885e+03 7.499088986354612851e-01 2.712820362905010631e-03
3.729752727905190113e+03 7.621419280917457462e-01 3.129139817455838229e-03
3.733482480633096657e+03 7.737698294108867891e-01 3.577721801813804874e-03
3.737215963113731050e+03 7.843997171020626880e-01 3.852192003730815512e-03
3.740953179076846027e+03 7.936802524930619551e-01 3.761982942649625111e-03
3.744694132255923705e+03 8.002293666733697464e-01 3.581065185365690275e-03
3.748438826388181042e+03 8.046093773117978243e-01 3.462707402249610121e-03
3.752187265214570289e+03 8.070647499497819455e-01 3.655984614587211561e-03
3.755939452479786269e+03 8.092970255830910231e-01 3.785704480289605375e-03
3.759695391932267285e+03 8.087126143546999879e-01 4.271344736470634312e-03
3.763455087324201031e+03 8.081331278588176348e-01 4.562275430193498196e-03
3.767218542411526414e+03 8.067351558582204207e-01 4.877240451043498258e-03
3.770985760953939007e+03 8.051454026483844117e-01 5.023771019490625052e-03
3.774756746714894234e+03 8.020380918056042585e-01 4.476332230664038618e-03
3.778531503461610555e+03 8.019786366995167448e-01 3.653079681665605521e-03
3.782310034965073100e+03 8.043851536393049617e-01 2.947931317624567695e-03
3.786092345000039586e+03 8.093144104612851608e-01 2.736385612005345740e-03
3.789878437345040766e+03 8.175641551590553391e-01 2.871719219801666893e-03
3.793668315782387253e+03 8.298023350335332893e-01 3.013992164270323532e-03
3.797461984098170888e+03 8.441186307463666161e-01 2.961894856105950526e-03
3.801259446082270188e+03 8.606307116854546857e-01 2.939676049247064334e-03
3.805060705528353537e+03 8.786857194581728647e-01 2.835875689200000743e-03
3.808865766233883278e+03 8.972583648172749449e-01 2.378009000112249124e-03
3.812674632000118436e+03 9.169530218109160913e-01 1.813450507498917544e-03
3.816487306632119726e+03 9.363092778909652969e-01 1.353668384135712534e-03
3.820303793938753188e+03 9.544119928548694398e-01 1.368385750790742901e-03
3.824124097732693372e+03 9.721263413223540928e-01 1.389387397691615707e-03
3.827948221830427428e+03 9.886204774617685098e-01 1.351255266536645827e-03
3.831776170052258749e+03 1.004484390872219191e+00 1.341153293988669873e-03
3.835607946222312421e+03 1.020855198024248622e+00 1.293810618941369566e-03
3.839443554168536139e+03 1.037199762779543732e+00 1.290757541761731412e-03
3.843282997722705659e+03 1.053181203372961727e+00 1.421775505805413300e-03
3.847126280720429804e+03 1.069114442419062838e+00 1.694011177082624647e-03
3.850973407001151372e+03 1.084953484557030112e+00 1.795912336176962339e-03
3.854824380408153957e+03 1.101074782911910077e+00 1.734715106360990066e-03
3.858679204788563311e+03 1.118163457456262000e+00 2.045151690165511807e-03
3.862537883993353262e+03 1.137546504612314990e+00 1.890043167694585753e-03
3.866400421877347981e+03 1.158582176764556548e+00 1.858173655362413065e-03
3.870266822299226533e+03 1.181496471931413161e+00 1.810254403883202780e-03
3.874137089121526969e+03 1.206109517589589286e+00 2.078766841572957276e-03
3.878011226210649966e+03 1.232597797271308693e+00 2.398110712412626459e-03
3.881889237436861549e+03 1.259989931871992930e+00 2.440604234334312669e-03
3.885771126674299921e+03 1.286489928677057026e+00 2.425562904430552183e-03
3.889656897800975457e+03 1.312604845807210596e+00 2.408130667264376211e-03
3.893546554698777527e+03 1.338828240749576182e+00 2.272326535665433744e-03
3.897440101253477678e+03 1.362935853478415060e+00 2.188737348088374158e-03
3.901337541354732366e+03 1.384820077842957353e+00 2.087667951361588982e-03
3.905238878896088409e+03 1.404340934191634860e+00 2.161591616594238374e-03
3.909144117774985716e+03 1.421531486204042904e+00 2.162193950133152031e-03
3.913053261892762293e+03 1.435738176824588042e+00 2.128333994820375431e-03
3.916966315154656058e+03 1.446383526375284445e+00 2.107576347419832814e-03
3.920883281469812118e+03 1.454648079964070195e+00 2.362385786304984931e-03
3.924804164751283224e+03 1.459635935206859747e+00 2.905882223718815431e-03
3.928728968916035683e+03 1.461749990411791433e+00 2.962215911021216178e-03
3.932657697884953450e+03 1.458878070927142723e+00 2.813684178632529665e-03
3.936590355582839493e+03 1.451720044149413136e+00 3.180740988483245820e-03
3.940526945938423523e+03 1.441896620764267611e+00 3.513564072453865227e-03
3.944467472884363360e+03 1.429602003273674926e+00 3.811909671889461212e-03
3.948411940357249023e+03 1.414568789966540452e+00 3.975094713015248603e-03
3.952360352297607733e+03 1.398143196206977024e+00 3.390384978530142524e-03
3.956312712649906643e+03 1.382702435323639012e+00 2.966698318999414375e-03
3.960269025362557841e+03 1.369034940386828048e+00 3.057932084237608393e-03
3.964229294387921527e+03 1.356661020879295743e+00 3.469568428581670718e-03
3.968193523682310570e+03 1.343910624011910304e+00 3.669089157761586291e-03
3.972161717205994591e+03 1.333792050845582944e+00 3.910134494344409163e-03
3.976133878923201792e+03 1.323483106304749191e+00 3.834529135165771520e-03
3.980110012802126221e+03 1.316206987750703217e+00 3.276042364013243436e-03
3.984090122814929600e+03 1.306330984940259121e+00 4.317445874940865035e-03
3.988074212937745870e+03 1.297300598989759024e+00 4.505909401607125810e-03
3.992062287150684824e+03 1.290769253356752744e+00 4.290154815553621180e-03
3.996054349437837118e+03 1.285409031469430641e+00 4.699990545848472569e-03
4.000050403787276082e+03 1.279435184933090053e+00 5.119508077000464209e-03
4.004050454191064546e+03 1.273643186074805644e+00 5.333277930800425434e-03
4.008054504645257111e+03 1.267211781997298781e+00 4.956293389740022877e-03
4.012062559149903791e+03 1.258091678691574566e+00 4.590176836075160124e-03
4.016074621709055009e+03 1.245918652069811561e+00 4.899197662794896324e-03
4.020090696330765240e+03 1.233621877627889551e+00 5.196491471642393674e-03
4.024110787027097558e+03 1.218734391580071907e+00 5.389874923146561157e-03
4.028134897814125907e+03 1.202251035405962121e+00 5.390355771328897774e-03
4.032163032711941469e+03 1.183824583104145622e+00 4.967052807373207798e-03
4.036195195744654484e+03 1.164457374387583899e+00 4.305432450847037316e-03
4.040231390940400615e+03 1.147265910015841106e+00 3.674965277576265014e-03
4.044271622331342314e+03 1.134472421151737853e+00 4.186582267175761873e-03
4.048315893953675186e+03 1.124702608925785219e+00 4.399290912612141384e-03
4.052364209847629809e+03 1.116641173607683113e+00 3.606151517315847859e-03
4.056416574057479011e+03 1.107822666856664418e+00 2.940990142597574471e-03
4.060472990631537868e+03 1.097660880153719321e+00 3.380038417661865736e-03
4.064533463622170530e+03 1.085656700878760095e+00 3.563669444535170604e-03
4.068597997085794304e+03 1.076742768342247469e+00 3.037035901382606137e-03
4.072666595082881486e+03 1.070966069387036201e+00 3.517190339612756220e-03
4.076739261677965715e+03 1.066054053653030742e+00 3.803833275401360525e-03
4.080816000939644709e+03 1.061179969635084541e+00 3.786721462178764281e-03
4.084896816940585722e+03 1.056867811706122762e+00 3.858655019246555202e-03
4.088981713757527814e+03 1.054029474154173140e+00 3.977429745087133692e-03
4.093070695471286854e+03 1.052322032318142364e+00 3.954723462157836572e-03
4.097163766166759160e+03 1.052337019146571073e+00 3.841856040782347381e-03
4.101260929932927866e+03 1.055273049365122562e+00 3.811596944560558670e-03
4.105362190862862008e+03 1.060700456354647159e+00 3.788208081892094608e-03
4.109467553053726078e+03 1.066912123423275016e+00 3.775126886871747224e-03
4.113577020606780934e+03 1.072936614795455101e+00 3.525260706670124006e-03
4.117690597627389252e+03 1.081654075502486823e+00 3.352456853555733658e-03
4.121808288225018259e+03 1.094129229673621362e+00 3.345975871377847646e-03
4.125930096513244280e+03 1.109492723775046930e+00 3.253638283410162195e-03
4.130056026609759101e+03 1.126753208434333908e+00 3.135135461577467485e-03
4.134186082636369974e+03 1.144494964288788941e+00 3.117471724504871158e-03
4.138320268719007800e+03 1.161087869801727956e+00 2.858524293432382866e-03
4.142458588987728035e+03 1.176958767174752341e+00 2.889008809888482434e-03
4.146601047576717065e+03 1.193908175369675639e+00 4.568481403338207555e-03
4.150747648624294925e+03 1.208001267245220278e+00 4.823460276221411096e-03
4.154898396272920763e+03 1.215493131705789098e+00 3.627993976135506123e-03
4.159053294669195566e+03 1.214783839982096714e+00 3.530659558260357874e-03
4.163212347963865795e+03 1.206962424392789002e+00 4.397948764068157317e-03
4.167375560311830668e+03 1.193832760407726123e+00 4.982512156420941009e-03
4.171542935872143971e+03 1.176866652099578525e+00 5.212156008864860142e-03
4.175714478808017702e+03 1.157940466049464989e+00 4.732636368711601316e-03
4.179890193286827525e+03 1.139669946797772004e+00 3.847355675584746785e-03
4.184070083480115500e+03 1.124744422335789862e+00 3.653212350089083457e-03
4.188254153563597356e+03 1.112606468269885740e+00 4.045756441232972213e-03
4.192442407717161586e+03 1.102845069710076453e+00 4.275152193210532588e-03
4.196634850124880359e+03 1.095935311140860513e+00 3.994629890518125795e-03
4.200831484975006788e+03 1.091070238642779744e+00 3.662788973633335568e-03
4.205032316459983122e+03 1.088689160372364517e+00 3.261429054960054454e-03
4.209237348776444378e+03 1.087552635315261584e+00 3.151357989471548129e-03
4.213446586125221984e+03 1.086630489683191314e+00 3.230338412013676781e-03
4.217660032711349231e+03 1.084575614798399146e+00 3.108146500457315345e-03
4.221877692744061278e+03 1.082189243696481284e+00 3.013935738151707865e-03
4.226099570436806971e+03 1.081876486174774055e+00 2.974280319635225125e-03
4.230325670007245208e+03 1.081234689238573798e+00 2.661220849163560380e-03
4.234555995677254032e+03 1.079387514873737963e+00 3.177896064067390648e-03
4.238790551672932452e+03 1.077517054764629112e+00 3.606131975267709306e-03
4.243029342224606808e+03 1.077310095986338201e+00 3.776162782954591360e-03
4.247272371566832589e+03 1.079012447951504639e+00 3.671593650950447096e-03
4.251519643938400804e+03 1.082402025919544597e+00 3.464337092542452493e-03
4.255771163582340705e+03 1.087510190505499574e+00 4.285096525000002196e-03
4.260026934745924336e+03 1.092353952298568354e+00 4.704232795416163522e-03
4.264286961680671993e+03 1.097968798354825193e+00 4.597099538382219339e-03
4.268551248642354039e+03 1.103049417331529947e+00 3.829416258720436117e-03
4.272819799890998183e+03 1.104505631203324567e+00 2.923425623859676487e-03
4.277092619690890388e+03 1.101082691734277974e+00 3.880686405808314414e-03
4.281369712310583054e+03 1.094735467283947772e+00 4.336027257288711280e-03
4.285651082022895025e+03 1.086635996786818659e+00 3.990658075902092997e-03
4.289936733104918858e+03 1.077961866497690879e+00 3.425002481163847822e-03
4.294226669838025373e+03 1.069766895755540403e+00 3.189039566346510771e-03
4.298520896507864563e+03 1.062193478462058804e+00 3.308111174378207051e-03
4.302819417404373780e+03 1.054677945352900492e+00 3.283511481861504499e-03
4.307122236821779552e+03 1.049506146761779224e+00 3.002784813625664767e-03
4.311429359058603040e+03 1.045375228800677014e+00 3.010036749708302605e-03
4.315740788417662770e+03 1.042286631199981883e+00 3.248603153757044504e-03
4.320056529206081905e+03 1.040732856095010650e+00 3.325160145358440310e-03
4.324376585735290064e+03 1.040683997075455336e+00 3.190123672110002639e-03
4.328700962321026054e+03 1.042026688457014405e+00 3.735613858623636641e-03
4.333029663283348782e+03 1.044316559810489320e+00 4.729089306322087176e-03
4.337362692946633615e+03 1.045957183210711294e+00 4.756379988749983613e-03
4.341700055639581478e+03 1.044479447413608542e+00 4.585737039624916515e-03
4.346041755695222491e+03 1.041495673895033169e+00 4.199819137036607357e-03
4.350387797450919606e+03 1.036999002132688696e+00 3.777438893666320349e-03
4.354738185248371337e+03 1.028939291690629254e+00 4.564434596266541376e-03
4.359092923433621763e+03 1.018423407199509523e+00 4.645205289163322968e-03
4.363452016357056891e+03 1.009282169984146105e+00 3.985377283062901260e-03
4.367815468373414660e+03 1.001467352022694879e+00 3.231984367282917433e-03
4.372183283841789489e+03 9.959907003816513837e-01 2.715143180604112551e-03
4.376555467125633186e+03 9.948851628754069587e-01 2.797043235710942443e-03
4.380932022592760404e+03 9.982450312473043486e-01 2.777961711974300061e-03
4.385312954615354101e+03 1.003966278377411259e+00 2.537991923691005052e-03
4.389698267569970994e+03 1.012666788174898969e+00 2.247047313186976199e-03
4.394087965837542470e+03 1.023593558584777519e+00 2.128215746323376505e-03
4.398482053803381859e+03 1.035484810574178072e+00 2.101556752684404471e-03
4.402880535857186260e+03 1.048516660874815321e+00 2.352071208666767308e-03
4.407283416393044718e+03 1.062224948934525237e+00 3.099059116064559367e-03
4.411690699809440048e+03 1.075666087307517449e+00 3.222407593199708587e-03
4.416102390509250654e+03 1.087947045299105575e+00 2.812749261085453843e-03
4.420518492899761441e+03 1.098247703263568464e+00 2.561435351730104171e-03
4.424939011392662906e+03 1.106225142688389118e+00 2.754321652910347428e-03
4.429363950404056595e+03 1.112652752353673113e+00 3.489065017360319307e-03
4.433793314354462382e+03 1.118165017377751758e+00 4.214023489488057626e-03
4.438227107668818462e+03 1.123815866012160214e+00 3.803235647382511610e-03
4.442665334776488635e+03 1.132044402782729442e+00 2.756476225327279730e-03
4.447108000111265937e+03 1.144387936966616115e+00 2.555606240616733766e-03
4.451555108111379013e+03 1.159907609196221046e+00 2.932222959862818955e-03
4.456006663219492111e+03 1.178253331224102807e+00 3.731549489033655822e-03
4.460462669882713271e+03 1.198578206084665920e+00 3.710432912868668297e-03
4.464923132552597053e+03 1.219460502570400173e+00 2.744837855774610869e-03
4.469388055685150903e+03 1.237795968956987513e+00 1.973901508786420674e-03
4.473857443740837880e+03 1.253743837759865087e+00 1.568855991425421219e-03
4.478331301184580298e+03 1.266340717997210596e+00 1.710495997839836177e-03
4.482809632485766087e+03 1.275517322754692762e+00 1.827690386088461419e-03
4.487292442118253348e+03 1.282991854162058187e+00 1.954367525184801720e-03
4.491779734560373072e+03 1.289416061711687655e+00 1.842991159480953820e-03
4.496271514294934605e+03 1.295266763778332830e+00 1.223634165505269348e-03
4.500767785809231100e+03 1.301579639764300911e+00 6.387277371605320098e-04
4.505268553595042249e+03 1.309783717459845231e+00 6.292733226782734959e-04
4.509773822148638828e+03 1.319605543149261262e+00 6.260739533576307895e-04
4.514283595970789065e+03 1.330537951360118987e+00 6.671253096430061888e-04
4.518797879566761367e+03 1.342727201547077032e+00 6.268212040284230164e-04
4.523316677446328868e+03 1.356396794820828200e+00 1.180649765115361020e-03
4.527839994123776705e+03 1.370265700418433097e+00 1.585055681282027899e-03
4.532367834117902021e+03 1.383199175147117543e+00 1.932595217387176895e-03
4.536900201952022144e+03 1.394970827927054957e+00 2.510271050444987714e-03
4.541437102153975502e+03 1.403645490538702578e+00 2.316586711186787231e-03
4.545978539256130716e+03 1.407251943147908690e+00 1.895989589340951308e-03
4.550524517795388419e+03 1.405962755713416890e+00 2.204509722802615399e-03
4.555075042313184895e+03 1.400002650199194010e+00 3.241960780010241187e-03
4.559630117355500261e+03 1.391527465463721080e+00 4.074671197868243687e-03
4.564189747472856652e+03 1.381866048171372041e+00 4.151778300363929974e-03
